
##TITLE=Z140a_2_c
##JCAMP-DX=5.01  $$ Nicolet v. 1
##DATATYPE=INFRARED SPECTRUM
##ORIGIN=UniL
##OWNER=Nicolet
##LONGDATE=2011/09/20
##TIME=09:51:50
##SPECTROMETER/DATA SYSTEM=Nicolet iS5
##DATA PROCESSING=
Ratio against background
%Transmittance->Absorbance
Truncated
ElementMultiply or ElementDivide
##COMMENTS=
Number of sample scans: 32
Collection length: 51.14 sec
Sample gain: 2.0
Background collected on: Mar Sep 20 09:46:26 2011 (GMT+02:00);
Number of background scans: 32
Background gain: 2.0
Sample spacing:  1.000
Number of scan points: 12415
Resolution points: 8192
Number of FFT points: 65536
Apodization: N-B fort;
Phase correction: Mertz;
Laser frequency: 15798.0 cm-1
Number of rejected sample scans: 0
Number of rejected background scans: 0
Bench serial number: ASB1000141;
##RESOLUTION=4.000
##XUNITS=1/CM
##YUNITS=ABSORBANCE
##FIRSTX=649.893372
##LASTX=4000.122314
##FIRSTY=0.098356
##MAXX=4000.122314
##MINX=649.893372
##MAXY=0.647636
##MINY=-0.001409
##XFACTOR=1.000000
##YFACTOR=1.000000E-009
##NPOINTS=6950
##DELTAX=0.482117
##ZPD=6100
##XYDATA=(X++(Y..Y))
649.893 98355648 94462184 91508480 89467064 88257432 87758088 87815400 
653.268 88284672 89058856 90086920 91378128 92977216 94932448 97263736 
656.643 99957160 102978888 106300976 109922072 113873344 118202792 122969872 
660.018 128243384 134111624 140719408 148269120 156980256 167039536 
662.911 178491840 191185136 204710240 218463312 231677328 243306832 
665.803 252084400 256474560 254900480 246503392 231858032 213134784 
668.696 193102384 174033504 157095376 142482128 129954576 119184488 
671.589 109924976 102069688 95575808 90381848 86366320 83340512 81097360 
674.963 79443456 78241984 77410640 76891608 76633096 76575032 76650016 
678.338 76803256 77002208 77237544 77513376 77831704 78181128 78538736 
681.713 78880024 79192528 79482728 79774232 80095144 80463264 80881792 
685.088 81340680 81828528 82343368 82898680 83517936 84228064 85045848 
688.463 85974992 87010792 88148960 89394224 90763648 92280232 93966112 
691.838 95836352 97899448 100165512 102658968 105421176 108514472 112012048 
695.212 115979432 120471856 125529144 131184088 137484128 144511776 
698.105 152398720 161353888 171650352 183605952 197555840 213754080 
700.998 232266448 252780944 274502784 295970016 314979360 329010400 
703.890 335556672 332881344 320693024 300224384 273912832 244555120 
706.783 214855136 186893136 161907648 140550208 122914640 108741728 97596184 
710.158 88971656 82380136 77363712 73545944 70626608 68362640 66583068 
713.533 65166176 64024968 63101544 62349868 61730476 61212448 60772348 
716.908 60397844 60087884 59847204 59678692 59578572 59533536 59525064 
720.282 59537604 59563676 59606164 59675880 59784692 59938412 60134388 
723.657 60363384 60615360 60885248 61174832 61491940 61845728 62241556 
727.032 62678440 63150436 63649192 64168908 64707248 65265440 65845044 
730.407 66446588 67068452 67709024 68369392 69055032 69775768 70543656 
733.782 71368736 72256208 73205296 74210968 75267448 76369640 77517136 
737.156 78712904 79963080 81275224 82658488 84123288 85680824 87345080 
740.531 89133056 91064760 93166560 95471976 98020216 100861272 104052440 
743.906 107655008 111740256 116386472 121679608 127725304 134643168 
746.799 142567104 151649520 162045680 173911392 187394944 202619568 
749.692 219655744 238459728 258830256 280278560 301931616 322591072 
752.584 340670400 354439840 362415008 363569728 357650560 345181728 
755.477 327325408 305579200 281457920 256391376 231521728 207694368 
758.370 185554112 165507536 147797008 132546064 119730888 109216512 
761.262 100767872 94092760 88871384 84796784 81622040 79146600 77220408 
764.637 75736288 74602104 73737840 73077968 72565808 72160576 71837184 
768.012 71577480 71368160 71197728 71057840 70948352 70880520 70875952 
771.387 70959824 71151944 71460088 71877960 72390488 72981696 73644272 
774.762 74381608 75205000 76125688 77149960 78275392 79495056 80803480 
778.136 82203088 83705608 85330920 87099912 89029648 91133168 93421992 
781.511 95911632 98628680 101611080 104908168 108581944 112698544 117331992 
784.886 122561064 128453552 135052224 142342032 150229680 158506624 
787.779 166846576 174856576 182079456 188084864 192552080 195293184 
790.671 196300544 195721968 193835696 190974208 187466720 183630592 
793.564 179728032 175979616 172587600 169721552 167534848 166169152 
796.457 165740032 166353792 168111280 171104576 175426736 181158320 
799.350 188348736 196982608 206930336 217919648 229431824 240686112 
802.242 250693744 258224960 262062048 261242832 255221104 244092544 
805.135 228567536 209862864 189388048 168526048 148484208 130080760 
808.028 113814472 99897320 88298968 78855672 71323056 65437480 60928744 
811.402 57543940 55070364 53316972 52128920 51390612 51007040 50906848 
814.777 51035992 51346900 51802108 52373284 53039132 53786968 54608260 
818.152 55494624 56436036 57419768 58433516 59469812 60528816 61618580 
821.527 62750980 63938320 65187700 66499800 67871312 69298696 70782064 
824.902 72327040 73942656 75638240 77421176 79296272 81268672 83349624 
828.277 85560608 87936192 90525520 93385432 96578960 100174984 104241488 
831.651 108852368 114090536 120044512 126817168 134525536 143291280 
834.544 153240208 164478032 177060192 190936336 205888640 221499632 
837.437 237041024 251508656 263710944 272300672 276101248 274350560 
840.329 266880448 254226064 237493744 218162672 197696144 177398448 
843.222 158303440 141052864 126016008 113315592 102874864 94497976 87912624 
846.597 82832712 78971232 76076616 73952120 72433592 71395456 70741784 
849.972 70386096 70254344 70282192 70410176 70590976 70789128 70979912 
853.347 71152368 71307040 71456112 71618944 71819632 72081824 72421056 
856.721 72842992 73340648 73898416 74495104 75110136 75729000 76342264 
860.096 76945880 77538248 78117224 78679464 79221592 79741104 80238688 
863.471 80718040 81184144 81641512 82091280 82530888 82954424 83354320 
866.846 83723520 84057256 84354312 84616776 84850640 85065520 85274144 
870.221 85490320 85728568 86000672 86313408 86668192 87062536 87492256 
873.596 87954736 88451904 88989880 89578512 90228056 90947328 91743376 
876.970 92622088 93590728 94660664 95847664 97172264 98658656 100329656 
880.345 102204960 104294480 106592384 109068168 111658880 114272200 
883.238 116779584 119036112 120907024 122276576 123080936 123314544 
886.131 123030088 122322376 121307096 120107464 118826440 117547576 
889.023 116339216 115255112 114347384 113668952 113265096 113171912 
891.916 113406440 113963928 114819832 115936552 117275944 118801920 
894.809 120488304 122319960 124288648 126391816 128629744 131004768 
897.701 133521888 136188720 139016480 142018288 145207920 148599104 
900.594 152202848 156029072 160085936 164381616 168925232 173728720 
903.487 178807168 184181296 189879840 195939552 202411216 209360640 
906.379 216864192 225013472 233904640 243629328 254272016 265900768 
909.272 278568224 292308704 307144512 323081088 340082720 358057856 
912.165 376807360 395955232 414954336 433023200 449158720 462285472 
915.058 471294848 475235264 473518016 465991392 453028960 435453568 
917.950 414446304 391336384 367376352 343718080 321255680 300605632 
920.843 282200448 266249264 252795424 241765280 232979664 226191248 
923.736 221102464 217411552 214817456 213033728 211822128 210972272 
926.628 210306384 209688464 209002064 208155392 207083296 205738480 
929.521 204094592 202142176 199882832 197325136 194481024 191366192 
932.414 188000320 184408112 180620608 176670832 172590512 168409680 
935.306 164152544 159841840 155500912 151154064 146827328 142546752 
938.199 138333728 134204808 130171928 126242680 122424440 118724176 
941.092 115148328 111702328 108388656 105207544 102158344 99240984 96456936 
944.467 93809776 91302072 88934000 86702216 84600552 82622096 80760944 
947.841 79014344 77381296 75861048 74451528 73147720 71942840 70830232 
951.216 69804760 68863568 68005288 67228368 66530080 65906280 65353012 
954.591 64868920 64456388 64121632 63872644 63716060 63655824 63692620 
957.966 63825852 64057304 64393708 64848296 65442524 66202320 67159600 
961.341 68352512 69822848 71621368 73805968 76434040 79561992 83232096 
964.716 87461944 92233968 97485520 103109696 108938536 114761568 120343056 
968.090 125419360 129747432 133119584 135369872 136396624 136154928 
970.983 134653552 131949368 128145816 123394216 117878280 111826360 
973.876 105498608 99150424 93039856 87390216 82357704 78041952 74470912 
977.251 71615312 69404848 67748720 66554756 65730968 65199324 64895116 
980.625 64762212 64758904 64854376 65027260 65265164 65560348 65906168 
984.000 66295720 66721052 67174256 67650824 68149656 68673280 69226016 
987.375 69811408 70430480 71082392 71765608 72479472 73226152 74009680 
990.750 74834928 75706472 76627880 77603016 78637728 79742664 80932648 
994.125 82228672 83657472 85248984 87036904 89056816 91337240 93892816 
997.500 96708600 99732616 102861968 105949968 108836528 111360248 113408040 
1000.874 114943936 116023016 116787080 117432152 118191824 119278928 
1003.767 120863080 123067344 125957016 129558432 133873136 138892640 
1006.660 144603008 150982144 157996224 165578496 173610576 181922400 
1009.552 190257648 198275952 205587648 211732384 216243728 218718880 
1012.445 218841344 216467456 211654240 204668656 195942384 185998768 
1015.338 175414768 164705280 154299088 144536464 135631552 127707168 
1018.231 120808816 114916952 109971624 105887728 102575200 99943400 97909952 
1021.605 96407288 95375224 94763064 94530936 94643808 95074584 95802760 
1024.980 96809048 98073544 99571448 101266720 103113976 105057792 107030984 
1028.355 108965624 110794288 112455040 113904824 115122240 116116128 
1031.249 116925840 117623640 118308240 119084224 120057840 121313056 
1034.142 122893840 124797208 126963752 129287704 131610704 133747368 
1037.035 135508896 136707280 137194160 136874816 135714368 133744224 
1039.928 131052080 127772168 124051776 120039056 115866896 111633816 
1042.821 107414400 103263872 99223416 95334408 91638536 88173352 84972840 
1046.196 82059736 79442656 77118064 75071376 73280824 71717816 70350760 
1049.571 69147920 68076944 67110912 66230224 65421804 64679524 64001932 
1052.947 63387968 62835448 62340956 61899560 61507748 61163732 60867100 
1056.322 60617532 60412960 60248564 60117716 60012896 59928560 59862456 
1059.697 59815456 59790244 59789672 59815304 59868048 59948416 60058284 
1063.072 60201520 60383224 60609188 60883796 61210080 61589792 62024640 
1066.448 62517316 63071624 63692084 64381988 65143428 65976008 66878408 
1069.823 67848608 68886128 69990600 71162600 72402112 73707800 75078544 
1073.198 76514208 78017760 79595976 81259880 83024816 84908168 86929720 
1076.573 89112344 91481480 94067904 96908816 100044552 103520064 107378968 
1079.948 111656008 116371792 121521032 127066640 132924376 138963184 
1082.842 145015072 150867040 156296304 161096992 165088992 168159440 
1085.735 170273696 171488096 171942960 171855056 171507424 171193232 
1088.628 171211952 171842448 173298864 175738400 179235440 183769728 
1091.521 189205136 195269648 201572704 207553984 212540176 215842672 
1094.414 216786576 214893616 209983392 202212560 192060240 180220720 
1097.307 167521680 154729984 142485856 131271856 121348240 112809632 
1100.200 105617712 99648336 94733848 90692768 87361280 84584848 82227712 
1103.575 80181496 78353208 76674448 75102336 73611896 72194264 70849392 
1106.950 69582432 68401656 67318664 66350608 65518544 64843564 64343752 
1110.326 64027124 63891144 63922504 64102656 64410000 64821868 65315344 
1113.701 65863364 66433348 66991748 67504528 67945880 68303544 68579136 
1117.076 68787360 68949312 69090264 69234576 69404576 69624560 69918856 
1120.451 70310864 70821928 71464624 72242552 73149960 74176536 75311464 
1123.827 76546024 77876064 79300176 80819408 82439224 84174808 86058680 
1127.202 88141896 90504056 93250128 96502576 100416000 105166976 110943648 
1130.577 117945264 126325208 136132800 147212800 159140624 171166112 
1133.470 182177168 190939072 196266848 197330000 193945760 186630544 
1136.363 176509472 164933328 153294864 142738320 133975368 127373872 
1139.256 122957824 120518128 119690336 120041280 121142920 122561376 
1142.149 123923504 124940328 125407192 125246856 124502560 123327656 
1145.042 121932640 120544232 119366808 118535120 118122192 118146456 
1147.936 118591360 119424776 120609664 122112384 123896352 125925392 
1150.829 128169312 130607424 133235840 136065312 139111856 142380336 
1153.722 145849600 149461216 153126720 156743136 160207424 163447312 
1156.615 166428976 169160736 171682544 174053936 176343136 178612016 
1159.508 180917680 183310784 185829376 188502048 191344224 194358480 
1162.401 197540160 200884768 204396832 208094816 212011328 216185808 
1165.294 220661120 225474544 230657120 236239600 242256752 248751824 
1168.187 255779184 263395632 271654240 280596576 290250592 300631680 
1171.080 311748512 323611424 336227136 349592704 363688928 378459232 
1173.973 393809152 409624704 425771744 442130880 458616384 475167968 
1176.866 491745152 508304352 524773824 541050560 557004288 572481152 
1179.759 587313984 601305024 614191040 625630784 635187712 642352768 
1182.652 646642560 647635840 645039552 638729792 628718784 615153792 
1185.545 598314240 578614208 556603584 532918336 508255552 483270272 
1188.438 458498976 434372064 411170432 389057184 368128320 348413664 
1191.332 329901888 312550272 296283680 281007488 266620848 253034080 
1194.225 240178672 228010560 216504112 205642688 195409952 185786176 
1197.118 176755440 168313488 160472240 153268640 146758240 141002960 
1200.011 136075072 132041008 128957616 126876624 125833120 125843704 
1202.904 126901608 128972728 131993816 135868704 140484768 145707360 
1205.797 151385952 157376240 163529568 169702752 175774352 181635744 
1208.690 187206400 192444288 197350288 201974944 206408992 210785024 
1211.583 215251856 219952688 225020704 230550672 236588896 243121664 
1214.476 250067536 257271024 264490512 271435744 277770432 283141088 
1217.369 287243232 289824608 290709504 289804224 287070176 282512224 
1220.262 276170240 268120560 258485680 247434464 235186336 221992304 
1223.155 208111664 193817744 179373024 165023104 151012272 137550800 
1226.048 124813336 112942840 102027824 92118640 83235184 75367272 68485208 
1229.424 62540508 57468440 53188500 49610016 46645800 44211412 42234504 
1232.799 40658976 39436532 38526292 37893048 37501668 37321528 37328316 
1236.174 37502680 37830900 38301864 38902292 39616096 40423840 41303372 
1239.549 42235488 43203388 44194060 45196932 46200900 47193276 48160676 
1242.925 49090684 49974880 50811524 51605452 52365804 53102820 53825896 
1246.300 54543076 55262536 55998000 56770772 57611168 58560824 59666680 
1249.675 60979300 62554932 64448968 66717500 69412784 72568480 76185664 
1253.050 80208160 84516296 88903704 93086984 96758784 99601368 101366968 
1256.426 101936344 101338640 99755712 97467648 94825304 92160224 89733568 
1259.801 87729456 86228096 85231848 84694288 84557272 84776448 85336160 
1263.176 86249872 87549848 89271840 91438368 94052184 97090048 100508032 
1266.551 104236904 108186240 112253808 116315872 120241136 123905784 
1269.444 127191592 130008160 132303208 134065928 135330592 136170208 
1272.337 136695424 137033440 137322272 137710928 138337376 139333760 
1275.230 140821040 142891920 145614864 149028048 153140112 157934768 
1278.124 163375760 169417856 176003408 183067888 190544464 198350816 
1281.017 206393168 214567840 222749792 230806656 238606608 246015744 
1283.910 252917312 259214544 264833952 269738656 273935840 277491264 
1286.803 280522560 283202816 285744192 288348896 291201696 294436000 
1289.696 298113184 302224928 306689568 311370912 316070016 320550368 
1292.589 324569440 327881312 330294208 331704352 332116608 331654272 
1295.482 330536704 329064000 327548608 326294112 325583040 325634528 
1298.375 326615648 328628352 331694272 335746432 340617760 346068736 
1301.268 351777152 357381344 362544160 366948160 370342880 372558048 
1304.161 373482784 373069664 371324544 368301824 364094720 358819008 
1307.054 352599712 345544352 337735168 329231456 320078720 310323200 
1309.947 300022304 289242976 278059456 266548064 254782640 242844928 
1312.840 230830128 218842560 207000304 195417232 184184544 173376304 
1315.733 163042656 153215872 143929808 135218464 127115432 119653320 
1318.626 112850624 106708664 101211296 96329144 92023664 88249840 84959904 
1322.002 82099840 79608480 77423672 75479728 73713224 72070176 70500472 
1325.377 68959560 67409512 65814316 64145328 62386932 60538336 58616680 
1328.752 56651576 54681612 52742536 50861848 49059560 47347408 45734224 
1332.127 44228840 42838824 41568996 40417840 39377028 38433504 37573592 
1335.503 36788112 36073356 35430300 34860180 34360584 33923932 33540118 
1338.878 33199954 32900694 32647502 32451012 32321136 32262422 32271024 
1342.253 32337162 32449152 32597602 32779046 32994132 33245490 33533532 
1345.628 33855224 34204756 34577100 34971348 35392480 35849756 36354672 
1349.004 36916592 37540752 38229816 38985868 39813824 40723056 41726392 
1352.379 42836924 44066716 45423884 46914376 48545072 50326584 52275844 
1355.754 54417092 56778064 59388432 62276932 65467104 68976920 72816312 
1359.129 76987648 81479880 86264912 91297128 96498312 101757808 106941672 
1362.505 111895416 116477144 120584552 124167968 127232176 129815520 
1365.398 131968768 133731920 135127872 136166192 136853104 137202656 
1368.291 137241248 137001152 136513552 135798160 134858080 133679080 
1371.184 132230656 130470800 128343520 125786560 122747576 119198440 
1374.077 115159776 110707192 105963128 101065456 96135784 91269656 86528328 
1377.452 81956280 77602816 73522400 69773512 66406012 63440040 60864128 
1380.827 58639924 56721272 55066524 53649468 52457660 51481512 50704340 
1384.203 50098168 49624460 49244564 48931484 48673628 48476756 48355776 
1387.578 48325184 48391448 48552264 48802780 49141368 49571904 50101664 
1390.953 50735400 51470732 52296360 53197376 54159792 55175992 56247344 
1394.328 57380592 58581640 59848920 61175404 62553556 63983044 65475544 
1397.704 67054144 68745904 70574016 72548032 74661480 76899992 79250816 
1401.079 81711728 84292672 87011488 89883480 92911312 96081168 99358800 
1404.454 102693168 106027832 109305272 112473376 115489600 118319160 
1407.347 120937664 123334920 125516352 127508160 129354952 131121848 
1410.240 132883432 134712704 136679136 138836288 141222736 143866208 
1413.133 146783792 149981472 153449280 157159664 161058528 165056432 
1416.026 169038224 172837200 176225632 178932560 180638784 181050576 
1418.919 179998752 177498608 173750864 169046000 163666624 157814768 
1421.813 151611648 145159056 138577616 132040200 125791344 120076616 
1424.706 115085696 110907368 107510136 104782088 102578896 100778568 
1427.599 99295904 98085048 97127760 96412992 95925928 95649400 95568176 
1430.974 95676608 95975976 96464920 97125352 97917584 98773408 99608328 
1434.349 100332584 100852000 101089288 100996632 100570936 99857864 98934496 
1437.724 97879560 96744616 95552024 94305632 93006160 91665464 90314816 
1441.100 88999472 87782784 86737408 85934680 85449096 85347984 85683648 
1444.475 86495096 87803472 89619760 91953272 94819696 98240272 102233096 
1447.850 106803984 111950128 117685768 124065760 131209464 139291328 
1450.743 148481792 158878736 170419360 182877216 195845184 208827408 
1453.636 221374064 233026048 243304192 251639280 257294800 259551376 
1456.529 258050560 253164592 245915376 237470128 228665648 219805264 
1459.422 210836768 201584928 191929760 181850992 171402864 160622048 
1462.315 149508416 138038032 126218704 114200992 102327696 91061240 80868856 
1465.691 72051784 64674444 58608868 53629632 49514564 46086048 43225128 
1469.066 40850224 38888700 37263576 35895640 34714396 33686540 32822784 
1472.441 32168892 31774682 31664364 31828872 32242864 32890436 33783732 
1475.816 34961328 36483776 38417936 40822304 43753716 47262836 51388224 
1479.192 56133680 61428996 67099928 72818344 78152088 82645784 85894984 
1482.567 87674392 87957008 86894496 84736736 81770968 78274088 74453136 
1485.942 70459744 66389368 62286796 58168788 54035004 49884592 45729916 
1489.317 41615596 37626956 33884596 30516062 27616078 25225304 23319730 
1492.693 21828654 20658042 19716554 18931402 18252980 17659364 17146274 
1496.068 16716219 16368607 16094953 15881406 15717708 15600503 15532881 
1499.443 15519146 15560698 15653159 15789721 15964998 16178586 16435774 
1502.818 16744284 17109636 17531526 17999308 18494250 18991940 19467916 
1506.194 19906916 20306602 20677536 21029730 21368460 21693662 22003490 
1509.569 22297078 22575506 22840808 23093584 23332526 23556696 23767296 
1512.944 23969596 24171606 24380858 24598836 24818786 25024840 25199072 
1516.319 25330346 25422064 25492300 25564688 25656104 25764838 25869520 
1519.695 25933318 25920338 25812762 25627388 25411596 25225198 25109332 
1523.070 25069558 25084126 25118776 25145422 25147846 25125902 25089428 
1526.445 25050146 25014030 24980194 24945910 24914152 24895728 24907870 
1529.820 24965000 25070786 25212872 25366420 25499818 25586582 25618776 
1533.196 25613012 25607142 25641306 25743812 25922028 26167562 26465388 
1536.571 26800420 27160860 27529720 27883524 28191154 28419828 28554310 
1539.946 28611212 28642676 28708442 28849030 29072524 29356892 29667166 
1543.321 29971980 30257044 30526228 30798744 31095706 31432658 31812758 
1546.697 32229304 32672114 33133864 33613644 34113960 34637848 35184940 
1550.072 35751064 36331760 36926328 37540680 38185420 38871452 39604556 
1553.447 40382312 41195160 42031216 42884064 43753276 44639404 45537096 
1556.822 46420196 47235276 47910752 48382072 48645164 48777088 48911904 
1560.198 49154204 49531796 50016668 50556128 51104716 51632504 52133104 
1563.573 52619128 53114504 53644144 54226532 54871020 55579912 56355564 
1566.948 57204600 58138368 59168416 60301632 61538096 62873928 64308436 
1570.323 65844892 67491952 69250624 71104712 73012304 74905600 76701760 
1573.698 78289600 79547504 80353288 80598792 80232712 79290192 77897944 
1577.074 76221800 74410976 72562560 70716832 68883728 67068836 65285884 
1580.449 63569440 61971324 60542828 59329780 58358320 57632396 57137968 
1583.824 56849928 56740452 56781536 56951912 57237640 57630956 58127196 
1587.199 58721848 59407124 60173776 61015828 61934756 62943980 64068252 
1590.575 65339528 66787900 68439480 70313392 72422552 74775608 77373776 
1593.950 80204488 83230088 86384960 89590240 92773400 95911712 99061800 
1597.325 102385664 106134560 110617416 116196912 123233872 132082952 
1600.218 143098416 156599264 172841088 191910848 213623200 237292384 
1603.111 261523968 284320128 303060128 315027648 318192736 311650112 
1606.004 295979104 272958912 245190512 215429440 186021136 158833680 
1608.897 134980864 114909704 98624728 85797400 75947736 68533392 63046604 
1612.273 59035616 56107888 53964200 52365656 51123876 50103524 49202032 
1615.648 48357928 47561148 46847420 46280292 45915420 45776816 45847660 
1619.023 46084572 46430820 46833140 47251716 47657716 48036380 48383556 
1622.398 48701352 48996164 49277816 49561136 49861956 50195792 50572468 
1625.774 50991764 51442568 51906276 52366220 52815124 53263592 53735816 
1629.149 54264184 54873988 55574296 56357372 57203656 58092308 59004036 
1632.524 59926508 60851320 61765240 62648544 63476704 64232288 64920200 
1635.899 65576180 66256120 67000596 67819208 68686128 69555288 70375808 
1639.275 71109712 71745640 72298240 72801456 73291336 73793080 74311568 
1642.650 74835520 75344648 75821464 76256080 76644000 76984288 77279072 
1646.025 77542960 77812600 78152608 78648168 79367592 80342688 81556944 
1649.400 82958112 84467720 85994616 87461856 88802264 89989576 91057312 
1652.776 92121560 93333632 94785200 96492888 98409432 100479384 102669616 
1656.151 104966600 107366968 109863480 112449336 115119904 117875192 
1659.044 120728704 123703136 126823472 130111384 133581992 137246736 
1661.937 141118448 145219216 149576672 154204624 159103104 164248784 
1664.830 169607120 175142832 180838880 186711872 192798880 199164416 
1667.723 205887552 213048432 220711424 228910608 237653376 246900432 
1670.616 256583952 266629728 276982560 287631168 298623520 310081280 
1673.509 322149440 334929888 348390336 362271808 376103008 389347168 
1676.402 401582304 412605280 422387392 430950688 438275136 444285088 
1679.295 448885664 452064064 453926368 454664288 454415584 453140000 
1682.188 450550688 446197472 439708416 431179744 421392480 411599584 
1685.082 402878272 395617408 389545024 384043904 378524608 372562720 
1687.975 365984000 358811776 351188160 343271360 335174560 326985184 
1690.868 318793856 310717568 302887200 295356672 288028608 280608960 
1693.761 272644512 263655488 253385152 242066960 230469472 219587888 
1696.654 210096320 202075264 195013264 188092176 180392208 171213136 
1699.547 160400608 148544064 136808336 126286776 117472064 110173856 
1702.440 103871392 98023008 92264416 86438120 80572264 74804416 69307984 
1705.815 64229756 59647672 55587180 52048420 49020724 46478128 44360636 
1709.190 42574948 41006420 39557516 38183180 36896896 35752392 34800760 
1712.566 34058444 33487860 33016584 32567494 32105170 31650748 31271606 
1715.941 31036516 30973494 31045664 31174410 31288594 31374242 31479858 
1719.316 31680614 32026652 32512926 33083014 33653424 34154568 34549724 
1722.691 34852352 35109344 35375232 35678072 36008304 36331184 36616632 
1726.067 36864612 37112768 37420292 37840520 38397776 39077288 39839504 
1729.442 40645584 41485428 42384108 43389756 44547540 45878888 47371684 
1732.817 48993568 50712796 52528776 54469372 56583596 58896936 61394988 
1736.192 64047552 66833652 69769192 72910832 76354824 80208320 84552400 
1739.568 89406568 94733272 100479720 106632288 113251896 120472208 128448520 
1742.943 137312880 147124784 157866528 169453744 181776112 194744096 
1745.836 208258192 222181536 236304352 250259392 263538576 275549184 
1748.729 285632800 293188064 297748992 299057568 297146656 292361216 
1751.622 285319136 276726848 267229584 257302128 247186176 236962208 
1754.515 226622128 216136848 205544144 194988176 184696576 174945984 
1757.408 165966784 157869536 150635632 144137360 138198880 132645472 
1760.301 127358872 122306040 117543672 113190528 109371544 106164936 
1763.194 103567880 101502984 99841936 98446544 97183496 95932912 94599360 
1766.570 93105296 91400784 89471176 87335600 85034808 82604376 80053184 
1769.945 77347048 74418688 71193472 67638592 63806124 59845080 55955484 
1773.320 52310304 48997352 46004112 43255984 40662580 38162560 35739872 
1776.695 33420618 31245402 29246936 27429650 25769936 24230952 22784586 
1780.071 21427146 20177812 19064742 18103482 17285482 16578745 15943823 
1783.446 15346933 14775234 14236266 13749739 13331574 12984474 12696602 
1786.821 12450892 12235482 12050736 11906386 11814210 11776554 11782104 
1790.196 11806174 11819895 11805289 11763788 11716810 11692745 11713678 
1793.572 11782138 11885512 12004953 12128755 12257533 12403056 12579426 
1796.947 12794700 13045111 13316678 13592210 13859432 14116551 14370739 
1800.322 14630766 14897565 15160721 15400759 15599336 15746361 15844015 
1803.697 15902612 15934130 15942518 15921241 15855219 15729457 15537277 
1807.073 15284292 14986250 14660992 14321185 13968229 13595013 13192879 
1810.448 12761429 12312682 11869133 11453555 11079740 10747273 10443772 
1813.823 10153475 9867337 9587687 9327684 9103497 8924305 8787584 8679536 
1817.680 8584053 8490518 8400111 8323704 8274935 8260042 8274563 8304284 
1821.538 8334275 8356467 8372883 8393252 8428250 8481429 8545799 8608117 
1825.395 8658072 8696574 8737816 8803171 8909085 9059579 9241535 9431795 
1829.253 9605200 9749972 9872387 9994802 10140756 10322758 10536984 10767618 
1833.110 10996166 11210520 11410386 11604492 11803042 12009040 12213263 
1836.485 12397363 12543273 12640825 12694248 12718404 12732154 12748020 
1839.861 12766888 12779787 12773986 12741127 12680465 12598629 12504634 
1843.236 12404522 12297821 12181502 12055982 11931078 11825037 11757898 
1846.611 11741217 11773525 11840462 11921712 11999264 12065828 12126540 
1849.986 12194009 12278222 12378134 12479434 12559951 12600334 12591910 
1853.362 12540613 12462043 12372338 12278052 12173085 12042866 11874342 
1856.737 11664289 11423245 11169721 10921510 10687500 10463730 10238176 
1860.112 10000566 9750684 9500404 9268985 9071860 8913753 8785285 8670376 
1863.969 8553977 8431967 8312558 8211314 8140208 8099461 8074143 8041131 
1867.827 7980278 7885118 7766905 7649399 7555659 7495009 7461098 7437233 
1871.684 7408112 7368107 7324197 7289927 7278370 7292185 7322680 7353717 
1875.542 7371342 7372050 7364804 7365309 7386575 7431638 7491605 7551512 
1879.399 7599458 7634595 7668250 7718435 7798243 7909109 8037519 8163673 
1883.257 8268788 8345962 8401326 8449974 8505486 8571617 8640056 8695120 
1887.114 8723482 8720846 8694748 8659424 8628024 8604162 8580674 8544751 
1890.971 8487409 8409974 8324582 8246703 8186497 8142976 8103748 8051291 
1894.829 7973562 7871352 7758607 7655064 7574945 7519450 7476738 7429548 
1898.686 7364433 7280324 7189090 7108249 7050726 7016041 6990617 6955264 
1902.544 6895808 6811723 6716785 6632330 6576619 6554754 6557647 6567167 
1906.401 6567940 6553476 6529527 6507159 6495354 6492461 6487887 6465926 
1910.259 6417365 6345375 6264791 6194977 6149270 6128838 6122789 6116371 
1914.116 6098695 6070739 6043456 6031327 6041407 6068252 6094360 6099939 
1917.973 6074704 6025213 5971662 5938743 5941027 5975828 6024709 6063112 
1921.831 6073494 6052998 6015167 5980598 5966859 5977877 6003812 6028572 
1925.688 6041575 6044229 6050377 6077694 6137307 6226673 6330851 6429942 
1929.546 6510455 6572953 6630917 6701642 6794760 6905840 7016276 7104914 
1933.403 7157426 7175515 7174538 7176121 7194008 7228102 7263747 7282144 
1937.260 7272709 7239017 7198455 7172247 7173965 7201487 7237804 7260075 
1941.118 7252966 7215704 7161939 7109023 7067800 7033686 6990752 6921495 
1944.975 6820339 6698008 6579950 6492966 6450657 6447395 6460747 6464211 
1948.833 6439862 6389287 6328228 6278574 6252253 6243580 6233295 6200187 
1952.690 6134316 6044330 5953556 5888025 5860955 5866563 5881408 5880501 
1956.548 5851853 5804503 5765720 5765552 5821629 5927524 6058206 6181668 
1960.405 6280255 6359362 6443931 6562491 6730918 6942807 7172617 7390013 
1964.262 7575788 7731757 7877560 8037216 8221816 8422271 8611429 8759690 
1968.120 8849362 8883078 8877633 8852270 8811151 8739237 8607779 8391867 
1971.977 8085856 7712533 7313279 6932773 6600975 6321504 6078602 5853063 
1975.835 5641638 5460983 5341784 5307168 5356477 5456755 5559809 5618544 
1979.692 5610254 5542257 5444039 5348158 5273058 5216582 5161556 5090478 
1983.550 4998697 4899931 4818644 4778642 4786012 4828092 4877949 4912833 
1987.407 4924629 4926372 4942458 4996015 5094333 5225000 5362850 5485142 
1991.264 5584913 5674971 5780964 5923493 6106794 6314612 6518494 6691110 
1995.122 6822123 6920350 7008161 7105150 7216209 7325915 7407741 7435413 
1998.979 7397090 7301755 7171439 7029577 6887224 6738423 6566561 6359362 
2002.837 6117715 5862399 5623546 5428773 5286809 5186436 5100468 5005836 
2006.694 4897552 4792277 4719048 4700961 4741157 4816902 4891353 4929622 
2010.552 4917558 4865183 4799983 4749163 4726452 4725178 4725781 4709737 
2014.409 4672894 4627514 4596805 4599082 4635718 4689506 4734658 4753082 
2018.266 4745712 4733988 4747387 4808995 4919401 5057021 5188179 5288117 
2022.124 5352082 5400021 5463063 5568904 5724523 5913417 6104912 6270775 
2025.981 6400552 6503863 6601749 6712175 6837034 6960886 7061098 7121923 
2029.839 7147118 7160187 7194514 7273316 7399348 7551040 7695568 7804990 
2033.696 7869159 7898311 7914203 7935327 7963842 7985677 7980244 7934855 
2037.553 7854482 7761710 7684067 7642958 7640361 7660055 7677457 7675299 
2041.411 7652906 7628795 7628693 7670442 7755672 7867134 7978624 8067830 
2045.268 8129843 8175929 8228502 8306546 8415211 8543636 8671728 8778691 
2049.126 8853285 8896808 8916763 8920990 8911892 8886629 8842767 8785149 
2052.983 8727674 8689542 8688359 8730244 8805268 8892175 8966652 9012893 
2056.841 9030586 9032007 9033529 9046216 9068681 9087661 9085936 9051325 
2060.698 8983700 8895015 8803171 8720676 8651853 8589968 8524544 8447913 
2064.555 8360588 8270646 8188050 8117893 8056218 7992529 7918050 7831878 
2068.413 7743968 7671960 7633043 7634123 7668216 7717389 7760226 7784209 
2072.270 7788561 7784480 7786234 7803573 7835285 7871655 7899998 7913630 
2076.128 7916363 7921087 7941773 7986521 8052101 8125792 8193047 8244643 
2079.985 8281892 8314989 8357548 8416764 8490383 8566751 8631843 8676562 
2083.843 8701137 8713983 8727573 8750156 8781565 8813958 8838676 8850275 
2087.700 8852033 8853656 8865120 8891296 8927653 8962085 8981434 8978626 
2091.557 8956639 8928059 8907462 8905229 8922478 8951735 8981163 9002203 
2095.415 9013908 9021892 9033699 9052948 9075075 9089793 9087255 9062760 
2099.272 9021080 8974161 8935567 8912737 8904147 8900123 8889098 8864241 
2103.130 8826300 8782749 8742684 8710298 8681598 8646952 8595510 8522618 
2106.987 8432271 8335897 8245487 8168568 8104051 8043662 7977409 7899592 
2110.844 7812209 7723764 7643935 7577305 7520630 7465513 7402214 7326016 
2114.702 7240264 7154596 7080463 7023954 6984456 6954624 6926040 6893688 
2118.559 6858678 6826600 6803544 6790620 6783081 6771605 6748283 6711771 
2122.417 6668634 6630614 6608746 6607536 6622069 6641650 6653930 6652719 
2126.274 6640102 6625029 6617157 6621060 6634214 6648008 6653930 6648749 
2130.132 6637343 6630614 6639900 6669778 6717020 6772446 6826499 6876048 
2133.989 6926141 6985769 7062748 7155876 7253572 7337204 7392035 7411853 
2137.846 7403764 7383913 7368241 7365984 7376027 7389002 7395034 7391867 
2141.704 7385463 7387654 7407977 7445457 7488234 7518979 7521642 7491537 
2145.561 7436761 7374510 7319984 7278977 7244576 7202632 7141223 7057899 
2149.419 6963513 6874466 6804318 6752893 6706555 6642524 6542376 6401157 
2153.276 6231043 6054913 5896421 5767567 5666445 5581624 5505108 5443334 
2157.134 5418741 5461587 5590921 5801582 6061028 6319453 6529829 6668331 
2160.991 6737480 6759725 6760869 6758109 6755215 6748249 6734149 6720116 
2164.848 6723145 6762888 6850196 6978698 7125662 7260210 7359243 7414616 
2168.706 7435042 7439458 7445019 7456513 7465244 7454693 7412055 7338114 
2172.563 7250270 7173763 7132331 7137451 7182959 7250978 7321838 7384048 
2176.421 7438547 7495144 7563043 7644947 7733376 7815077 7879719 7925811 
2180.278 7961447 8000392 8051831 8113943 8174207 8216177 8228029 8210808 
2184.135 8178663 8151011 8144124 8162491 8196795 8231001 8252173 8256091 
2187.993 8250721 8250688 8267944 8305769 8357750 8411055 8455447 8489639 
2191.850 8521198 8562865 8623596 8704145 8796239 8887677 8968884 9039450 
2195.708 9107523 9184710 9277550 9384289 9493055 9589618 9663334 9713614 
2199.565 9749803 9786029 9832832 9891268 9952796 10004329 10035830 10046070 
2203.423 10043188 10039797 10046477 10066247 10093444 10117930 10132208 
2206.798 10135804 10135702 10141061 10158733 10187869 10221520 10249948 
2210.173 10267657 10277971 10290558 10318075 10367481 10436475 10513085 
2213.548 10583019 10634662 10664918 10680131 10691100 10706993 10730835 
2216.924 10758718 10784499 10804370 10820506 10839835 10870241 10914545 
2220.299 10967722 11018664 11055063 11070291 11067266 11058020 11055914 
2223.674 11071616 11106865 11154423 11203822 11246800 11281485 11313383 
2227.049 11350284 11397019 11451616 11506493 11551168 11578322 11587953 
2230.425 11585503 11579106 11574579 11570326 11560254 11536911 11495980 
2233.800 11440322 11378787 11321274 11275126 11240884 11213274 11185156 
2237.175 11153165 11119816 11092928 11080725 11088000 11112032 11145040 
2240.550 11177065 11201850 11220381 11239183 11266250 11306956 11360317 
2243.926 11419673 11476621 11525070 11564439 11599286 11635427 11676100 
2247.301 11719533 11760179 11792113 11813733 11829088 11846488 11874614 
2250.676 11918204 11975047 12037416 12096217 12146438 12188317 12227439 
2254.051 12270383 12320250 12374009 12423343 12457985 12472170 12465486 
2257.427 12444380 12417274 12391703 12370839 12352941 12335044 12315717 
2260.802 12297275 12285312 12285277 12299526 12324988 12354509 12380521 
2264.177 12398045 12407659 12414375 12426036 12447312 12479877 12520526 
2267.552 12564453 12608009 12650615 12694146 12740786 12791322 12842921 
2270.927 12891386 12932551 12965493 12993215 13021552 13055627 13097970 
2274.303 13147146 13198822 13248386 13294403 13338749 13386108 13441127 
2277.678 13505041 13575287 13646502 13713557 13773680 13828167 13880710 
2281.053 13935758 13995193 14057271 14118194 14173957 14222845 14266430 
2284.428 14308069 14351184 14396632 14442222 14483844 14517555 14542497 
2287.804 14560862 14577206 14595710 14618634 14644850 14670863 14693072 
2291.179 14709798 14722480 14734340 14748359 14765911 14785416 14803689 
2294.554 14817711 14826419 14831115 14835299 14841813 14851619 14863071 
2297.929 14873083 14879187 14881518 14883198 14888821 14902915 14927434 
2301.305 14960767 14998871 15037664 15074334 15109497 15145590 15185769 
2304.680 15231476 15281822 15333752 15383903 15430764 15474438 15517772 
2308.055 15563137 15612490 15665388 15719872 15774053 15827039 15880100 
2311.430 15935883 15996864 16064111 16137043 16213529 16291577 16370395 
2314.806 16450882 16535236 16625082 16720489 16819086 16917534 17012284 
2318.181 17101778 17186398 17268448 17350514 17434836 17520796 17606326 
2321.556 17688180 17762386 17825004 17872718 17902582 17913010 17903930 
2324.931 17878586 17843404 17807604 17781300 17773500 17788654 17825800 
2328.307 17879104 17940324 18001310 18056780 18105658 18149566 18191578 
2331.682 18233664 18275788 18317122 18356766 18394926 18433886 18476514 
2335.057 18525162 18580248 18639528 18699920 18758868 18815922 18872464 
2338.432 18931056 18994086 19061834 19132914 19204216 19273208 19338506 
2341.808 19399794 19456620 19506176 19542634 19557850 19543918 19496402 
2345.183 19417464 19316612 19210588 19118164 19057090 19041372 19078522 
2348.558 19170556 19314154 19502362 19724668 19967276 20216304 20457174 
2351.933 20678336 20873188 21040858 21184728 21310688 21424256 21528524 
2355.309 21624180 21710554 21786916 21854228 21914338 21968880 22017712 
2358.684 22058846 22088688 22104482 22106222 22096740 22081890 22068222 
2362.059 22059682 22057416 22059544 22063168 22066934 22071990 22081576 
2365.434 22099634 22128886 22168878 22216304 22267188 22318424 22368552 
2368.810 22418510 22469626 22522458 22575472 22625734 22669822 22705988 
2372.185 22734338 22756896 22775854 22792510 22806200 22814860 22816186 
2375.560 22809552 22796072 22778474 22760246 22743348 22728264 22713880 
2378.935 22699180 22683820 22669508 22659314 22656556 22663294 22679910 
2382.311 22704942 22736364 22772852 22814582 22862984 22919952 22986216 
2385.686 23061508 23144328 23233070 23327210 23427320 23535288 23652134 
2389.061 23776816 23905700 24033222 24152970 24260138 24352260 24429892 
2392.436 24495268 24551116 24599644 24642004 24678864 24711480 24741504 
2395.812 24771144 24801770 24833414 24864080 24890466 24910114 24922186 
2399.187 24928046 24931556 24936608 24946260 24961280 24980230 25000692 
2402.562 25020908 25040844 25061626 25085496 25113826 25146442 25181446 
2405.937 25216102 25248058 25275978 25300000 25320300 25337792 25352124 
2409.313 25362838 25369898 25373866 25376432 25380086 25386796 25397192 
2412.688 25410718 25426596 25443952 25463802 25488364 25519952 25559804 
2416.063 25607036 25658564 25709678 25756892 25798522 25835760 25871806 
2419.438 25909788 25951610 25997020 26043740 26089198 26131844 26172244 
2422.813 26212400 26254848 26301312 26352042 26406122 26462254 26519728 
2426.189 26579044 26641432 26707214 26775928 26845146 26911734 26973570 
2429.564 27029632 27081224 27130528 27179698 27228978 27277452 27322756 
2432.939 27363442 27399614 27433390 27468194 27507092 27551538 27601108 
2436.314 27653684 27707220 27761084 27816294 27874904 27938572 28007590 
2439.690 28080328 28153890 28225700 28294584 28361040 28426834 28493484 
2443.065 28561598 28630006 28697256 28762498 28826050 28890674 28959524 
2446.440 29035468 29119078 29209120 29303256 29399222 29496662 29597032 
2449.815 29702642 29815518 29935346 30060104 30185966 30309198 30427952 
2453.191 30542652 30655034 30767444 30881094 30996054 31111368 31225996 
2456.566 31340268 31455490 31573490 31695086 31819280 31943298 32063824 
2459.941 32177992 32285548 32388068 32489252 32592102 32698192 32806490 
2463.316 32914740 33019874 33120524 33217120 33311774 33406946 33504218 
2466.692 33603836 33704948 33806620 33908668 34011964 34118440 34229096 
2470.067 34343764 34461080 34577996 34692112 34802308 34909228 35014840 
2473.442 35121524 35231000 35343956 35460356 35580204 35703720 35832164 
2476.817 35966692 36106876 36251752 36398376 36543928 36686320 36825656 
2480.193 36963272 37101832 37243072 37387320 37533200 37678304 37821068 
2483.568 37961316 38100556 38241684 38387024 38537700 38692952 38850980 
2486.943 39009680 39168440 39327836 39489108 39653848 39822432 39994132 
2490.318 40167532 40341516 40515820 40691324 40869116 41049900 41233160 
2493.694 41416828 41598604 41776876 41951580 42124124 42297024 42472192 
2497.069 42650532 42831180 43012596 43193284 43372916 43552028 43732464 
2500.444 43915796 44102508 44292164 44483404 44675028 44866804 45059400 
2503.819 45253776 45450924 45650960 45852704 46054620 46255412 46454640 
2507.195 46653220 46852108 47052196 47253672 47455868 47657348 47856556 
2510.570 48052516 48244200 48431300 48612924 48788208 48956852 49119364 
2513.945 49277780 49435624 49596492 49763484 49937708 50118360 50302512 
2517.320 50486968 50669416 50849072 51026600 51203460 51380580 51558068 
2520.696 51735140 51910532 52084204 52256632 52428984 52602712 52777444 
2524.071 52951872 53123676 53290156 53450400 53604968 53756328 53907592 
2527.446 54060932 54217560 54376680 54537288 54698900 54862032 55028688 
2530.821 55201500 55382404 55572004 55769560 55973536 56182252 56395172 
2534.197 56612696 56835952 57066204 57303988 57548932 57800340 58057460 
2537.572 58320080 58588316 58862028 59140508 59422244 59704584 59984896 
2540.947 60260708 60530108 60791480 61043096 61282072 61505036 61707828 
2544.322 61886456 62038020 62160916 62254712 62319268 62353808 62356984 
2547.698 62326304 62259724 62155604 62014244 61837324 61627592 61388848 
2551.073 61124712 60838972 60536240 60221352 59900260 59578156 59259288 
2554.448 58945780 58637464 58332204 58027168 57720672 57412240 57103200 
2557.823 56796112 56493356 56196920 55907920 55627136 55355680 55095640 
2561.198 54849328 54619532 54408492 54217032 54045324 53893488 53761876 
2564.574 53652016 53565756 53504812 53469884 53460480 53474456 53509688 
2567.949 53563768 53635592 53724156 53829160 53949196 54082476 54226756 
2571.324 54380288 54542364 54714080 54897560 55095036 55308332 55537696 
2574.699 55782068 56039804 56309504 56590576 56883544 57189292 57508456 
2578.075 57841068 58186328 58542816 58908584 59281732 59660180 60041544 
2581.450 60422560 60799716 61168384 61524464 61863988 62183020 62477640 
2584.825 62743632 62975308 63167148 63312864 63406916 63445376 63425624 
2588.200 63346224 63206768 63007416 62748304 62430468 62056368 61630000 
2591.576 61157056 60644852 60100596 59531256 58942856 58339824 57726464 
2594.951 57107204 56486676 55869556 55260988 54664472 54082848 53518568 
2598.326 52973172 52449508 51950376 51478864 51037520 50627976 50249464 
2601.701 49900312 49578296 49281456 49008480 48759108 48533476 48331188 
2605.077 48151828 47993856 47855700 47736264 47634424 47549428 47480116 
2608.452 47425008 47382068 47349032 47324204 47306764 47296528 47293832 
2611.827 47299044 47311788 47331332 47356092 47385172 47417840 47453840 
2615.202 47493276 47535672 47580368 47626216 47672140 47717772 47763748 
2618.578 47811384 47861844 47916524 47975208 48037380 48102264 48169192 
2621.953 48238756 48311892 48389888 48473496 48562600 48656472 48753916 
2625.328 48854168 48957332 49063936 49174908 49290696 49410856 49534172 
2628.703 49659752 49786856 49915924 50048196 50184820 50326476 50472380 
2632.079 50620640 50768952 50915640 51060144 51203088 51346120 51490576 
2635.454 51636796 51783668 51929428 52072064 52210296 52344052 52474336 
2638.829 52602340 52729704 52857108 52984624 53111992 53239436 53367136 
2642.204 53496008 53626672 53759368 53894008 54029752 54165908 54301168 
2645.580 54435268 54567344 54697244 54824136 54947348 55066260 55181072 
2648.955 55291812 55399528 55504940 55608416 55709736 55807836 55901288 
2652.330 55988916 56070116 56145068 56214264 56278420 56338208 56393552 
2655.705 56444680 56491320 56533588 56571400 56604808 56633684 56657844 
2659.081 56677020 56691328 56701600 56709116 56715608 56722480 56730444 
2662.456 56739280 56748232 56756160 56762464 56767184 56771380 56776284 
2665.831 56782328 56789464 56796228 56799816 56797624 56786408 56763600 
2669.206 56727312 56675400 56605976 56517316 56407324 56274612 56118412 
2672.582 55939312 55738404 55518080 55281688 55033052 54777076 54519860 
2675.957 54267752 54027912 53807328 53612316 53447924 53318324 53225880 
2679.332 53172208 53157304 53180376 53238612 53327692 53442644 53577300 
2682.707 53725540 53882608 54044460 54208360 54372812 54535864 54696680 
2686.083 54853836 55006952 55156088 55302576 55448392 55595200 55744316 
2689.458 55896124 56049756 56203932 56357336 56508752 56657240 56802268 
2692.833 56942620 57076744 57202372 57317560 57420032 57508684 57583136 
2696.208 57643176 57688584 57718632 57732140 57727484 57703228 57658084 
2699.583 57591268 57502216 57390084 57253556 57090388 56898200 56674456 
2702.959 56417060 56124632 55796156 55431340 55029588 54590600 54114184 
2706.334 53600580 53051336 52468728 51856912 51220536 50565768 49898788 
2709.709 49226304 48555524 47893140 47246028 46620272 46020948 45452104 
2713.084 44916480 44415980 43951320 43522104 43127484 42765068 42431564 
2716.460 42123392 41836528 41568156 41316092 41079620 40858488 40652428 
2719.835 40461044 40282836 40116216 39959692 39812408 39674544 39546848 
2723.210 39430360 39325228 39231248 39147120 39071488 39003120 38941792 
2726.585 38887940 38842392 38805580 38777536 38757180 38743524 38735188 
2729.961 38731316 38731748 38737144 38748048 38765076 38788300 38817572 
2733.336 38852284 38892072 38935924 38982712 39031284 39080264 39128376 
2736.711 39174384 39218012 39259104 39297984 39335236 39371224 39406376 
2740.086 39441248 39476696 39513748 39554324 39600128 39652508 39712556 
2743.462 39780744 39857260 39942472 40036712 40140824 40255208 40379696 
2746.837 40513312 40654172 40799884 40948452 41097832 41247008 41395724 
2750.212 41543724 41691012 41837696 41983768 42129052 42273796 42418008 
2753.587 42561388 42703136 42841604 42974736 43100884 43218832 43328212 
2756.963 43430144 43526024 43617196 43705056 43789708 43870968 43948060 
2760.338 44020328 44087400 44148540 44203600 44251952 44293044 44326252 
2763.713 44351720 44370068 44382508 44390580 44395648 44399136 44401776 
2767.088 44404456 44407760 44412896 44421004 44433524 44451252 44474632 
2770.464 44504000 44539204 44580584 44628648 44683916 44746716 44816288 
2773.839 44891860 44971784 45054588 45139724 45227632 45319492 45417264 
2777.214 45522416 45635612 45756940 45885480 46020064 46159556 46303628 
2780.589 46451800 46603860 46760140 46920284 47084068 47251604 47423016 
2783.965 47598372 47777764 47960628 48146164 48333520 48522288 48712068 
2787.340 48903484 49097288 49293812 49493100 49694524 49896932 50099468 
2790.715 50301584 50503604 50706316 50910240 51116160 51323668 51532396 
2794.090 51741936 51952168 52163700 52377656 52594556 52814452 53036212 
2797.466 53258240 53478504 53696180 53910744 54123268 54335188 54547584 
2800.841 54761248 54975812 55190632 55404948 55618472 55830932 56042292 
2804.216 56252960 56461772 56668340 56871572 57070924 57266332 57458912 
2807.591 57649644 57839368 58028112 58215080 58399328 58579480 58754776 
2810.967 58924980 59090356 59251084 59407504 59559532 59706636 59848880 
2814.342 59986380 60119928 60250584 60379224 60506836 60633916 60760648 
2817.717 60887536 61015260 61144584 61276272 61411136 61549360 61690716 
2821.092 61834648 61980380 62127120 62274180 62420560 62565148 62706648 
2824.468 62843876 62975848 63102348 63223288 63338740 63448364 63551104 
2827.843 63645320 63728764 63799792 63857360 63901620 63933180 63953252 
2831.218 63962312 63959628 63943348 63911444 63861892 63793956 63708240 
2834.593 63606104 63489588 63360444 63218496 63062884 62891320 62701060 
2837.969 62489996 62256664 62001208 61725132 61431400 61123336 60805276 
2841.344 60481092 60154328 59827892 59503784 59183604 58868400 58559876 
2844.719 58259788 57970512 57694072 57432588 57187404 56959016 56747400 
2848.094 56552380 56374460 56214908 56075316 55958232 55865748 55799736 
2851.469 55760932 55749968 55766392 55809912 55879356 55973424 56090248 
2854.845 56226940 56381064 56550004 56731468 56923960 57126064 57336540 
2858.220 57553740 57775360 57998496 58220272 58437988 58649632 58854516 
2861.595 59052052 59242500 59426116 59602860 59772564 59934872 60088648 
2864.970 60232924 60366660 60488288 60596692 60690912 60770140 60834244 
2868.346 60883112 60916620 60935036 60938008 60925392 60897180 60853724 
2871.721 60795408 60723072 60637496 60539096 60428308 60305592 60171756 
2875.096 60028376 59878204 59723932 59569072 59416544 59268404 59125700 
2878.471 58988740 58857628 58732204 58612544 58498608 58390192 58286920 
2881.847 58187804 58091968 57998916 57908456 57820936 57736948 57656800 
2885.222 57580524 57507852 57437844 57369852 57303232 57237904 57173496 
2888.597 57109660 57045308 56979192 56910096 56836864 56758916 56676872 
2891.972 56591180 56502452 56410792 56315384 56215096 56108648 55994948 
2895.348 55873512 55744580 55608720 55466992 55320112 55169184 55014772 
2898.723 54858308 54700592 54542776 54385544 54229344 54074216 53919820 
2902.098 53765776 53611116 53455044 53296108 53132700 52963512 52787136 
2905.473 52603500 52413472 52218704 52021676 51824544 51628852 51435404 
2908.849 51244248 51054924 50867172 50680808 50495008 50308316 50117584 
2912.224 49919120 49708380 49481440 49236772 48974840 48698576 48412296 
2915.599 48120508 47826888 47533344 47241040 46950332 46661776 46377208 
2918.974 46098832 45829544 45572348 45329576 45103292 44895352 44707160 
2922.350 44539796 44393628 44267768 44160424 44068916 43990848 43925036 
2925.725 43871664 43832628 43810780 43808436 43826724 43864956 43920968 
2929.100 43992056 44075628 44170732 44277416 44397224 44531976 44683544 
2932.475 44853468 45042528 45251352 45479992 45728552 45995936 46280696 
2935.851 46580808 46893228 47214812 47542588 47873496 48204692 48533588 
2939.226 48856836 49171088 49472680 49757648 50022060 50262708 50476732 
2942.601 50662304 50818940 50947420 51049856 51129656 51191308 51238692 
2945.976 51275788 51305584 51330008 51350928 51369988 51389264 51411536 
2949.352 51439248 51474124 51517248 51567916 51624520 51684828 51747196 
2952.727 51810320 51874276 51939324 52006064 52074604 52144536 52215116 
2956.102 52285560 52355268 52424088 52491796 52558584 52624108 52688180 
2959.477 52750392 52810596 52868824 52925224 52979948 53033068 53084172 
2962.853 53132924 53179136 53222692 53264384 53304724 53344472 53383436 
2966.228 53421096 53456244 53487500 53513544 53533448 53546900 53553684 
2969.603 53554060 53548516 53537908 53523476 53506460 53488432 53470220 
2972.978 53452084 53432972 53411764 53386736 53357060 53322820 53285356 
2976.354 53246400 53208088 53172096 53139216 53109820 53084208 53062568 
2979.729 53045608 53034228 53028800 53029364 53035500 53046356 53061524 
2983.104 53080880 53104840 53134236 53169252 53209472 53253596 53300116 
2986.479 53347356 53394568 53442044 53490496 53540756 53593084 53646544 
2989.854 53699520 53749576 53794428 53832460 53862652 53884520 53897988 
2993.230 53903388 53901104 53892172 53878292 53861188 53842436 53822856 
2996.605 53802228 53779056 53751640 53718380 53678784 53633608 53584612 
2999.980 53533484 53481576 53428964 53374372 53316564 53253708 53185468 
3003.355 53112032 53034752 52954940 52873800 52792152 52710628 52629532 
3006.731 52549908 52472992 52399976 52331944 52269304 52211492 52158284 
3010.106 52108748 52062464 52019508 51979992 51943880 51910568 51879132 
3013.481 51848324 51817152 51785308 51752944 51721068 51690464 51661836 
3016.856 51635008 51609296 51583512 51556348 51526800 51493856 51457448 
3020.232 51417616 51375020 51330120 51283808 51236568 51188508 51139380 
3023.607 51088428 51034316 50975816 50911876 50841512 50764040 50678984 
3026.982 50585608 50483132 50370748 50248092 50115312 49973432 49824496 
3030.357 49671084 49515716 49360444 49206932 49055812 48907196 48761000 
3033.733 48616780 48474568 48334444 48197032 48063360 47934876 47813420 
3037.108 47700836 47598192 47505660 47422612 47347076 47276800 47209824 
3040.483 47144596 47080152 47015532 46949668 46879828 46802724 46714164 
3043.858 46610428 46489304 46350368 46195928 46029348 45855728 45679708 
3047.234 45505892 45338512 45180900 45036396 44907516 44795864 44702204 
3050.609 44625304 44563548 44514352 44475296 44444276 44419724 44400452 
3053.984 44385112 44372084 44359460 44345408 44328564 44308088 44283392 
3057.359 44254300 44220036 44179460 44131448 44075480 44011932 43942672 
3060.735 43870196 43797512 43726676 43658520 43592216 43526464 43459512 
3064.110 43390560 43319276 43246136 43171252 43094552 43015124 42931828 
3067.485 42844016 42751796 42656600 42560696 42466492 42376104 42291108 
3070.860 42212300 42140184 42075384 42018188 41968804 41926400 41888924 
3074.236 41852912 41814088 41767756 41709436 41635908 41544820 41434688 
3077.611 41304904 41155708 40988140 40804360 40608112 40404168 40197520 
3080.986 39993476 39796504 39609708 39435040 39273468 39125364 38990760 
3084.361 38869532 38761528 38666476 38584228 38515140 38459388 38417396 
3087.737 38388616 38370444 38358756 38346888 38326472 38289596 38228840 
3091.112 38139440 38019176 37868208 37688316 37482092 37253252 37005736 
3094.487 36744444 36475704 36206664 35944084 35694400 35461364 35246348 
3097.862 35048136 34864236 34691536 34527448 34370228 34219488 34074820 
3101.238 33936292 33803288 33675012 33550392 33428166 33307410 33187080 
3104.613 33066318 32944444 32820604 32694082 32564030 32429908 32291156 
3107.988 32147304 31998332 31844668 31687424 31528666 31371110 31217416 
3111.363 31070116 30930902 30800132 30676972 30560068 30447392 30336982 
3114.739 30226956 30116140 30003150 29887638 29769350 29648540 29526134 
3118.114 29402520 29278090 29152386 29024806 28894464 28761400 28626998 
3121.489 28493626 28364824 28243522 28131620 28028900 27933168 27840774 
3124.864 27748792 27654956 27558986 27462156 27366514 27274100 27185764 
3128.240 27101184 27019018 26937750 26855720 26772086 26686142 26597504 
3131.615 26506134 26412320 26316766 26220318 26124700 26031356 25941232 
3134.990 25854540 25770850 25688970 25608126 25527156 25445570 25362450 
3138.365 25276576 25185976 25088762 24983496 24870044 24749678 24625066 
3141.740 24499474 24375390 24254216 24135702 24018758 23901990 23785252 
3145.116 23668930 23553968 23441728 23332560 23225902 23121332 23018358 
3148.491 22917784 22821392 22731128 22648214 22571876 22499460 22426710 
3151.866 22349576 22265268 22173100 22074814 21973202 21871266 21771028 
3155.241 21673356 21577864 21484376 21392720 21303310 21217190 21134354 
3158.617 21054354 20975620 20896482 20815516 20732028 20646298 20559162 
3161.992 20471312 20382994 20293930 20203462 20111346 20017550 19922664 
3165.367 19827244 19731498 19635184 19537472 19437492 19335388 19231334 
3168.742 19126544 19022022 18918042 18814504 18710712 18606290 18501408 
3172.118 18397624 18296834 18200770 18110252 18024450 17941222 17858216 
3175.493 17773328 17685868 17596974 17508448 17422454 17340650 17263172 
3178.868 17189190 17117666 17046500 16974760 16900826 16824012 16743319 
3182.243 16658580 16570140 16479032 16387256 16297150 16210433 16127827 
3185.619 16048811 15971700 15894845 15816765 15737496 15657762 15579072 
3188.994 15502182 15427435 15354107 15280620 15205671 15128436 15048984 
3192.369 14968175 14886970 14806534 14727348 14649683 14573437 14498780 
3195.744 14425472 14353581 14282524 14211957 14141505 14071063 14000942 
3199.120 13932131 13865829 13803266 13745088 13691125 13640929 13594124 
3202.495 13550127 13508936 13470724 13435386 13402203 13370595 13339057 
3205.870 13306565 13271889 13234244 13192400 13144961 13090252 13026264 
3209.245 12952180 12868279 12776750 12681045 12585668 12494745 12411171 
3212.621 12335930 12268645 12208287 12153151 12101463 12052507 12005055 
3215.996 11957745 11909792 11859700 11807128 11752179 11696080 11640226 
3219.371 11586048 11534563 11485535 11438859 11393447 11348652 11304066 
3222.746 11259143 11213308 11165777 11116009 11063730 11009827 10956203 
3226.122 10904726 10857772 10816022 10778827 10744114 10709438 10672626 
3229.497 10632829 10590794 10548016 10506432 10466920 10429314 10392152 
3232.872 10353908 10313190 10269286 10222198 10172571 10120949 10067536 
3236.247 10012434 9956050 9898589 9841001 9784199 9728659 9674379 9620987 
3240.105 9567770 9514052 9460104 9406061 9352160 9298401 9243905 9187519 
3243.962 9128570 9066955 9003929 8941215 8880947 8823932 8769562 8716146 
3247.820 8661621 8604297 8544143 8482915 8423048 8367073 8316307 8270106 
3251.677 8226915 8184302 8140343 8094296 8046092 7996713 7946632 7896218 
3255.534 7844630 7791665 7737053 7681268 7625422 7571135 7519046 7469727 
3259.392 7423043 7378285 7334811 7292320 7249967 7206776 7161704 7113200 
3263.249 7060155 7002504 6941561 6879751 6819902 6765076 6716650 6674589 
3267.107 6637646 6603835 6571506 6539046 6505477 6470398 6433103 6392851 
3270.964 6348939 6301467 6251312 6200355 6150984 6104677 6062742 6024507 
3274.822 5988526 5952851 5916171 5877882 5838890 5800272 5763202 5728351 
3278.679 5695685 5664565 5634320 5604212 5573837 5542995 5511584 5479236 
3282.536 5445549 5410555 5374390 5337457 5299923 5262460 5225100 5187643 
3286.394 5150323 5113644 5078811 5047501 5021322 5000808 4985223 4972554 
3290.251 4959918 4944167 4923523 4896949 4865384 4830672 4794522 4758576 
3294.109 4723303 4688535 4653401 4617199 4579661 4541221 4502785 4466026 
3297.966 4432919 4404969 4383247 4368286 4359718 4356271 4356672 4359249 
3301.823 4362596 4365809 4368185 4368754 4366278 4358881 4344457 4321264 
3305.681 4288235 4245840 4195386 4139017 4078708 4016234 3951863 3885563 
3309.538 3816866 3746476 3675695 3606597 3542087 3483932 3433065 3389017 
3313.396 3349948 3313554 3277430 3239339 3198248 3153389 3105030 3054008 
3317.253 3001724 2949879 2900076 2853480 2810224 2769607 2729793 2688917 
3321.111 2645944 2600475 2553811 2507619 2463698 2422380 2382998 2343620 
3324.968 2301647 2255415 2204626 2150179 2094741 2041040 1991108 1946074 
3328.825 1905238 1867634 1831363 1795129 1758300 1720808 1683419 1647230 
3332.683 1613406 1583443 1558502 1539648 1526713 1519132 1514943 1511817 
3336.540 1506464 1495625 1477372 1450376 1414706 1372225 1325493 1277670 
3340.398 1231547 1189648 1152637 1119749 1088989 1057732 1023755 985728 
3344.255 944318 901817 861510 826950 800294 782435 772046 766370 761955 
3348.595 754985 742206 720898 689403 646561 593006 530402 461935 392020 
3352.934 325431 266545 218408 182010 156984 141737 134743 134213 139284 
3357.274 148963 161459 174750 185557 190794 188540 178496 162088 142864 
3361.614 124701 111278 105147 107268 117542 134710 157249 183137 210485 
3365.953 236774 259815 276989 286074 285112 272778 248543 212275 164939 
3370.293 108229 45362 -19349 -80773 -134006 -175210 -202269 -216145 -219623 
3374.632 -217172 -213098 -211277 -213463 -220351 -230982 -244294 -259030 
3378.490 -274097 -288634 -301812 -313070 -322009 -328366 -332869 -335617 
3382.347 -337471 -338464 -338729 -337736 -335451 -331876 -327903 -324062 
3386.205 -320652 -316778 -310984 -300885 -284561 -261944 -234625 -206309 
3390.062 -181536 -164644 -158914 -164644 -180708 -203991 -231048 -258567 
3393.919 -283733 -305090 -321281 -331512 -335153 -332041 -322109 -306315 
3397.777 -286415 -263998 -241281 -221014 -205183 -196076 -195612 -204918 
3401.634 -223795 -250851 -283601 -318268 -351277 -379517 -401200 -415931 
3405.492 -424272 -427417 -427119 -424570 -420896 -417486 -414971 -414375 
3409.349 -416030 -419671 -424637 -429602 -433309 -435229 -435030 -433640 
3413.207 -431555 -429800 -428708 -428311 -428344 -428874 -429635 -430992 
3417.064 -433276 -435858 -438870 -441584 -443769 -445788 -448171 -452573 
3420.921 -459657 -469785 -482494 -496263 -509567 -521349 -531178 -539749 
3424.779 -547856 -556593 -566520 -577175 -587996 -598121 -606922 -614466 
3428.636 -621447 -628197 -635344 -643317 -651853 -660323 -668494 -675508 
3432.494 -681396 -686623 -691685 -698003 -707762 -722549 -744149 -772991 
3436.351 -807718 -846213 -884671 -919853 -948816 -970834 -986339 -996951 
3440.208 -1004521 -1010439 -1014901 -1017381 -1017017 -1013182 -1006736 
3443.584 -999430 -993447 -991331 -995430 -1006637 -1025182 -1050469 -1081208 
3447.441 -1115547 -1151470 -1186498 -1218615 -1246071 -1267711 -1283140 
3450.816 -1292786 -1297444 -1298105 -1295462 -1290408 -1283536 -1275607 
3454.192 -1267844 -1261666 -1258362 -1259221 -1264540 -1273988 -1286476 
3457.567 -1301045 -1316637 -1332427 -1347721 -1362254 -1375367 -1386762 
3460.942 -1396109 -1403177 -1407636 -1409419 -1407768 -1401691 -1390659 
3464.317 -1373716 -1351354 -1325094 -1297576 -1272204 -1251754 -1238208 
3467.693 -1232195 -1232492 -1237712 -1245642 -1254794 -1264143 -1272304 
3471.068 -1278217 -1280298 -1277094 -1267546 -1252117 -1231369 -1207546 
3474.443 -1182995 -1158145 -1132799 -1105170 -1072680 -1032619 -984157 
3477.818 -927061 -863045 -794688 -724103 -653375 -583760 -515557 -448370 
3481.676 -380808 -311083 -236645 -155039 -65335 32704 136169 240885 341182 
3486.015 431851 509303 572336 621210 658109 684757 701881 709050 704902 
3490.355 687777 656317 610990 551932 480411 397624 304674 203391 95834 
3494.695 -15274 -126288 -234724 -338199 -436222 -528530 -615393 -696018 
3498.552 -768857 -831431 -881761 -919125 -945047 -963429 -978570 -994901 
3502.409 -1015496 -1040420 -1067723 -1094528 -1118125 -1136301 -1148992 
3505.785 -1156394 -1159996 -1161053 -1161153 -1161285 -1162937 -1167068 
3509.160 -1174040 -1183458 -1193371 -1201004 -1204143 -1201103 -1191851 
3512.535 -1178600 -1163994 -1151239 -1142283 -1138119 -1138416 -1142250 
3515.910 -1148760 -1157517 -1168455 -1181277 -1194858 -1207149 -1215443 
3519.286 -1217459 -1211643 -1198195 -1178336 -1154907 -1130716 -1107946 
3522.661 -1088347 -1072978 -1062137 -1056154 -1055691 -1061112 -1072614 
3526.036 -1090661 -1113928 -1141325 -1171198 -1201268 -1229122 -1252877 
3529.411 -1270850 -1282115 -1287170 -1286939 -1283305 -1277490 -1270652 
3532.787 -1262392 -1252117 -1238902 -1222514 -1204605 -1187886 -1175957 
3536.162 -1172355 -1178898 -1194494 -1216236 -1239034 -1257734 -1268372 
3539.537 -1268009 -1256379 -1234507 -1204407 -1168356 -1128866 -1088578 
3542.912 -1049444 -1014108 -985149 -964321 -953411 -953511 -964388 -985248 
3546.770 -1013744 -1046800 -1080117 -1109235 -1129890 -1139573 -1137128 
3550.145 -1124206 -1104443 -1082232 -1062137 -1047957 -1041214 -1041346 
3553.520 -1046668 -1054766 -1063591 -1071094 -1076250 -1078002 -1075721 
3556.896 -1069541 -1060187 -1049477 -1039825 -1033677 -1032553 -1036156 
3560.271 -1042569 -1048188 -1049147 -1041742 -1023562 -993910 -953213 
3563.646 -902990 -845916 -786287 -729230 -682091 -652779 -647585 -669917 
3567.503 -717487 -782748 -855274 -923986 -981215 -1023000 -1049907 -1064715 
3571.361 -1071821 -1074961 -1075887 -1075424 -1073044 -1068251 -1061641 
3574.736 -1054237 -1048056 -1044519 -1044585 -1047791 -1052849 -1057972 
3578.111 -1060947 -1060253 -1054799 -1044321 -1028686 -1008951 -985744 
3581.487 -959924 -931524 -900146 -864136 -822303 -773454 -717884 -658867 
3585.344 -602257 -555931 -528563 -527537 -555170 -608676 -679114 -755163 
3589.201 -824651 -878422 -911157 -922432 -915025 -893500 -864203 -833647 
3593.059 -806528 -786585 -775571 -772726 -775835 -782252 -789131 -794092 
3596.916 -796308 -795250 -791711 -786684 -781921 -779077 -780069 -786022 
3600.774 -797267 -813076 -830670 -846379 -856432 -856398 -843799 -817376 
3604.631 -778217 -729065 -674317 -620356 -573502 -539914 -524559 -528828 
3608.489 -550769 -583760 -619992 -651059 -671372 -679345 -677063 -669718 
3612.346 -662274 -658503 -658602 -658701 -653375 -636799 -606194 -562020 
3616.203 -509236 -454427 -406530 -373955 -362765 -376305 -414044 -471903 
3620.061 -542760 -618271 -690130 -750764 -795415 -820749 -825544 -810199 
3623.918 -775472 -722383 -652416 -567347 -471274 -370876 -277839 -207303 
3627.776 -176204 -197003 -270951 -385012 -513207 -628991 -714014 -761315 
3631.633 -774579 -763895 -741635 -718149 -700881 -692611 -692016 -695985 
3635.490 -701344 -705645 -708754 -711169 -713055 -714643 -714808 -712889 
3639.348 -708391 -702171 -695456 -690295 -687649 -686888 -685333 -679014 
3643.205 -663068 -632862 -585977 -522011 -443471 -355415 -265355 -181470 
3647.063 -112806 -66726 -48936 -62221 -106115 -177032 -268037 -368625 
3650.920 -466309 -549048 -607121 -634781 -632498 -606095 -564733 -520157 
3654.778 -485076 -468328 -472929 -495137 -525320 -552820 -569531 -572543 
3658.635 -564303 -550405 -535877 -525122 -519893 -519495 -522077 -526147 
3662.492 -530086 -533196 -534421 -532303 -524029 -506390 -476504 -431985 
3666.350 -373260 -302540 -226147 -152091 -91407 -54965 -50957 -79812 -132350 
3670.689 -191770 -237373 -252507 -230617 -175177 -99457 -22530 32174 45130 
3675.029 7190 -73650 -174746 -269196 -336643 -371141 -378457 -369949 -356872 
3679.369 -346841 -342338 -341543 -340881 -336743 -327009 -311282 -288898 
3683.226 -258103 -216046 -159477 -87067 -927 92254 184032 263031 319993 
3687.566 349738 352623 334318 303216 267142 229977 192916 155393 117575 
3691.905 81815 51891 31113 21305 21935 29722 40160 48742 52222 49737 42148 
3697.209 32174 22863 16567 14214 14877 15970 13552 3015 -18753 -52812 -96541 
3702.513 -144374 -189187 -224524 -245950 -252408 -246248 -230286 -208230 
3706.371 -182861 -154443 -122578 -86802 -47842 -9277 21703 37906 31379 -1855 
3711.192 -60531 -137583 -221941 -301580 -366341 -410767 -433541 -437314 
3715.050 -426589 -406629 -381966 -356508 -332339 -310156 -289660 -269296 
3718.907 -247805 -224789 -200580 -176204 -153317 -132814 -114463 -97270 
3722.765 -79779 -61293 -42972 -27864 -19946 -23358 -40487 -69940 -106744 
3727.104 -142651 -168851 -178688 -168785 -140631 -98761 -50625 -2584 40094 
3731.444 75552 105975 134909 165536 197026 223844 236077 223911 181148 
3735.783 109157 18522 -74180 -153118 -207303 -232604 -231313 -207965 -166731 
3740.123 -110057 -39295 43672 134279 222220 291146 322348 299436 219601 
3744.463 99115 -26870 -122015 -165373 -154145 -101245 -25943 50466 111311 
3748.802 145051 147106 119696 68592 563 -78686 -163717 -247805 -322175 
3753.142 -377497 -407291 -410303 -390607 -356508 -316943 -280455 -252143 
3756.999 -233333 -223232 -220351 -223895 -234923 -254428 -281647 -312176 
3760.857 -339756 -356607 -357634 -342338 -314659 -281812 -252010 -231214 
3764.714 -221643 -221643 -226279 -230386 -231777 -230982 -231777 -239029 
3768.572 -257010 -287508 -329293 -378292 -428476 -475114 -513373 -541602 
3772.429 -559439 -568142 -569432 -565561 -557685 -545838 -528993 -505364 
3776.286 -473723 -435097 -393023 -353661 -324757 -312341 -318500 -340252 
3780.144 -370181 -399081 -419241 -427583 -424934 -415732 -405139 -397426 
3784.001 -394480 -396234 -400439 -405073 -409012 -411594 -412852 -412885 
3787.859 -410965 -406596 -399710 -391534 -384118 -379848 -379417 -381702 
3791.716 -383787 -381503 -371604 -353661 -330485 -307010 -289097 -281250 
3795.573 -283468 -291680 -298402 -295190 -276514 -241446 -193790 -142154 
3799.431 -97900 -72226 -74445 -107837 -166996 -237605 -301978 -345185 
3803.288 -359156 -345020 -310951 -269759 -236280 -222404 -236015 -276183 
3807.146 -333498 -392461 -439532 -466177 -471241 -458928 -435097 -404610 
3811.003 -369684 -329955 -283601 -230154 -171997 -115291 -68847 -42508 
3814.861 -43800 -72325 -119464 -168321 -201772 -206773 -179979 -127613 
3818.718 -63612 -4771 31080 30053 -12855 -90347 -183689 -270786 -333167 
3823.058 -362831 -361937 -340120 -309394 -280654 -261878 -255785 -260223 
3826.915 -269296 -276481 -276846 -268203 -251547 -229756 -206475 -185411 
3830.772 -168752 -157523 -151098 -147123 -142287 -132615 -114661 -86802 
3834.630 -49764 -7090 34858 68891 88311 89636 73729 45495 12524 -18753 
3839.452 -43800 -61757 -74147 -83953 -94024 -107042 -125592 -151197 -184981 
3843.791 -226379 -272806 -318963 -358263 -384118 -391633 -379020 -346940 
3847.649 -298402 -236446 -162392 -76102 23492 136401 257793 376764 475634 
3851.988 530999 521046 436462 289025 109886 -61591 -195347 -280455 -321281 
3856.328 -330022 -319360 -298998 -273733 -245288 -213297 -177694 -139670 
3860.185 -101411 -65633 -34325 -8382 11829 25646 31975 28695 15407 -5367 
3865.007 -26870 -39825 -34623 -5964 44567 107864 170375 215656 229679 208098 
3869.829 156984 93613 37807 4506 -2021 12491 35189 52222 53183 34029 -894 
3875.133 -41415 -74843 -91672 -86769 -61293 -20542 27568 73132 107798 125728 
3879.955 125032 108693 84234 61368 48245 50134 66902 93713 121022 137196 
3884.776 132423 101799 49372 -13452 -70404 -107042 -116318 -98993 -62486 
3889.116 -19217 16467 33135 23956 -10337 -61923 -119100 -169878 -206044 
3893.456 -224259 -225087 -211111 -185577 -150833 -108566 -60034 -7090 48444 
3897.795 103291 154365 198982 235547 263893 284681 298574 304907 302387 
3902.135 288660 261870 221391 169679 110814 51360 -2418 -45821 -76135 -93162 
3906.957 -98463 -94222 -82363 -64540 -41780 -14644 16004 49173 84135 119597 
3911.778 155095 190595 226397 262898 299900 335943 368308 393711 408204 
3916.118 409099 395900 370099 335346 295987 256069 218341 184695 155658 
3920.458 131992 114360 103556 98883 99446 102064 103257 99314 88178 70051 
3925.279 48179 27270 11762 4804 6958 16434 30384 45760 60639 74259 86554 
3930.583 97391 105180 107500 101103 83969 56430 21140 -16301 -49764 -73915 
3935.405 -85941 -85477 -74810 -57881 -38466 -19581 -2783 11530 24155 35554 
3940.227 46158 55569 62859 67267 67896 64748 59048 52354 46688 43937 45396 
3945.531 50698 58916 67399 73265 73895 67896 55237 37376 17428 -2385 -19614 
3950.835 -32768 -41614 -46120 -46683 -43800 -37903 -29355 -19316 -9045 397 
3955.656 7852 12889 16136 17992 19880 22531 26110 30451 35189 39795 43772 
3960.960 47450 50698 53680 56696 59479 62197 64881 67532 69752 71343 71542 
3966.264 69752 65510 58883 50234 40094 29390 18555 7985 -2219 -11795 -19581 
3971.568 -24551 -25148 -20873 -12126 -265 12127 22531 29125 31279 29390 
3976.390 24685 18422 11597 4241 -3677 -11961 -20045 -26771 -31012 -32105 
3981.212 -30548 -27699 -25843 -26870 -31476 -39759 -50062 -60100 -68317 
3985.552 -73451 -75274 -74346 -71232 -66528 -60200 -52282 -42442 -30846 
3989.891 -18123 -4572 8813 21106 32141 41353 48411 53183 56000 57325 57623 
3995.195 57988 58419 59015 58651 56198 50731 41750 30119 17230 5135 -4804 
4000.499 -12160 
##END=
