
##TITLE=Z140a_3_c
##JCAMP-DX=5.01  $$ Nicolet v. 1
##DATATYPE=INFRARED SPECTRUM
##ORIGIN=UniL
##OWNER=Nicolet
##LONGDATE=2011/09/20
##TIME=11:22:27
##SPECTROMETER/DATA SYSTEM=Nicolet iS5
##DATA PROCESSING=
Ratio against background
%Transmittance->Absorbance
Truncated
ElementMultiply or ElementDivide
##COMMENTS=
Number of sample scans: 32
Collection length: 51.17 sec
Sample gain: 2.0
Background collected on: Mar Sep 20 11:15:18 2011 (GMT+02:00);
Number of background scans: 32
Background gain: 2.0
Sample spacing:  1.000
Number of scan points: 12415
Resolution points: 8192
Number of FFT points: 65536
Apodization: N-B fort;
Phase correction: Mertz;
Laser frequency: 15798.0 cm-1
Number of rejected sample scans: 0
Number of rejected background scans: 0
Bench serial number: ASB1000141;
##RESOLUTION=4.000
##XUNITS=1/CM
##YUNITS=ABSORBANCE
##FIRSTX=649.893372
##LASTX=4000.122314
##FIRSTY=0.087053
##MAXX=4000.122314
##MINX=649.893372
##MAXY=0.598389
##MINY=-0.002334
##XFACTOR=1.000000
##YFACTOR=1.000000E-009
##NPOINTS=6950
##DELTAX=0.482117
##ZPD=6100
##XYDATA=(X++(Y..Y))
649.893 87053392 82940704 79769256 77509840 76081392 75363608 75202000 
653.268 75449448 75993840 76776608 77796024 79082880 80668048 82556848 
656.643 84729120 87159280 89848880 92846312 96248168 100164672 104707072 
660.018 109965560 116017608 122967280 130954416 140128624 150598272 
662.911 162332992 175119216 188507872 201895616 214564112 225566592 
665.803 233760096 237723520 235943136 227547168 213093296 194791680 
668.696 175458544 157315504 141374016 127665776 115835000 105507768 96448120 
672.071 88596176 81970008 76559736 72283832 68971800 66422492 64444856 
675.446 62907860 61737356 60884180 60299764 59921296 59675916 59507584 
678.820 59391472 59336996 59370616 59514384 59766744 60101436 60480176 
682.195 60873052 61273300 61696792 62170208 62712200 63324296 63990800 
685.570 64692176 65418804 66179828 66999204 67905088 68913272 70019952 
688.945 71205376 72447760 73736936 75083592 76516656 78074624 79795216 
692.320 81706336 83830856 86196136 88839344 91815744 95193376 99038280 
695.694 103412880 108368504 113951776 120224256 127280680 135260640 
698.587 144372176 154874784 167056432 181198448 197484608 215899680 
701.480 236051328 257092976 277568064 295371392 308176640 313751872 
704.373 310634624 298687488 279130848 254235232 226565392 198598592 
707.265 172245872 148653648 128430304 111671944 98147968 87466160 79167072 
710.640 72804632 67955456 64265020 61445256 59258492 57537208 56165320 
714.015 55064832 54189408 53503764 52975420 52572568 52263620 52022608 
717.390 51834476 51693000 51597916 51549668 51546164 51581944 51651760 
720.765 51753284 51888988 52063996 52283092 52545944 52847680 53179136 
724.139 53531948 53900948 54285776 54688000 55108280 55543608 55987708 
727.514 56433772 56879312 57328220 57790916 58281124 58809212 59380000 
730.889 59991516 60637724 61313668 62019324 62760360 63546540 64387440 
734.264 65288312 66249788 67269064 68343400 69473512 70665792 71930440 
737.639 73281256 74730784 76291032 77972840 79786776 81744848 83861360 
741.013 86151600 88634736 91332296 94269400 97478632 101001064 104886408 
744.388 109199888 114020312 119438600 125567112 132529736 140462256 
747.281 149515440 159842352 171598160 184929376 199954000 216725264 
750.174 235161104 255000320 275671808 296213344 315364096 331535200 
753.066 343091136 348732128 347683840 339930112 326144128 307526336 
755.959 285508416 261482768 236740672 212307904 188948528 167257024 
758.852 147619072 130274640 115357392 102861048 92671264 84574504 78296032 
762.227 73527816 69964872 67352752 65473772 64154504 63264804 62692032 
765.601 62343480 62149676 62057552 62036144 62070852 62155220 62283928 
768.976 62450208 62645940 62867956 63121320 63421248 63786632 64233212 
772.351 64767748 65384784 66071212 66812664 67601576 68439200 69334376 
775.726 70296840 71333360 72445296 73630184 74887680 76222592 77646080 
779.101 79173160 80818800 82593320 84505504 86565208 88790072 91212376 
782.475 93878176 96847024 100192048 103990592 108325888 113282176 118928344 
785.850 125302840 132382440 140064992 148135488 156266336 164071408 
788.743 171106928 176958832 181319312 184006544 185008720 184461712 
791.636 182626848 179821904 176366960 172576960 168716576 165010208 
794.528 161661856 158838896 156688720 155344432 154913552 155496176 
797.421 157188688 160079072 164253712 169779664 176685552 184926992 
800.314 194340992 204625456 215245968 225434176 234250880 240566288 
803.206 243300624 241639632 235168528 224051504 208989472 191119936 
806.099 171732320 152080080 133253752 115990000 100736616 87682864 76799184 
809.474 67935928 60870764 55363244 51166216 48047332 45809884 44276976 
812.849 43304232 42782764 42621436 42748652 43106960 43643500 44314144 
816.224 45085132 45931220 46838712 47801068 48814384 49874300 50973432 
819.598 52104112 53260224 54440980 55651352 56899104 58192424 59536160 
822.973 60930384 62373008 63862660 65401428 66996768 68659776 70401288 
826.348 72231864 74160032 76195224 78352416 80654848 83135504 85839264 
829.723 88816496 92123152 95820408 99971008 104643608 109916184 115871776 
833.098 122605752 130224512 138837024 148551760 159452352 171568352 
835.990 184818752 198954896 213535904 227827952 240852512 251484480 
838.883 258492528 260845280 257924832 249674384 236669536 219984704 
841.776 201012128 181108288 161475216 143063456 126462656 112011664 99820208 
845.151 89810984 81793208 75501216 70655616 66975200 64212160 62172080 
848.525 60692364 59649804 58952036 58520672 58294728 58227244 58280596 
851.900 58428400 58651908 58935416 59266236 59633496 60028988 60449596 
855.275 60897064 61376440 61892992 62448560 63039520 63658052 64293488 
858.650 64936132 65579728 66221304 66859156 67491208 68112872 68718184 
862.025 69301648 69860640 70397352 70917648 71429472 71938688 72447640 
865.400 72954528 73454904 73945008 74423016 74889920 75349536 75806160 
868.774 76263272 76723944 77191312 77669256 78163120 78679304 79222304 
872.149 79795136 80397632 81028264 81686176 82373400 83095024 83859632 
875.524 84676128 85552496 86495336 87510296 88604424 89789224 91080944 
878.899 92501776 94077448 95831592 97782184 99933976 102272096 104753624 
882.274 107302352 109816760 112164608 114206552 115822152 116918600 
885.166 117457248 117456336 116987784 116157120 115081808 113879024 
888.059 112641040 111437584 110322576 109337744 108525232 107930712 
890.952 107596128 107556944 107832896 108423872 109311584 110465096 
893.844 111851008 113436256 115194376 117106656 119159208 121342320 
896.737 123649928 126079024 128631072 131312192 134133416 137108096 
899.630 140250352 143573232 147087552 150801168 154721312 158854800 
902.523 163210096 167798320 172633216 177733216 183122128 188829776 
905.415 194897104 201377056 208333744 215846624 224004528 232898368 
908.308 242622672 253265680 264906352 277611680 291430720 306383808 
911.201 322432384 339463040 357239136 375342816 393199488 410031968 
914.093 424892640 436812160 444837184 448187872 446414336 439439872 
916.986 427622336 411685184 392652992 371682240 349872736 328251552 
919.879 307629632 288578752 271510624 256637120 244018576 233607136 
922.771 225254128 218743760 213809472 210176144 207566512 205714672 
925.664 204399296 203424592 202625696 201876528 201068928 200117504 
928.557 198961808 197558384 195883712 193931200 191704240 189212048 
931.450 186466016 183478992 180267040 176850384 173255664 169512784 
934.342 165652160 161702720 157688992 153632784 149555408 145476960 
937.235 141418480 137399840 133436544 129540472 125720872 121984640 
940.128 118340824 114800240 111373168 108069440 104894416 101849240 98932536 
943.502 96141648 93475536 90935320 88522872 86239488 84084328 82054616 
946.877 80146272 78355864 76681000 75120696 73673056 72334984 71101000 
950.252 69964368 68919056 67961112 67089176 66303284 65603196 64986312 
953.627 64447360 63980208 63579568 63243604 62974280 62776788 62657496 
957.002 62622100 62675112 62820324 63063616 63413584 63883924 64493792 
960.377 65265820 66228292 67416128 68868768 70635808 72774616 75342128 
963.751 78393448 81968488 86081264 90708736 95782440 101190168 106761400 
967.126 112287664 117540504 122271000 126254960 129305736 131277856 
970.019 132085336 131693080 130114152 127404880 123665656 119043824 
972.912 113718720 107912872 101878440 95860192 90102176 84811520 80129528 
976.286 76141952 72867248 70271512 68283800 66815876 65779388 65087184 
979.661 64665488 64453312 64398124 64461500 64615928 64842956 65132648 
983.036 65478852 65875776 66316448 66792688 67296144 67822080 68368808 
986.411 68938480 69534168 70158336 70810456 71488256 72189296 72913688 
989.786 73664688 74449480 75276200 76152576 77084984 78078600 79139400 
993.160 80277104 81505856 82845504 84321680 85962512 87798520 89859312 
996.535 92165832 94723464 97508872 100465648 103492560 106453200 109203176 
999.910 111603304 113562424 115061128 116164528 117013936 117797000 
1002.803 118731800 120013624 121795032 124183496 127232488 130958616 
1005.695 135353856 140399520 146069152 152324128 159112288 166346704 
1008.588 173891328 181565760 189116016 196223056 202537680 207663792 
1011.481 211215216 212872064 212397584 209705280 204875888 198165264 
1014.374 189961456 180723424 170951456 161088864 151504512 142492288 
1017.266 134239248 126855896 120388000 114825056 110120872 106205552 
1020.159 103002576 100433040 98424016 96915024 95851800 95188384 94887544 
1023.534 94915416 95243672 95849240 96708936 97798912 99091768 100549920 
1026.909 102128496 103775360 105429536 107032896 108532424 109885760 
1029.802 111070712 112087400 112961960 113741360 114494520 115303896 
1032.695 116248744 117403320 118819736 120517288 122477200 124636616 
1035.588 126897304 129118208 131137072 132789176 133910168 134370256 
1038.481 134085136 133022488 131207216 128713416 125656352 122163832 
1041.374 118366288 114382736 110303992 106201368 102130640 98135800 94261672 
1044.750 90553928 87054720 83803648 80830704 78152568 75775112 73692328 
1048.125 71888872 70340552 69017120 67885760 66911220 66063032 65317424 
1051.500 64657256 64072816 63558584 63109936 62721432 62386244 62096728 
1054.875 61846876 61632940 61453348 61307372 61193412 61108156 61047556 
1058.250 61006828 60983684 60977964 60991808 61028452 61089852 61176816 
1061.626 61289208 61426860 61591852 61788272 62021812 62299000 62624624 
1065.001 63001976 63433020 63920008 64466148 65076680 65757452 66513620 
1068.376 67348104 68261080 69250112 70311800 71443336 72642840 73909584 
1071.751 75243760 76645352 78114880 79653616 81264880 82954776 84732544 
1075.127 86611440 88606576 90736704 93023968 95493320 98174840 101103840 
1078.502 104317992 107858248 111764560 116068336 120787464 125914720 
1081.395 131411328 137191616 143122592 149035056 154714592 159938736 
1084.288 164502080 168225728 170997232 172782384 173636928 173701040 
1087.181 173192064 172395568 171609376 171139264 171270528 172223168 
1090.074 174158384 177151136 181178336 186099200 191636352 197397632 
1092.967 202828880 207273248 210068768 210577488 208358352 203259552 
1095.860 195451680 185408704 173803024 161429616 149020256 137183840 
1098.753 126376256 116840416 108660112 101791520 96109240 91446880 87625696 
1102.129 84485064 81874456 79662128 77742760 76026248 74445904 72959312 
1105.504 71541072 70180800 68876928 67632040 66451220 65342880 64319848 
1108.879 63398668 62596300 61927492 61399152 61009616 60749788 60608196 
1112.254 60573876 60638716 60797236 61043248 61367244 61757060 62198964 
1115.630 62681384 63199332 63753320 64347820 64987272 65672800 66401720 
1119.005 67169624 67974440 68819112 69711808 70663912 71685376 72781640 
1122.380 73952952 75195856 76506312 77881720 79321928 80829384 82408936 
1125.755 84070008 85831960 87730880 89819872 92178248 94908368 98127656 
1129.131 101982272 106635552 112258304 119024208 127057272 136376896 
1132.024 146805056 157913376 168977888 178954928 186711584 191186672 
1134.917 191665600 188032704 180807280 171052496 160022176 149000080 
1137.810 139036736 130782872 124572032 120419256 118123536 117337024 
1140.703 117645664 118639864 119904752 121086568 121915536 122207552 
1143.596 121901928 121053240 119818680 118405104 117030208 115885408 
1146.489 115092824 114713624 114756088 115196536 115998480 117124448 
1149.382 118543472 120225568 122141664 124266464 126578912 129068480 
1152.275 131734576 134581456 137609296 140805312 144137040 147557488 
1155.168 151013216 154452000 157837648 161151008 164387408 167551328 
1158.061 170648768 173685200 176666608 179602848 182511760 185416592 
1160.954 188344128 191318272 194355472 197467744 200667552 203973792 
1163.847 207419312 211049504 214915152 219069440 223557936 228417472 
1166.740 233682128 239387088 245574080 252294176 259599984 267539056 
1169.634 276147040 285444032 295436096 306120000 317493024 329547712 
1172.527 342266336 355615648 369526208 383891712 398587392 413470272 
1175.420 428413248 443324064 458137696 472809600 487293152 501516288 
1178.313 515379616 528763232 541535168 553563328 564702848 574766592 
1181.206 583509312 590610752 595691200 598388992 598388352 595471424 
1184.099 589549632 580636352 568845632 554391296 537591872 518876544 
1186.992 498748704 477770496 456477568 435314656 414641792 394697120 
1189.885 375621632 357500928 340367840 324221792 309036672 294756928 
1192.778 281307648 268604352 256569184 245139424 234272400 223941280 
1195.671 214127504 204812688 195976464 187602064 179684832 172236960 
1198.564 165296000 158918336 153168352 148120144 143842272 140392976 
1201.457 137825328 136176240 135465088 135690272 136824720 138814320 
1204.350 141575504 145008880 148996400 153406544 158114752 162992992 
1207.243 167920032 172794368 177526768 182054256 186348272 190418768 
1210.136 194319184 198136608 201992400 206018384 210338656 215064448 
1213.030 220271024 225989760 232196944 238808736 245674560 252565888 
1215.923 259209696 265290864 270477920 274484320 277072192 278074400 
1218.816 277401632 275017664 270929024 265177280 257840192 249038624 
1221.709 238935456 227738384 215680592 202998608 189937968 176731248 
1224.602 163594704 150743072 138362400 126609208 115613464 105458472 
1227.495 96193920 87843712 80404208 73855136 68158344 63260392 59092252 
1230.870 55574296 52628072 50176492 48152236 46502580 45181560 44150192 
1234.245 43375184 42823280 42466128 42280920 42249984 42360436 42601848 
1237.621 42961348 43422928 43967052 44571624 45216932 45886220 46566012 
1240.996 47245992 47915340 48562008 49173532 49738476 50250060 50708364 
1244.371 51120704 51500164 51861396 52219900 52590668 52988896 53435148 
1247.746 53956436 54586132 55366708 56342924 57561040 59070348 60918072 
1251.122 63150740 65809728 68919056 72471760 76408872 80614272 84894624 
1254.497 88988208 92613392 95479984 97360704 98143224 97847016 96628384 
1257.872 94732728 92469920 90136224 87967808 86135072 84717040 83724048 
1261.247 83122984 82869280 82929920 83296792 83987136 85034048 86473504 
1264.623 88328208 90602632 93277688 96316120 99659544 103232768 106951720 
1267.998 110714848 114413824 117944520 121204456 124110600 126609208 
1270.891 128677728 130331440 131619184 132623536 133445096 134197640 
1273.784 135007856 135996480 137281968 138974992 141162656 143910800 
1276.677 147258016 151215168 155768992 160886256 166524448 172628528 
1279.570 179136224 185982592 193088032 200361664 207704000 214996016 
1282.463 222113952 228936848 235344688 241236016 246529408 251167120 
1285.356 255124592 258418256 261118624 263342464 265257024 267063088 
1288.249 268950176 271089568 273603456 276546976 279910976 283620608 
1291.142 287551712 291524320 295325440 298737088 301538560 303558144 
1294.035 304702944 304977056 304490368 303437984 302087264 300716640 
1296.928 299596928 298980320 299062432 299992640 301861440 304686528 
1299.822 308405824 312866464 317851232 323069568 328197024 332933024 
1302.715 336995424 340162400 342282720 343256800 343040032 341634272 
1305.608 339084544 335469984 330890880 325456544 319260544 312374688 
1308.501 304850144 296726016 288042560 278850592 269209696 259186384 
1311.394 248849584 238266000 227509760 216666944 205831792 195109600 
1314.287 184600960 174384672 164522688 155055248 146008080 137409888 
1317.180 129292336 121689512 114636904 108157968 102260856 96937720 92167800 
1320.555 87921472 84162944 80852736 77945192 75387376 73123960 71096088 
1323.930 69246072 67524192 65884688 64286232 62693328 61071584 59393068 
1327.306 57641284 55813300 53922820 51995680 50066600 48168376 46327032 
1330.681 44561820 42884612 41304288 39829148 38465504 37216356 36077964 
1334.056 35040340 34089012 33209860 32393742 31637740 30944388 30317084 
1337.431 29756930 29260122 28820420 28431678 28092700 27807708 27584054 
1340.807 27427532 27337930 27308078 27326390 27381300 27464944 27575652 
1344.182 27716368 27891332 28102526 28348024 28622962 28923434 29248816 
1347.557 29604164 29998182 30441314 30941506 31503086 32127716 32817174 
1350.932 33575916 34413124 35341116 36372904 37520164 38791452 40192940 
1354.308 41732160 43419672 45271464 47309904 49560356 52050060 54805416 
1357.683 57848944 61199092 64867416 68860000 73172032 77784696 82663736 
1361.058 87744704 92930800 98098248 103096752 107780992 112038040 115802256 
1364.433 119061216 121837672 124168592 126083584 127598256 128716720 
1367.326 129442616 129789520 129785984 129467752 128870312 128017800 
1370.219 126916560 125555904 123909928 121942424 119606016 116849824 
1373.113 113633480 109940808 105801016 101292536 96533896 91653264 86759216 
1376.488 81933912 77228240 72680008 68335224 64247236 60474804 57068244 
1379.863 54048216 51404072 49099848 47093188 45347192 43840028 42562084 
1383.238 41504716 40650132 39969356 39423724 38976624 38605052 38302300 
1386.614 38077840 37947068 37921356 38000660 38175544 38434300 38770436 
1389.989 39184612 39681404 40263968 40929736 41668696 42470656 43329016 
1393.364 44246452 45234584 46308304 47476348 48734456 50068312 51462224 
1396.739 52908792 54414388 55997884 57682076 59484404 61407280 63438004 
1400.115 65556840 67748096 70008464 72347312 74781792 77328120 79991880 
1403.490 82765912 85627472 88541288 91466392 94358456 97173176 99868624 
1406.865 102405584 104751472 106887888 108812096 110542448 112116520 
1409.758 113591168 115032928 116506960 118076752 119793232 121695216 
1412.651 123814120 126171616 128778800 131631392 134707184 137959360 
1415.544 141309936 144658448 147860240 150717424 152993136 154406224 
1418.437 154696960 153715584 151476560 148158656 144015888 139289680 
1421.330 134145824 128678040 122965784 117113168 111280088 105700536 
1424.223 100613160 96204456 92562752 89658664 87384096 85600592 84192184 
1427.599 83078888 82218664 81595048 81195088 80999920 80986464 81133144 
1430.974 81428832 81871696 82459528 83176392 83987104 84830704 85632112 
1434.349 86312848 86793488 87012336 86936392 86572288 85966352 85185888 
1437.724 84293600 83326544 82297592 81207832 80059688 78868984 77669848 
1441.100 76508920 75449136 74562136 73918808 73594144 73657000 74161488 
1444.475 75148272 76640568 78651896 81194896 84288200 87952304 92197384 
1447.850 97011248 102364520 108239200 114661280 121727536 129596960 
1450.743 138432976 148332480 159239392 170941248 183055408 195119920 
1453.636 206723360 217454736 226889392 234517136 239664288 241658912 
1456.529 240156720 235501936 228658080 220726912 212487632 204208080 
1459.422 195822288 187154144 178087824 168606544 158765008 148597984 
1462.315 138102784 127250168 116040152 104611488 93292840 82534376 72792832 
1465.691 64363188 57308108 51501168 46721508 42752784 39422960 36618040 
1469.066 34260180 32281980 30612616 29180984 27926806 26826536 25899728 
1472.441 25196334 24764412 24621316 24748836 25114668 25698638 26510782 
1475.816 27588292 28989206 30776372 33003032 35721200 38979852 42820212 
1479.192 47256740 52238844 57620400 63111044 68318080 72820184 76235624 
1482.567 78343048 79100488 78627672 77134880 74866696 72058400 68884112 
1485.942 65469264 61890048 58180264 54351560 50404576 46345464 42200724 
1489.317 38035740 33959648 30117136 26653130 23668964 21203098 19223404 
1492.693 17651356 16387703 15340273 14439174 13641237 12931664 12313739 
1496.068 11795586 11379943 11057612 10812659 10631131 10505821 10435593 
1499.443 10420253 10456263 10534811 10645188 10779132 10934116 11113698 
1502.818 11323960 11568964 11847510 12150766 12466032 12781323 13092403 
1506.194 13405210 13732127 14081844 14448525 14815859 15166657 15490850 
1509.569 15786491 16056960 16307918 16542498 16759850 16957292 17132900 
1512.944 17289066 17431906 17568994 17704330 17835258 17951788 18042238 
1516.319 18099958 18129910 18147978 18172264 18213208 18264938 18304680 
1519.695 18299080 18218840 18054326 17828768 17590592 17393346 17267552 
1523.070 17210012 17193810 17185260 17160510 17109706 17039056 16962356 
1526.445 16893144 16835860 16786780 16739601 16693115 16653966 16633963 
1529.820 16642708 16680306 16733987 16782236 16801692 16777724 16714361 
1533.196 16636511 16581774 16580706 16646048 16769940 16934760 17121836 
1536.571 17317788 17515036 17704330 17872026 17998686 18064518 18064586 
1539.946 18020652 17980590 17993300 18086554 18256782 18476756 18712650 
1543.321 18939154 19149258 19353368 19571992 19821834 20109022 20425640 
1546.697 20757852 21093032 21427284 21766360 22121914 22504242 22916352 
1550.072 23352910 23804116 24263992 24734104 25223934 25745712 26307544 
1553.447 26908666 27539252 28185462 28838088 29495210 30158758 30827982 
1556.822 31487160 32098856 32612034 32983192 33218232 33384654 33587156 
1560.198 33895772 34315292 34808012 35323324 35823168 36287704 36719816 
1563.573 37139040 37573812 38048904 38577892 39162712 39799588 40488068 
1566.948 41237936 42068232 43002464 44060448 45250944 46572616 48018952 
1570.323 49581448 51256216 53034788 54897224 56801888 58686120 60475228 
1573.698 62070696 63367992 64263328 64664760 64525692 63868492 62790988 
1577.074 61426516 59899728 58297076 56661432 55012740 53366952 51745256 
1580.449 50184968 48735604 47444784 46354236 45488380 44851336 44430988 
1583.824 44203232 44140180 44212700 44398288 44683436 45062120 45532828 
1587.199 46093600 46738260 47457868 48245016 49100812 50038604 51084664 
1590.575 52272780 53633756 55192660 56966004 58964068 61193904 63658124 
1593.950 66348412 69233832 72255344 75338544 78410872 81445264 84490088 
1597.325 87696000 91301624 95602984 100948512 107683416 116145136 126667576 
1600.700 139547616 155018512 173151888 193761216 216194752 239153408 
1603.594 260801488 278761664 290591744 294463648 289518944 276175040 
1606.487 255899792 230913904 203640704 176211264 150384976 127276016 
1609.380 107402520 90881112 77507432 66918796 58679028 52359568 47563732 
1612.755 43935304 41192356 39105024 37488844 36210480 35165928 34286568 
1616.130 33547922 32960386 32557956 32368824 32396600 32613140 32971040 
1619.505 33414460 33895236 34381240 34855256 35315672 35769372 36224416 
1622.881 36684264 37147196 37612504 38084168 38573036 39091936 39648476 
1626.256 40240884 40857032 41483172 42110616 42745508 43406600 44120444 
1629.631 44905896 45766140 46686936 47643484 48612628 49577032 50531484 
1633.006 51478676 52420012 53350244 54255852 55123888 55954652 56772776 
1636.382 57621044 58529736 59503556 60515216 61519468 62466352 63318616 
1639.757 64066292 64724288 65326936 65909408 66494548 67083224 67660192 
1643.132 68202608 68692960 69124528 69500344 69828304 70118576 70390888 
1646.507 70680720 71047696 71568112 72301640 73272752 74459040 75804464 
1649.883 77226504 78631456 79939696 81086376 82056088 82905888 83787536 
1653.258 84882384 86286128 87993856 89931160 92025792 94239760 96562080 
1656.633 98994000 101530528 104163944 106886152 109692104 112592344 
1659.526 115608928 118768512 122096504 125610248 129322920 133247136 
1662.419 137403296 141817392 146500352 151448688 156633344 162013344 
1665.312 167546352 173209056 179015520 185003440 191242672 197821136 
1668.205 204828832 212337248 220381184 228961744 238028256 247501008 
1671.098 257296288 267352192 277652544 288239744 299229120 310760064 
1673.991 322934112 335726016 348894720 361993952 374512032 386048000 
1676.885 396411136 405578688 413577568 420399520 425988704 430275872 
1679.778 433268960 435080960 435895328 435833568 434842272 432633952 
1682.671 428772288 422904640 415138080 406239968 397416352 389671456 
1685.564 383327200 378074112 373294240 368418976 363049728 357031744 
1688.457 350400352 343303456 335902080 328313664 320629984 312944928 
1691.350 305375168 298047360 291010496 284167008 277230880 269766304 
1694.243 261316864 251647536 241001392 230139904 220032208 211319248 
1697.136 204055488 197725952 191531680 184586576 176220816 166290272 
1700.029 155370064 144587488 134988096 127022208 120478856 114839336 
1702.922 109574864 104334040 98966120 93498832 88069160 82853480 78006224 
1706.297 73614800 69711488 66298232 63361400 60870612 58763652 56949308 
1709.673 55318648 53781788 52299352 50886732 49596604 48477160 47543436 
1713.048 46759848 46058600 45369516 44662172 43960012 43329052 42837252 
1716.423 42513956 42330336 42220916 42129232 42050636 42032824 42140148 
1719.798 42407048 42814320 43296836 43768596 44163104 44450296 44651008 
1723.174 44817688 45008276 45250504 45532420 45815848 46067220 46283828 
1726.549 46501176 46777820 47167568 47697508 48357112 49111240 49923916 
1729.924 50784892 51715172 52756232 53946644 55304004 56818884 58469036 
1733.299 60239924 62147612 64226800 66517064 69021744 71703040 74514144 
1736.675 77426720 80456920 83665112 87152672 91032184 95388552 100242256 
1740.050 105552424 111261176 117348360 123869864 130955712 138759536 
1742.943 147412912 156974944 167425792 178676688 190609424 203124080 
1745.836 216109728 229419376 242836736 255995952 268398880 279471776 
1748.729 288586016 295177248 298820992 299305600 296708352 291411296 
1751.622 284052832 275336608 265881056 256117344 246239840 236285264 
1754.515 226210480 215965200 205578960 195201264 185074464 175495024 
1757.408 166709200 158834688 151853088 145633024 139994912 134761456 
1760.301 129813152 125115096 120720432 116742160 113297440 110455528 
1763.194 108205240 106462600 105094760 103961928 102930928 101883344 
1766.087 100727712 99392496 97835648 96049544 94058312 91902624 89613008 
1769.463 87188920 84585616 81727096 78532656 74969656 71096320 67071660 
1772.838 63106032 59376352 55967020 52857744 49965848 47195712 44485536 
1776.213 41822044 39236908 36775420 34473456 32336376 30341460 28455276 
1779.588 26657640 24956436 23384624 21980766 20764074 19722586 18816232 
1782.964 17997788 17228766 16496172 15810991 15196989 14671685 14235033 
1786.339 13868737 13548144 13255218 12986659 12751125 12560906 12420342 
1789.714 12319432 12235482 12142792 12027708 11897192 11777508 11698565 
1793.089 11679334 11715959 11788913 11874274 11958255 12042458 12140135 
1796.465 12266702 12429820 12623563 12831248 13034355 13221058 13393660 
1799.840 13564587 13748166 13949102 14157798 14353889 14517178 14635597 
1803.215 14710997 14753570 14774241 14775338 14747434 14672885 14534993 
1806.590 14327348 14057579 13744439 13408183 13062525 12708032 12336305 
1809.966 11937412 11510916 11069781 10638261 10239397 9885945 9574477 
1813.341 9289871 9014111 8737748 8464806 8210639 7993541 7823274 7695871 
1817.198 7595277 7503808 7410134 7317120 7237838 7187641 7173460 7189057 
1821.056 7217557 7241511 7251887 7252292 7255998 7278404 7327195 7397394 
1824.913 7475154 7546320 7607483 7667778 7744912 7853403 7997490 8166475 
1828.771 8340794 8500654 8639380 8766520 8904384 9073045 9279580 9514154 
1832.628 9756749 9987784 10196146 10384686 10565670 10752129 10947878 
1836.003 11143953 11321274 11461822 11556817 11611877 11643051 11668339 
1839.378 11697373 11726376 11741456 11726580 11672867 11581760 11465360 
1842.754 11338312 11212696 11091807 10972820 10854444 10742892 10652930 
1846.129 10602134 10600878 10646852 10724789 10813983 10895586 10961776 
1849.504 11017168 11074267 11143544 11224937 11305561 11365250 11387461 
1852.879 11365556 11307262 11228031 11142218 11053772 10953824 10825839 
1856.255 10656666 10444587 10202692 9951779 9711377 9489837 9282187 9074466 
1860.112 8854603 8620893 8384672 8164314 7974574 7819294 7688215 7564695 
1863.969 7433694 7291983 7147792 7016983 6911900 6832861 6766994 6694812 
1867.827 6602152 6489165 6372946 6279045 6227177 6219883 6241799 6268354 
1871.684 6279818 6269363 6244824 6222505 6217396 6233765 6263447 6290474 
1875.542 6302207 6296626 6284827 6284322 6308897 6360572 6428328 6494849 
1879.399 6545638 6578402 6604037 6640270 6700834 6787759 6889042 6986644 
1883.257 7065308 7121586 7165274 7212941 7277764 7360692 7449064 7522552 
1887.114 7564763 7569753 7545579 7508763 7475930 7454154 7438817 7418830 
1890.971 7385429 7338383 7287265 7243701 7214322 7194514 7170293 7124618 
1894.829 7047863 6943581 6828384 6723481 6642020 6584424 6536960 6482674 
1898.686 6409194 6318579 6224623 6146615 6097284 6075308 6065901 6049067 
1902.544 6011002 5951171 5882181 5822402 5784860 5769313 5763202 5747623 
1906.401 5711195 5654259 5590451 5537357 5507054 5497390 5494101 5477760 
1910.259 5436054 5371036 5298112 5237408 5201895 5190896 5191734 5186939 
1914.116 5165010 5127457 5086555 5059032 5053602 5065972 5079079 5074554 
1917.973 5043143 4993434 4946278 4925567 4943329 4993367 5054172 5099864 
1921.831 5114080 5096881 5065469 5043680 5049814 5086824 5143048 5200553 
1925.688 5247569 5285165 5326153 5385897 5471821 5576925 5682760 5769615 
1929.546 5827204 5862500 5896018 5951104 6039290 6154076 6272422 6368306 
1933.403 6423855 6440031 6434145 6430480 6445781 6480589 6520647 6546681 
1937.260 6547421 6526466 6500264 6488661 6502316 6535514 6568243 6577797 
1941.118 6551693 6495522 6431320 6382899 6364103 6368574 6374761 6357580 
1944.975 6303585 6219379 6126822 6051486 6006903 5988392 5975559 5945562 
1948.833 5886379 5805410 5724893 5670540 5654763 5669533 5689642 5688131 
1952.690 5650097 5581523 5504772 5446723 5421828 5425317 5435785 5429880 
1956.548 5398243 5352787 5322564 5337524 5412468 5536887 5680578 5808533 
1960.405 5902635 5969781 6038047 6138953 6290441 6485970 6700532 6903854 
1964.262 7078712 7229146 7376397 7544972 7743529 7959118 8160195 8315665 
1968.120 8407880 8442744 8441392 8425109 8398590 8345354 8233364 8035629 
1971.977 7746228 7388496 7005366 6641650 6324833 6054913 5813100 5577999 
1975.835 5346481 5138790 4989479 4924160 4942592 5011433 5081963 5108380 
1979.692 5071838 4985022 4882004 4796699 4744841 4717608 4690008 4637561 
1983.550 4551969 4446611 4349745 4289407 4275955 4299479 4335053 4360488 
1987.407 4368922 4373976 4399380 4465591 4575174 4710574 4842030 4945139 
1991.264 5016495 5076263 5158471 5290767 5481350 5712001 5949290 6160428 
1995.122 6329842 6464076 6584054 6709516 6844541 6971021 7059414 7081305 
1998.979 7025738 6904830 6748114 6587452 6440333 6304392 6161974 5995917 
2002.837 5800306 5589444 5388413 5223122 5104625 5024607 4961158 4895207 
2006.694 4822899 4759548 4728796 4748191 4813384 4898625 4966219 4985726 
2010.552 4949965 4877480 4802428 4755025 4746952 4765946 4785644 4781222 
2014.409 4745109 4690578 4644660 4630896 4654975 4702301 4746148 4765946 
2018.266 4759045 4744674 4751910 4805175 4907940 5042440 5178087 5291974 
2022.124 5379489 5458500 5557124 5698907 5886614 6101484 6311150 6487988 
2025.981 6621598 6722303 6811824 6907894 7014087 7116298 7194312 7234503 
2029.839 7241881 7238546 7254212 7307618 7397765 7502931 7593996 7651489 
2033.696 7675804 7685416 7705888 7752670 7820373 7883734 7911335 7884915 
2037.553 7807250 7703494 7605527 7539307 7509876 7502763 7492987 7461772 
2041.411 7407977 7347920 7306000 7299294 7328678 7378487 7425941 7454423 
2045.268 7463727 7470266 7497336 7560346 7659111 7775945 7886669 7969714 
2049.126 8017571 8036608 8039714 8036979 8028845 8008391 7967960 7907388 
2052.983 7838018 7779251 7749769 7758135 7796252 7844427 7879213 7887210 
2056.841 7870171 7842774 7823139 7822093 7836938 7852052 7847700 7810927 
2060.698 7742247 7654929 7567426 7492785 7432952 7378352 7315873 7237232 
2064.555 7145131 7051366 6970987 6911362 6869080 6830605 6781365 6715068 
2068.413 6638117 6565956 6516812 6499928 6511767 6537094 6557681 6562827 
2072.270 6554182 6544528 6548901 6576956 6625299 6680511 6725635 6750605 
2076.128 6757739 6760432 6775778 6814752 6877428 6952132 7023819 7081136 
2079.985 7122799 7157325 7197276 7251112 7318468 7390518 7455806 7506640 
2083.843 7543792 7574945 7610686 7657020 7711554 7764915 7806002 7829381 
2087.700 7837579 7840480 7849556 7870845 7901752 7932392 7951188 7952403 
2091.557 7938904 7921863 7913225 7920244 7940963 7965665 7982067 7982674 
2095.415 7968297 7946700 7928544 7919130 7916633 7913124 7900706 7876683 
2099.272 7845980 7819092 7805597 7808397 7820643 7828740 7820373 7790552 
2103.130 7744541 7694792 7654457 7630278 7618408 7606876 7581722 7535599 
2106.987 7469794 7393956 7319175 7252595 7192459 7131556 7060627 6976644 
2110.844 6883858 6793346 6715573 6655646 6609251 6566359 6516274 6454121 
2114.702 6383436 6314511 6258270 6219547 6195011 6174240 6146582 6106256 
2118.559 6055686 6003476 5959569 5929136 5909655 5893432 5872541 5844834 
2122.417 5815786 5795941 5794530 5814107 5847924 5883389 5907606 5914357 
2126.274 5907169 5896690 5894540 5906296 5929304 5955001 5974249 5984159 
2130.132 5990206 6004518 6038551 6096343 6171586 6250539 6319487 6370659 
2133.989 6407479 6440232 6480084 6531410 6589235 6641582 6678829 6699119 
2137.846 6711838 6732062 6772883 6836765 6913786 6984624 7031160 7045068 
2141.704 7031093 7005029 6982435 6971021 6966947 6957688 6929777 6878303 
2145.561 6810747 6743336 6692120 6663351 6651037 6640102 6615441 6569925 
2149.419 6507328 6438954 6375501 6317974 6256354 6174644 6061297 5916137 
2153.276 5753969 5597466 5467257 5372344 5307973 5260112 5219869 5190192 
2157.134 5190158 5242673 5361072 5534739 5729996 5904280 6022827 6076787 
2160.991 6083373 6075275 6081122 6114119 6167485 6222909 6263547 6284423 
2164.848 6295147 6314444 6357008 6423990 6502350 6571237 6614297 6627721 
2168.706 6621867 6613254 6615576 6629572 6643466 6639362 6604945 6543015 
2172.563 6472080 6418475 6405259 6440670 6515871 6609588 6699388 6773086 
2176.421 6831683 6885675 6944928 7012235 7079385 7133712 7164162 7171337 
2180.278 7165813 7164769 7181747 7218770 7265567 7305562 7325746 7323623 
2184.135 7308089 7294712 7295891 7315031 7343371 7368107 7379228 7376566 
2187.993 7370567 7376128 7404910 7458468 7528081 7599289 7660224 7708654 
2191.850 7751254 7799592 7860959 7936273 8016762 8092742 8157393 8213509 
2195.708 8271591 8344881 8440007 8553233 8670342 8774566 8853521 8905229 
2199.565 8938510 8968038 9005214 9052915 9105188 9151952 9186233 9208536 
2203.423 9226169 9248575 9280561 9318035 9350230 9364348 9354292 9324738 
2207.280 9289803 9266785 9267123 9292139 9331949 9372372 9401456 9417675 
2211.137 9428883 9448388 9486078 9543857 9614212 9684577 9743263 9786029 
2214.995 9816191 9842255 9871676 9907335 9946049 9982257 10011585 10034914 
2218.852 10057498 10084729 10118914 10156833 10190786 10213886 10224097 
2222.228 10227625 10235564 10259074 10302909 10362662 10427210 10483043 
2225.603 10521978 10544350 10558167 10574463 10600063 10635138 10672524 
2228.978 10702884 10719491 10721494 10714193 10704854 10697348 10690081 
2232.353 10676123 10648007 10602202 10541770 10475406 10413261 10362221 
2235.729 10322792 10290422 10258837 10225386 10192380 10166500 10154120 
2239.104 10157986 10174606 10196756 10216668 10230781 10241365 10255274 
2242.479 10278819 10314275 10357573 10401451 10438240 10465359 10486675 
2245.854 10510335 10544010 10590420 10645256 10699487 10744453 10776177 
2249.229 10797475 10816294 10841228 10876492 10920661 10967247 11009080 
2252.605 11043576 11072840 11103058 11139737 11183422 11227963 11262951 
2255.980 11278220 11269718 11241121 11202938 11166322 11140144 11126377 
2259.355 11121550 11119646 11116791 11113051 11112814 11120394 11137629 
2262.730 11162004 11187605 11209024 11223814 11234627 11246902 11265945 
2266.106 11293693 11327430 11361100 11390012 11413550 11436580 11466653 
2269.481 11510746 11570598 11642030 11715823 11782444 11836682 11879007 
2272.856 11915003 11951512 11993678 12041811 12092844 12141907 12186682 
2276.231 12227848 12269292 12314932 12366134 12420751 12474488 12523220 
2279.607 12565237 12603370 12642291 12687425 12740717 12800501 12862272 
2282.982 12921730 12976349 13026639 13075124 13124197 13173479 13220273 
2286.357 13259830 13288595 13305813 13314389 13318898 13323613 13329934 
2289.732 13336358 13339091 13334478 13321734 13303149 13283094 13265637 
2293.108 13252554 13242476 13232433 13219350 13202374 13183725 13167262 
2296.483 13156470 13152918 13155548 13161491 13168697 13176484 13186765 
2299.858 13202169 13224235 13251972 13281386 13306941 13324228 13331984 
2303.233 13332531 13330037 13329285 13332668 13339501 13347189 13352826 
2306.609 13355389 13356038 13357644 13362668 13372064 13384638 13397898 
2309.984 13409379 13418845 13427594 13438256 13452986 13471887 13493179 
2313.359 13514064 13532761 13549888 13567390 13588551 13615287 13647118 
2316.734 13681379 13714549 13744609 13771628 13798614 13828680 13864392 
2320.110 13904795 13946673 13984961 14015725 14037490 14051316 14059050 
2323.485 14062165 14059975 14050084 14030405 14001010 13965080 13928846 
2326.860 13899390 13881805 13877631 13884063 13896105 13909072 13920669 
2330.235 13932029 13946399 13967100 13995022 14028558 14064252 14099095 
2333.611 14132365 14165946 14202884 14245578 14294234 14345807 14395982 
2336.986 14441160 14480521 14516219 14552227 14592009 14637277 14687039 
2340.361 14739001 14790935 14842567 14895096 14950376 15008783 15068194 
2343.736 15124970 15175715 15219809 15261436 15307803 15368078 15448377 
2347.112 15550567 15671056 15803123 15938563 16069680 16190898 16298458 
2350.487 16389562 16462239 16514929 16547076 16559709 16556578 16543152 
2353.862 16524807 16506290 16489219 16472872 16455665 16437082 16418707 
2357.237 16404392 16398266 16402533 16415954 16434226 16451776 16464131 
2360.613 16470119 16472528 16476106 16485536 16503502 16530761 16566524 
2363.988 16610382 16663779 16728995 16808822 16904098 17012558 17129558 
2367.363 17249416 17368032 17483850 17598046 17713374 17832806 17957452 
2370.738 18087176 18221396 18359842 18503380 18653190 18809418 18970478 
2374.114 19132570 19290736 19440992 19580760 19710104 19831128 19945906 
2377.489 20055754 20159866 20257060 20346324 20428420 20505976 20582716 
2380.864 20662178 20746104 20833696 20922732 21010810 21096962 21182188 
2384.239 21268824 21359480 21455274 21555474 21658240 21761344 21864648 
2387.615 21969090 22076904 22189558 22305762 22421826 22532370 22632120 
2390.990 22718488 22792406 22857954 22920090 22982060 23044772 23105782 
2394.365 23161696 23209474 23248414 23280084 23307600 23333260 23358224 
2397.740 23381722 23402318 23419206 23433196 23446414 23461804 23481108 
2401.115 23504298 23529692 23555156 23579434 23602768 23627118 23654304 
2404.491 23685480 23719526 23753998 23785950 23813498 23837194 23858966 
2407.866 23881440 23906122 23932972 23960422 23986544 24010322 24032312 
2411.241 24054128 24077558 24103160 24129536 24154160 24175004 24191574 
2414.616 24205656 24220476 24239920 24265884 24298400 24335020 24373252 
2417.992 24411036 24448576 24486994 24527940 24572224 24619104 24666868 
2421.367 24713690 24759218 24805102 24853764 24907764 24967560 25031790 
2424.742 25097046 25160344 25220002 25276224 25331540 25388130 25447010 
2428.117 25507162 25566268 25621694 25671606 25716462 25757736 25797290 
2431.493 25836216 25874162 25909964 25942920 25974014 26005570 26040892 
2434.868 26082372 26130260 26182766 26236472 26288462 26338136 26387250 
2438.243 26439364 26497716 26563756 26636078 26711510 26786466 26858294 
2441.618 26927034 26994724 27063944 27135958 27211128 27288214 27365842 
2444.994 27443872 27523400 27606652 27695426 27789728 27887728 27986208 
2448.369 28082520 28175492 28266506 28358740 28455666 28559192 28669150 
2451.744 28783634 28899598 29015488 29130594 29245978 29362598 29481024 
2455.119 29600474 29719566 29836704 29951674 30065288 30179430 30295412 
2458.495 30413524 30532556 30650552 30765810 30877680 30986768 31094390 
2461.870 31201538 31308002 31412210 31512670 31608518 31700860 31792078 
2465.245 31885386 31982888 32084764 32188944 32292794 32393922 32492108 
2468.620 32589138 32688438 32792982 32904018 33020764 33140908 33261690 
2471.996 33381540 33500246 33618512 33737136 33856084 33974236 34090124 
2475.371 34203212 34314360 34426180 34541472 34662252 34788448 34917736 
2478.746 35047128 35173832 35297484 35419696 35543848 35673216 35809528 
2482.121 35952184 36098884 36247184 36395060 36542380 36689856 36838676 
2485.497 36989644 37142796 37297480 37453408 37611168 37772164 37937556 
2488.872 38107792 38281564 38456200 38628740 38796920 38960712 39121628 
2492.247 39282536 39445600 39611888 39780780 39950684 40119892 40288036 
2495.622 40455844 40624592 40794972 40966620 41138004 41307676 41474892 
2498.998 41640320 41806428 41975848 42150116 42329604 42512128 42695204 
2502.373 42877148 43057560 43237792 43419852 43605032 43792860 43981056 
2505.748 44166552 44347060 44522280 44694120 44865920 45040732 45220240 
2509.123 45403688 45589164 45773836 45955752 46133984 46308492 46479052 
2512.499 46645432 46806304 46960228 47106812 47247908 47386612 47527320 
2515.874 47674140 47829216 47992712 48162860 48336888 48512732 48688644 
2519.249 48864292 49039452 49213908 49386836 49557532 49725324 49890392 
2522.624 50053660 50216400 50379344 50542280 50704380 50863708 51019412 
2526.000 51170952 51319080 51464540 51608400 51750668 51891116 52029888 
2529.375 52167704 52306828 52450032 52600580 52760272 52929604 53107760 
2532.750 53292772 53483640 53680172 53883284 54094672 54315248 54544876 
2536.125 54781924 55024400 55270024 55517740 55767260 56018996 56272952 
2539.500 56528224 56783272 57035144 57281492 57520300 57750000 57968964 
2542.876 58175264 58365976 58537616 58686652 58810084 58906536 58975532 
2546.251 59017472 59032312 59019292 58976368 58901340 58792256 58648916 
2549.626 58472564 58266308 58034552 57781568 57512052 57230416 56940428 
2553.001 56646292 56351260 56057408 55765752 55475796 55185964 54895156 
2556.377 54602812 54309768 54018080 53730264 53448224 53173296 52905500 
2559.752 52645048 52392424 52149392 51918524 51702740 51504264 51324676 
2563.127 51164168 51022540 50899880 50797076 50715512 50656828 50622056 
2566.502 50611144 50623356 50657052 50711084 50784184 50875296 50983376 
2569.878 51106356 51241860 51386920 51539484 51698972 51866248 52043264 
2573.253 52232344 52434816 52650924 52879640 53119484 53369164 53628432 
2576.628 53897760 54178220 54470540 54774780 55090260 55415792 55750120 
2580.003 56091416 56437960 56787084 57135360 57478656 57812188 58131776 
2583.379 58434200 58716804 58977428 59213300 59420648 59594384 59728380 
2586.754 59816596 59854396 59838500 59767276 59640984 59460164 59226212 
2590.129 58940692 58605720 58224288 57800456 57339264 56845736 56325004 
2593.504 55782144 55221256 54647752 54067200 53485660 52909280 52343640 
2596.880 51792440 51257744 50740540 50241136 49760732 49301424 48865660 
2600.255 48456640 48076092 47724428 47400584 47102528 46828376 46576340 
2603.630 46345720 46135824 45946616 45777188 45626924 45495076 45381176 
2607.005 45285216 45206932 45145680 45099800 45067196 45045288 45031836 
2610.381 45025844 45026688 45034704 45050284 45072892 45101784 45135752 
2613.756 45173360 45214176 45257860 45304488 45353992 45405380 45457584 
2617.131 45509424 45560572 45611724 45664616 45721376 45783336 45850828 
2620.506 45922896 45997888 46073816 46149752 46225816 46302664 46381780 
2623.882 46464228 46550856 46642296 46738924 46841516 46950588 47066120 
2627.257 47187220 47311936 47437504 47561476 47682644 47801472 47920004 
2630.632 48041416 48168488 48302708 48444120 48590580 48740016 48889652 
2634.007 49038084 49184112 49327552 49468184 49605852 49739960 49870504 
2637.383 49997856 50122936 50246824 50370676 50494708 50618368 50740912 
2640.758 50861176 50978868 51094544 51209500 51325200 51443052 51563548 
2644.133 51686840 51812224 51938692 52065412 52191504 52315984 52438292 
2647.508 52557424 52672920 52784332 52891316 52994508 53093984 53189996 
2650.884 53282512 53371036 53455232 53534460 53608604 53677884 53741892 
2654.259 53800580 53853688 53900800 53941576 53976548 54006336 54032452 
2657.634 54055864 54077596 54097636 54115352 54129988 54141060 54148344 
2661.009 54152396 54154044 54154496 54153860 54152620 54150104 54146052 
2664.385 54139896 54131676 54121544 54109908 54096848 54082136 54065248 
2667.760 54045360 54020668 53989304 53948820 53896000 53827320 53739680 
2671.135 53630196 53497244 53340576 53161160 52961156 52743772 52512848 
2674.510 52272556 52028096 51785308 51549968 51328144 51125516 50946416 
2677.885 50794540 50672208 50581032 50522216 50496012 50502304 50539784 
2681.261 50606120 50697564 50809960 50938480 51079112 51227880 51381548 
2684.636 51537432 51692776 51845264 51993252 52135980 52274012 52408720 
2688.011 52542352 52676512 52812280 52949328 53086492 53222620 53356724 
2691.386 53488320 53617564 53744400 53868316 53987388 54099096 54200628 
2694.762 54289452 54363728 54422764 54466596 54494956 54507764 54504080 
2698.137 54482860 54443344 54384904 54307512 54211252 54095796 53959924 
2701.512 53801628 53618460 53407268 53165580 52891424 52583152 52239852 
2704.887 51860612 51445216 50993476 50506920 49987708 49439520 48867000 
2708.263 48275120 47669256 47054744 46436608 45820268 45211120 44614548 
2711.638 44036132 43480096 42950228 42449064 41978000 41537784 41128460 
2715.013 40749512 40399876 40077552 39780164 39505000 39249236 39011240 
2718.388 38789460 38583288 38392164 38215164 38051000 37898036 37754740 
2721.764 37620200 37494444 37378256 37272676 37178492 37095624 37023416 
2725.139 36960532 36905156 36855848 36811920 36772860 36738784 36710080 
2728.514 36687112 36670564 36660864 36658992 36665048 36679108 36700740 
2731.889 36728760 36762040 36799040 36838932 36881312 36925968 36972868 
2735.265 37021648 37071772 37122728 37173584 37223648 37272676 37320404 
2738.640 37366484 37410792 37453016 37493540 37533240 37573736 37616984 
2742.015 37665260 37720264 37783368 37854508 37933724 38020768 38115532 
2745.390 38218128 38329044 38448384 38575428 38709252 38848408 38991048 
2748.766 39136136 39282536 39429708 39577224 39724752 39872044 40018580 
2752.141 40164008 40308392 40451372 40592612 40730952 40865188 40993784 
2755.516 41115856 41230756 41339088 41441908 41540336 41635104 41726540 
2758.891 41813800 41896548 41973948 42045708 42112220 42173632 42229972 
2762.267 42280920 42325880 42364268 42396124 42421920 42442812 42460060 
2765.642 42474784 42487536 42498572 42508072 42516476 42524844 42535004 
2769.017 42548528 42566980 42591688 42623156 42661536 42707124 42760172 
2772.392 42820940 42889660 42965736 43047976 43134692 43224176 43315212 
2775.768 43407332 43500932 43597340 43697656 43802904 43913928 44031292 
2779.143 44155216 44286000 44423872 44568652 44719504 44875144 45034004 
2782.518 45194760 45356680 45519800 45684896 45852744 46023860 46198324 
2785.893 46375440 46554724 46735492 46917924 47102088 47288328 47476532 
2789.269 47666220 47856444 48046672 48236720 48427336 48619708 48815312 
2792.644 49014820 49218548 49425672 49635012 49845496 50056488 50267320 
2796.019 50477964 50687884 50896716 51103636 51308116 51510236 51710616 
2799.394 51910532 52111176 52313328 52516700 52720504 52923428 53124652 
2802.770 53323416 53520104 53715416 53910220 54104732 54299180 54493264 
2806.145 54686684 54879400 55071112 55261704 55450536 55636552 55818312 
2809.520 55994908 56165504 56330096 56489504 56644444 56795920 56944132 
2812.895 57089180 57230724 57368604 57503200 57635156 57765256 57894068 
2816.271 58021636 58147420 58270552 58390948 58508692 58624944 58741536 
2819.646 58860472 58983120 59110400 59242084 59377188 59514536 59652464 
2823.021 59789748 59925368 60058320 60187784 60313168 60433752 60549004 
2826.396 60658488 60761336 60857192 60945328 61024792 61094920 61154996 
2829.771 61204512 61243044 61270092 61285544 61288904 61279976 61258344 
2833.147 61224232 61177352 61117652 61045156 60959968 60862108 60751732 
2836.522 60628960 60493580 60345376 60183708 60007720 59816976 59611452 
2839.897 59392496 59162720 58926232 58687560 58451104 58220688 57998724 
2843.272 57786716 57585328 57395528 57218172 57054908 56907076 56775796 
2846.648 56661544 56563892 56481732 56414192 56360692 56320780 56294564 
2850.023 56282192 56283512 56298036 56325192 56364312 56415060 56477204 
2853.398 56550116 56632928 56724328 56822280 56925280 57031780 57141596 
2856.773 57254916 57372120 57493632 57619036 57747168 57876088 58004024 
2860.149 58129540 58251528 58369764 58484428 58595292 58702732 58806444 
2863.524 58906688 59003616 59097264 59187704 59274632 59356980 59433376 
2866.899 59502340 59562192 59611452 59648928 59674056 59685800 59683636 
2870.274 59667100 59636156 59591340 59533308 59462860 59380188 59285264 
2873.650 59177452 59056568 58923120 58779128 58628092 58474268 58321596 
2877.025 58173484 58031748 57896416 57767300 57643704 57526312 57415644 
2880.400 57313324 57220404 57136796 57061860 56993736 56930192 56869868 
2883.775 56811748 56755780 56702128 56651012 56602580 56556568 56512940 
2887.151 56471280 56431660 56393968 56357372 56320932 56283096 56242704 
2890.526 56198956 56151708 56101328 56048624 55993968 55936904 55876980 
2893.901 55812660 55743488 55668716 55588156 55502532 55411876 55316236 
2897.276 55215612 55109896 54999504 54885528 54769444 54652788 54536728 
2900.652 54421860 54307888 54194208 54079924 53964840 53848588 53731164 
2904.027 53612500 53492372 53370736 53247452 53123152 52998776 52875108 
2907.402 52752716 52631436 52510528 52389244 52267208 52145172 52024664 
2910.777 51907244 51793748 51682848 51572060 51456816 51333068 51198164 
2914.153 51051608 50895264 50732008 50565060 50396572 50226960 50056004 
2917.528 49883292 49709084 49534956 49363488 49197284 49038636 48888392 
2920.903 48746540 48612368 48485536 48365960 48254052 48150276 48055108 
2924.278 47968584 47890920 47822816 47765556 47720584 47689444 47672436 
2927.654 47668444 47674952 47688448 47706012 47725764 47747804 47773656 
2931.029 47806060 47848044 47901836 47969508 48052148 48150900 48266492 
2934.404 48399040 48548112 48712472 48889988 49078220 49274696 49477620 
2937.779 49685272 49896264 50108656 50319256 50524116 50718868 50898764 
2941.155 51060368 51201112 51319900 51416456 51491320 51545344 51579968 
2944.530 51597396 51600640 51593252 51579036 51561796 51544072 51527996 
2947.905 51514972 51506320 51503372 51507588 51520608 51543032 51574560 
2951.280 51613624 51657956 51704720 51751752 51797816 51842540 51886260 
2954.656 51929468 51972708 52015924 52058988 52101348 52142556 52181600 
2958.031 52217772 52250020 52277188 52298640 52314112 52323832 52328840 
2961.406 52330260 52329364 52326672 52322676 52317476 52310972 52303352 
2964.781 52294904 52285672 52275732 52264928 52252784 52238768 52222480 
2968.156 52203680 52182236 52157728 52129668 52097616 52061008 52019880 
2971.532 51974836 51926924 51877300 51826860 51775976 51724464 51672176 
2974.907 51619220 51566496 51515424 51467336 51423392 51383412 51346304 
2978.282 51310468 51274264 51237608 51201188 51167040 51137444 51114408 
2981.657 51098792 51090368 51088056 51090888 51097708 51108404 51122496 
2985.033 51139792 51159732 51181652 51204952 51229896 51257036 51287460 
2988.408 51321804 51359844 51400160 51440180 51477184 51508892 51534148 
2991.783 51552916 51566048 51574560 51579224 51580192 51577504 51570824 
2995.158 51560528 51547392 51532096 51514936 51495724 51473120 51446000 
2998.534 51412912 51373716 51328852 51279520 51227060 51172448 51115784 
3001.909 51056676 50994372 50928384 50858532 50785452 50709744 50632592 
3005.284 50554636 50476732 50399324 50323236 50249056 50177752 50109808 
3008.659 50045704 49985624 49929604 49877936 49830700 49787784 49749252 
3012.035 49714104 49681112 49648684 49615620 49580784 49544164 49506284 
3015.410 49467740 49429344 49391328 49353872 49316568 49279304 49241964 
3018.785 49204708 49167488 49130084 49091796 49052028 49010076 48965564 
3022.160 48918764 48870000 48819204 48765964 48709028 48646684 48577424 
3025.536 48500244 48415152 48322852 48224800 48121808 48014136 47901204 
3028.911 47781460 47653580 47516712 47371092 47218504 47061540 46903192 
3032.286 46746820 46594860 46448960 46309780 46177172 46050420 45928604 
3035.661 45810804 45696860 45586920 45481720 45382136 45289080 45202704 
3039.037 45122776 45048300 44978068 44910564 44844392 44777976 44709404 
3042.412 44636176 44555800 44465272 44362508 44246560 44117912 43978676 
3045.787 43831708 43680508 43528368 43378368 43232704 43093636 42962664 
3049.162 42841276 42730264 42629916 42539972 42459624 42388344 42325624 
3052.538 42271424 42225884 42188856 42159352 42135516 42115176 42096120 
3055.913 42076480 42055636 42033332 42009720 41984240 41955556 41921364 
3059.288 41879728 41828936 41769180 41701844 41629560 41555104 41480364 
3062.663 41406148 41332124 41257644 41182048 41105260 41028088 40951472 
3066.039 40876180 40802252 40729132 40655736 40581480 40506036 40430204 
3069.414 40354860 40281528 40211260 40144820 40082896 40025780 39973860 
3072.789 39927220 39885448 39847272 39810488 39772100 39728240 39674724 
3076.164 39607860 39524348 39421872 39299216 39156476 38995040 38817500 
3079.540 38627436 38429124 38226416 38023332 37823060 37628440 37442216 
3082.915 37267404 37106560 36962336 36835972 36727640 36635736 36557804 
3086.290 36490516 36431164 36378020 36329812 36285364 36243072 36199892 
3089.665 36151128 36091572 36015680 35918712 35797688 35651200 35479340 
3093.041 35283468 35065736 34829268 34578180 34317872 34054032 33793044 
3096.416 33540654 33300790 33075970 32866456 32671080 32488252 32316138 
3099.791 32153298 31998940 31852514 31713728 31582146 31457558 31339198 
3103.166 31226282 31117490 31010788 30903722 30793302 30676724 30551930 
3106.542 30418108 30275588 30126226 29972692 29817826 29664362 29514288 
3109.917 29368838 29228472 29092966 28961542 28833204 28706920 28581768 
3113.292 28457080 28332532 28208232 28084356 27961118 27838832 27717852 
3116.667 27598848 27482700 27370288 27262318 27158638 27058372 26959784 
3120.042 26860514 26758518 26652952 26544524 26434890 26326800 26222640 
3123.418 26123996 26031214 25943378 25859498 25778164 25698850 25621270 
3126.793 25545148 25470690 25397088 25323884 25250516 25177022 25103786 
3130.168 25031370 24960228 24889974 24819732 24747890 24673146 24594980 
3133.543 24513708 24430594 24347178 24265076 24185478 24108836 24035394 
3136.919 23964870 23896528 23829318 23761836 23691884 23617006 23535428 
3140.294 23446100 23349554 23246910 23140554 23032752 22925120 22818178 
3143.669 22712064 22606606 22502218 22399740 22300146 22204344 22112918 
3147.044 22025312 21941242 21859942 21781376 21705888 21633966 21565432 
3150.420 21499174 21432994 21364806 21292348 21214614 21132198 21046666 
3153.795 20959900 20873432 20787846 20703114 20618710 20534844 20451862 
3157.170 20371048 20293200 20218804 20147164 20076782 20005822 19933002 
3160.545 19857558 19779698 19700396 19620070 19539168 19457140 19373634 
3163.921 19288138 19200962 19112588 19023614 18934552 18845300 18755616 
3167.296 18665052 18573470 18481700 18390468 18300636 18212414 18125210 
3170.671 18038162 17950200 17860668 17769910 17678794 17588696 17500788 
3174.046 17415558 17332926 17252346 17173470 17096366 17021344 16948540 
3177.422 16878194 16809374 16740771 16671216 16599331 16524393 16446339 
3180.797 16365338 16282288 16197983 16113384 16029695 15948256 15870478 
3184.172 15797213 15728598 15664013 15601808 15539613 15475639 15408414 
3187.547 15337665 15263563 15186936 15108570 15029432 14950205 14871986 
3190.923 14796078 14723954 14656434 14593688 14534856 14477986 14420779 
3194.298 14361527 14299165 14234211 14167828 14101764 14037114 13974593 
3197.673 13913657 13853583 13793688 13733495 13673481 13613816 13555630 
3201.048 13499024 13444750 13393386 13345651 13302328 13263861 13230281 
3204.424 13200393 13172693 13144824 13114668 13080144 13040297 12994375 
3207.799 12942280 12883911 12819919 12750920 12678179 12603506 12528915 
3211.174 12455871 12385532 12317795 12252115 12187840 12124530 12062387 
3214.549 12002194 11944599 11890075 11837806 11786836 11735703 11683417 
3217.925 11629744 11575431 11521089 11467470 11414435 11361441 11307432 
3221.300 11251799 11194642 11137052 11080522 11026480 10975368 10927286 
3224.675 10881418 10836948 10793297 10750329 10707842 10665902 10624272 
3228.050 10582476 10540276 10497809 10455855 10415637 10378069 10343524 
3231.426 10310950 10278786 10244282 10205711 10162259 10114403 10063771 
3234.801 10012060 9960865 9910725 9861744 9813311 9764984 9716697 9668518 
3238.658 9620817 9573935 9527634 9481574 9435283 9388014 9339397 9289261 
3242.516 9237203 9183255 9127994 9072504 9018407 8967599 8921531 8880845 
3246.373 8844391 8809697 8773586 8733455 8687885 8637386 8584053 8530998 
3250.230 8480483 8434095 8391800 8352414 8314112 8275475 8235897 8195377 
3254.088 8153882 8111579 8067999 8022804 7975384 7926081 7875299 7824557 
3257.945 7774764 7726934 7681403 7638135 7596423 7555693 7515202 7474581 
3261.803 7432817 7389507 7344213 7297138 7249226 7201723 7156482 7114547 
3265.660 7076826 7043081 7012606 6984321 6957486 6931595 6906245 6880895 
3269.518 6854201 6824816 6791360 6753431 6711703 6668196 6625198 6585433 
3273.375 6549339 6516947 6486575 6456408 6425234 6392818 6359967 6327925 
3277.232 6297164 6267380 6236925 6204187 6167687 6127561 6085019 6042112 
3281.090 6001091 5963298 5928767 5896992 5866530 5836372 5806015 5775189 
3284.947 5744467 5713948 5683867 5654696 5626936 5601594 5579946 5562728 
3288.805 5549875 5540008 5530981 5519974 5504772 5484169 5458366 5428773 
3292.662 5397370 5365534 5334405 5303948 5273695 5242807 5210747 5177214 
3296.520 5142645 5107743 5073280 5040495 5010730 4984921 4963940 4948322 
3300.377 4937632 4931331 4927913 4926170 4925031 4923758 4921613 4917994 
3304.234 4911727 4901909 4887030 4866255 4839048 4805309 4765477 4719652 
3308.092 4668272 4611506 4549793 4483970 4415948 4347937 4282681 4222152 
3311.949 4167552 4119147 4076033 4036902 4000283 3964737 3929361 3892684 
3315.807 3853603 3811184 3765058 3715629 3664535 3613881 3565905 3522077 
3319.664 3482529 3445923 3410723 3375125 3338462 3301034 3263809 3227789 
3323.521 3192974 3158195 3121817 3081938 3037858 2990647 2942206 2895306 
3327.379 2852179 2813526 2778343 2744631 2709654 2671514 2629743 2585042 
3331.236 2539413 2495289 2454768 2419448 2390061 2367040 2349916 2338123 
3335.094 2330695 2325731 2321367 2315205 2304779 2288290 2264575 2233600 
3338.951 2196267 2154974 2112188 2070836 2032985 1999962 1971037 1944510 
3342.809 1918051 1888998 1855654 1817987 1777230 1736044 1696890 1662264 
3346.666 1633328 1609948 1591623 1576592 1563124 1548759 1530803 1506264 
3350.523 1472551 1427837 1372125 1307646 1238425 1169814 1107059 1053813 
3354.381 1011998 981345 960756 948436 943223 944850 952554 965106 980149 
3358.720 994031 1002599 1002931 993666 975865 952852 929077 909022 895807 
3363.060 891491 896305 909221 928679 952653 978655 1004127 1026080 1041889 
3367.400 1049229 1046539 1032888 1008145 972677 927251 873628 813805 751201 
3371.739 690399 635279 590020 557075 536605 527084 525658 528942 533719 
3376.079 538231 541150 542013 540520 536340 528743 517530 502801 485154 
3380.418 465849 446246 427473 410492 395668 383397 373315 365158 357829 
3384.758 350567 342210 332561 322116 313063 308488 311505 324669 347781 
3389.098 378622 412184 442664 464422 473776 469630 453576 428999 399780 
3393.437 369933 342442 318965 300895 289124 283852 285842 294827 310378 
3397.777 330836 353816 376499 395402 407574 410161 401505 381042 350202 
3402.116 311505 268634 225635 186120 152145 125231 105279 92056 84897 83240 
3406.938 86786 94574 105014 115918 124800 129540 128777 122911 112836 100407 
3411.760 87184 74359 61965 49869 37807 26011 15043 5699 -1358 -5798 -7985 
3417.064 -8482 -7819 -6229 -4208 -1756 563 1855 1093 -2849 -10470 -21238 
3422.368 -34159 -47511 -59902 -70039 -77493 -82429 -84781 -85378 -84284 
3426.708 -81733 -78056 -73352 -67919 -62055 -55794 -49499 -43270 -37936 
3431.047 -34424 -33861 -36843 -44099 -55131 -69476 -86206 -104889 -125493 
3435.387 -148613 -174548 -203362 -233995 -264792 -293435 -317771 -336908 
3439.244 -350449 -359421 -365215 -369453 -373061 -376736 -380708 -384913 
3443.102 -389547 -394778 -401200 -409078 -419241 -432018 -447807 -466309 
3446.959 -487161 -508707 -528894 -545474 -556361 -560332 -557652 -550140 
3450.816 -540311 -530648 -523136 -518436 -516318 -515822 -515822 -516054 
3454.674 -516583 -517874 -520720 -525386 -531674 -539021 -547393 -556460 
3458.531 -566487 -577506 -589286 -601066 -611455 -619462 -624227 -625583 
3462.389 -623929 -619793 -613639 -605400 -595242 -583065 -569531 -555997 
3466.246 -544051 -535182 -530383 -529258 -531111 -534520 -538657 -542661 
3470.104 -546533 -550206 -553350 -555170 -554740 -551430 -545110 -536340 
3473.961 -526147 -514862 -502054 -486400 -465747 -438274 -403418 -362269 
3477.818 -316778 -269859 -223663 -178953 -134834 -89750 -41349 12193 71774 
3482.158 137660 209557 286936 368839 453875 539757 623400 701550 771282 
3486.498 830635 879007 916725 944983 964143 974371 974703 964143 942127 
3490.837 908623 864399 810153 746189 672246 587996 493480 389831 279840 
3495.177 167027 54972 -53640 -157258 -255255 -347768 -433673 -511553 -579161 
3499.516 -634417 -677460 -710342 -737599 -764193 -795019 -832324 -875809 
3503.374 -922333 -967462 -1007364 -1038801 -1061178 -1074895 -1081770 
3506.749 -1083951 -1083786 -1083687 -1085901 -1091784 -1101567 -1114192 
3510.124 -1127015 -1136863 -1141424 -1139408 -1132071 -1122421 -1114093 
3513.500 -1110689 -1113366 -1121992 -1134484 -1148694 -1162639 -1175858 
3516.875 -1188778 -1202193 -1216632 -1231600 -1246071 -1258461 -1267711 
3520.250 -1273592 -1276466 -1277623 -1277821 -1277821 -1278217 -1279373 
3523.625 -1282314 -1288723 -1300219 -1318024 -1342502 -1372989 -1407371 
3527.000 -1443138 -1477746 -1509016 -1535430 -1555901 -1569668 -1576733 
3530.376 -1577459 -1572672 -1564584 -1554976 -1545897 -1538996 -1534803 
3533.751 -1532987 -1532756 -1533978 -1536916 -1542661 -1552335 -1566532 
3537.126 -1584689 -1604794 -1623775 -1638696 -1646882 -1647509 -1640445 
3540.501 -1627307 -1609614 -1589179 -1567654 -1546722 -1527738 -1512516 
3543.877 -1502974 -1501058 -1507992 -1523973 -1548208 -1578450 -1611825 
3547.252 -1644670 -1673552 -1696095 -1710683 -1717647 -1717911 -1714412 
3550.627 -1709660 -1706524 -1706656 -1710551 -1717548 -1726426 -1735666 
3554.002 -1744379 -1751903 -1757447 -1760615 -1760516 -1756160 -1747316 
3557.378 -1734511 -1719627 -1705336 -1694643 -1689461 -1689956 -1694445 
3560.753 -1699957 -1703587 -1703356 -1698669 -1690418 -1680880 -1672463 
3564.128 -1667215 -1667149 -1673618 -1688471 -1712597 -1746359 -1788037 
3567.503 -1833968 -1878871 -1916875 -1943759 -1957646 -1959328 -1951973 
3570.879 -1939537 -1926177 -1915225 -1908034 -1905461 -1907110 -1912289 
3574.254 -1919942 -1929146 -1938712 -1947586 -1954347 -1958009 -1957646 
3577.629 -1953523 -1945375 -1933863 -1919580 -1902953 -1884479 -1865014 
3581.004 -1845845 -1828293 -1813313 -1801401 -1791436 -1782262 -1772066 
3584.380 -1760549 -1748636 -1739626 -1737547 -1746953 -1770614 -1808396 
3587.755 -1856502 -1908298 -1956492 -1994786 -2019423 -2029152 -2025194 
3591.130 -2010056 -1986903 -1959691 -1932445 -1908627 -1891044 -1881147 
3594.505 -1878673 -1881807 -1888009 -1895168 -1901238 -1905889 -1909023 
3597.881 -1911827 -1914994 -1919580 -1926045 -1934391 -1944485 -1955304 
3601.256 -1965661 -1973677 -1976843 -1973511 -1962429 -1943825 -1919283 
3604.631 -1892133 -1866400 -1845878 -1833704 -1831757 -1839742 -1856040 
3608.006 -1877584 -1900281 -1919712 -1932841 -1937393 -1933665 -1923505 
3611.382 -1910013 -1897114 -1887283 -1881345 -1877650 -1872371 -1860923 
3614.757 -1839643 -1807769 -1767512 -1723884 -1683718 -1654078 -1640610 
3618.132 -1646321 -1670416 -1709132 -1756325 -1805097 -1850102 -1887481 
3621.507 -1915885 -1935315 -1946398 -1949762 -1945936 -1933764 -1912388 
3624.883 -1881510 -1842117 -1798464 -1757315 -1729396 -1726821 -1758338 
3628.258 -1826280 -1921031 -2023611 -2110736 -2166061 -2185018 -2173216 
3631.633 -2142257 -2104998 -2072254 -2049829 -2038748 -2035517 -2034791 
3635.008 -2031592 -2023248 -2009990 -1993664 -1976843 -1960582 -1945309 
3638.384 -1930531 -1915357 -1899457 -1883819 -1869138 -1856304 -1845219 
3641.759 -1834957 -1823904 -1810838 -1794834 -1776323 -1756622 -1737613 
3645.134 -1721145 -1709297 -1703818 -1706194 -1717977 -1740385 -1774112 
3648.509 -1818922 -1872470 -1930630 -1987332 -2035187 -2067208 -2078783 
3651.885 -2067670 -2035748 -1987463 -1930564 -1873625 -1825686 -1794636 
3655.260 -1784836 -1795560 -1820473 -1850102 -1875275 -1889692 -1892133 
3658.635 -1885469 -1874450 -1863002 -1854127 -1848353 -1844493 -1841721 
3662.010 -1839181 -1837333 -1836904 -1839181 -1843470 -1847990 -1850267 
3665.385 -1847000 -1835815 -1816513 -1790776 -1763189 -1740616 -1730485 
3668.761 -1740352 -1773188 -1825818 -1887481 -1943198 -1977931 -1982516 
3672.136 -1956492 -1908001 -1851487 -1803546 -1781965 -1797771 -1851388 
3675.511 -1928882 -2007484 -2065856 -2092534 -2088676 -2063416 -2028129 
3678.886 -1991388 -1957019 -1925023 -1892628 -1857888 -1820836 -1783648 
3682.262 -1749659 -1720815 -1695897 -1671044 -1640643 -1601030 -1551972 
3685.637 -1498549 -1448653 -1412623 -1397926 -1407933 -1437854 -1478935 
3689.012 -1519780 -1552599 -1574686 -1588057 -1596244 -1601460 -1603407 
3692.387 -1599446 -1587991 -1568843 -1544906 -1521431 -1504459 -1498549 
3695.763 -1505450 -1523346 -1547449 -1572309 -1593240 -1608458 -1618890 
3699.138 -1628529 -1641931 -1663980 -1697085 -1741177 -1793185 -1847429 
3702.513 -1897378 -1937624 -1964705 -1977667 -1978261 -1970114 -1956821 
3705.888 -1941813 -1927365 -1914236 -1902129 -1890483 -1879860 -1871613 
3709.264 -1869336 -1876957 -1897840 -1932775 -1979679 -2032252 -2082443 
3712.639 -2122903 -2148093 -2156929 -2151225 -2135267 -2114132 -2092171 
3716.014 -2072913 -2058272 -2048642 -2043069 -2040134 -2038386 -2037363 
3719.389 -2036341 -2036374 -2037100 -2038452 -2038551 -2035352 -2026645 
3722.765 -2011276 -1990168 -1966552 -1945672 -1932940 -1932907 -1946926 
3726.140 -1972687 -2003823 -2031493 -2047356 -2046103 -2026546 -1991949 
3729.515 -1949235 -1907242 -1873559 -1853599 -1848716 -1855677 -1868940 
3732.890 -1882829 -1896356 -1912190 -1937030 -1976843 -2033901 -2103415 
3736.266 -2174139 -2232753 -2268715 -2277977 -2263013 -2229621 -2184293 
3739.641 -2132069 -2074727 -2012629 -1947058 -1882269 -1827204 -1794801 
3743.016 -1798464 -1846241 -1932544 -2035813 -2123925 -2171073 -2168369 
3746.391 -2124584 -2057348 -1986903 -1930564 -1899226 -1897114 -1921295 
3749.767 -1964837 -2019950 -2081322 -2145389 -2209447 -2267792 -2311959 
3753.142 -2334073 -2328503 -2296073 -2242741 -2178820 -2114066 -2057414 
3756.517 -2014311 -1986078 -1971433 -1967739 -1973215 -1985781 -2003955 
3759.892 -2024435 -2042047 -2051116 -2047191 -2029415 -2001382 -1969751 
3763.268 -1942440 -1925946 -1923043 -1932379 -1948476 -1965101 -1977371 
3766.643 -1984693 -1989640 -1996962 -2010650 -2032615 -2061470 -2093358 
3770.018 -2123397 -2147664 -2164050 -2172589 -2174501 -2171402 -2164677 
3773.393 -2155280 -2143741 -2130552 -2115616 -2099228 -2081718 -2063680 
3776.769 -2047092 -2034692 -2029317 -2034099 -2049071 -2072155 -2097117 
3780.144 -2117132 -2125969 -2120825 -2103152 -2077662 -2050390 -2026942 
3783.519 -2010815 -2002273 -1999700 -2000096 -2000920 -2001085 -2000293 
3786.894 -1999073 -1997721 -1995577 -1991487 -1985056 -1976282 -1966651 
3790.270 -1957943 -1951808 -1949169 -1949400 -1950917 -1953094 -1955667 
3793.645 -1960483 -1969949 -1986177 -2009825 -2037825 -2064834 -2083070 
3797.020 -2086367 -2071660 -2040760 -1999436 -1957217 -1925254 -1913609 
3800.395 -1928354 -1969191 -2026315 -2083268 -2122375 -2132563 -2111659 
3803.771 -2067307 -2012266 -1962957 -1933665 -1934292 -1966453 -2022457 
3807.146 -2086302 -2140147 -2171303 -2176513 -2159665 -2128871 -2091940 
3810.521 -2054116 -2016026 -1976348 -1932775 -1885535 -1837894 -1797507 
3813.896 -1773287 -1773716 -1801995 -1854127 -1916974 -1972357 -2004416 
3817.271 -2004647 -1974534 -1924132 -1868808 -1824234 -1804997 -1819747 
3820.647 -1867753 -1937624 -2009726 -2065428 -2092171 -2089039 -2062921 
3824.022 -2025854 -1989706 -1962891 -1948806 -1945639 -1946827 -1945112 
3827.397 -1935018 -1915324 -1889098 -1861913 -1839280 -1825356 -1820737 
3830.772 -1823409 -1829381 -1833704 -1832846 -1824069 -1807208 -1783252 
3834.148 -1754609 -1724874 -1698768 -1682002 -1679229 -1693620 -1724445 
3837.523 -1767248 -1813346 -1853929 -1882994 -1897939 -1901205 -1897642 
3840.898 -1892331 -1889296 -1890417 -1895630 -1903316 -1911695 -1918920 
3844.273 -1923505 -1924231 -1920008 -1910475 -1895003 -1874120 -1848089 
3847.649 -1817272 -1781272 -1739065 -1688867 -1630344 -1565673 -1501025 
3851.024 -1447827 -1420681 -1435344 -1502082 -1618263 -1763948 -1908100 
3854.399 -2021236 -2086499 -2104438 -2085576 -2044223 -1991817 -1936931 
3857.774 -1884083 -1835452 -1792096 -1754774 -1724214 -1701211 -1685269 
3861.150 -1675566 -1670714 -1669426 -1671638 -1678569 -1690946 -1707944 
3864.525 -1725402 -1736359 -1733521 -1712135 -1672727 -1622290 -1572573 
3867.900 -1537015 -1527374 -1549661 -1600205 -1665465 -1726095 -1766687 
3871.275 -1779358 -1767677 -1741210 -1712564 -1692068 -1684609 -1688966 
3874.651 -1698570 -1704874 -1700518 -1682365 -1652361 -1616216 -1581553 
3878.026 -1555967 -1545798 -1553854 -1579110 -1615325 -1653484 -1683091 
3881.401 -1696062 -1688603 -1662990 -1626152 -1588288 -1560952 -1554052 
3884.776 -1572375 -1613641 -1667776 -1719957 -1755302 -1764938 -1748372 
3888.152 -1712036 -1666819 -1624667 -1596904 -1590368 -1607039 -1641601 
3891.527 -1685302 -1727416 -1758998 -1775497 -1776289 -1763651 -1740847 
3894.902 -1711508 -1678569 -1644208 -1610571 -1580034 -1554118 -1534539 
3898.277 -1522025 -1516379 -1515818 -1518294 -1522025 -1526054 -1531006 
3901.653 -1538402 -1550849 -1569074 -1593240 -1621068 -1648598 -1671506 
3905.028 -1685830 -1689296 -1681903 -1665003 -1641237 -1613641 -1584590 
3908.403 -1556099 -1529091 -1503634 -1479298 -1454630 -1428871 -1401129 
3911.778 -1370974 -1338736 -1305174 -1271940 -1240917 -1214320 -1194858 
3915.154 -1184185 -1183755 -1193833 -1213956 -1241842 -1275376 -1311385 
3918.529 -1347357 -1380883 -1409947 -1432537 -1447596 -1454366 -1453540 
3921.904 -1447728 -1440331 -1435377 -1437028 -1446737 -1463645 -1485011 
3925.279 -1505615 -1520606 -1526912 -1523610 -1512582 -1496799 -1479760 
3928.655 -1464174 -1451625 -1442808 -1437953 -1437557 -1442609 -1454003 
3932.030 -1472132 -1495379 -1520969 -1545435 -1565178 -1578021 -1584029 
3935.405 -1584524 -1581685 -1577459 -1572606 -1566432 -1557915 -1545963 
3938.780 -1530049 -1511889 -1493794 -1478307 -1467740 -1463150 -1463645 
3942.156 -1467476 -1471868 -1474378 -1473717 -1468830 -1460475 -1450205 
3945.531 -1440034 -1432504 -1429862 -1433825 -1444723 -1461532 -1482039 
3948.906 -1503172 -1521563 -1534968 -1542496 -1544147 -1540845 -1534044 
3952.281 -1524601 -1513077 -1500233 -1486364 -1472363 -1459484 -1448191 
3955.656 -1438746 -1430324 -1421969 -1412589 -1401691 -1389867 -1378571 
3959.032 -1369686 -1364566 -1363344 -1364930 -1367176 -1368464 -1367011 
3962.407 -1362915 -1357300 -1352048 -1348315 -1347093 -1348480 -1351420 
3965.782 -1354789 -1357630 -1359315 -1359678 -1359050 -1357960 -1356771 
3969.157 -1356738 -1357927 -1361065 -1366350 -1373451 -1381709 -1390230 
3972.533 -1398124 -1404663 -1409683 -1413613 -1416916 -1420053 -1423158 
3975.908 -1426130 -1428739 -1430754 -1432240 -1433462 -1435113 -1436929 
3979.283 -1439307 -1441685 -1443336 -1444426 -1444558 -1444261 -1444261 
3982.658 -1444657 -1445714 -1446837 -1447398 -1446936 -1445086 -1442147 
3986.034 -1438316 -1434519 -1431249 -1428409 -1426097 -1423719 -1420219 
3989.409 -1414835 -1406645 -1395085 -1380024 -1362618 -1344418 -1327538 
3992.784 -1314457 -1306463 -1304282 -1306463 -1311418 -1316439 -1319775 
3996.159 -1320337 -1318751 -1316208 -1314787 -1315844 -1320139 -1327571 
3999.535 -1337283 -1348216 -1359612 
##END=
