
##TITLE=Z140a_2_a
##JCAMP-DX=5.01  $$ Nicolet v. 1
##DATATYPE=INFRARED SPECTRUM
##ORIGIN=UniL
##OWNER=Nicolet
##LONGDATE=2011/09/20
##TIME=09:48:32
##SPECTROMETER/DATA SYSTEM=Nicolet iS5
##DATA PROCESSING=
Ratio against background
%Transmittance->Absorbance
Truncated
ElementMultiply or ElementDivide
##COMMENTS=
Number of sample scans: 32
Collection length: 51.14 sec
Sample gain: 2.0
Background collected on: Mar Sep 20 09:46:26 2011 (GMT+02:00);
Number of background scans: 32
Background gain: 2.0
Sample spacing:  1.000
Number of scan points: 12415
Resolution points: 8192
Number of FFT points: 65536
Apodization: N-B fort;
Phase correction: Mertz;
Laser frequency: 15798.0 cm-1
Number of rejected sample scans: 0
Number of rejected background scans: 0
Bench serial number: ASB1000141;
##RESOLUTION=4.000
##XUNITS=1/CM
##YUNITS=ABSORBANCE
##FIRSTX=649.893372
##LASTX=4000.122314
##FIRSTY=0.107411
##MAXX=4000.122314
##MINX=649.893372
##MAXY=0.528750
##MINY=0.001209
##XFACTOR=1.000000
##YFACTOR=1.000000E-009
##NPOINTS=6950
##DELTAX=0.482117
##ZPD=6100
##XYDATA=(X++(Y..Y))
649.893 107410624 103978392 101468080 99852024 99048816 98936120 99359840 
653.268 100175232 101274208 102600208 104153160 105964944 108069400 
656.161 110475560 113164216 116100328 119260184 122647368 126301008 
659.054 130278168 134651072 139500976 144922560 151052656 158066016 
661.946 166134528 175379248 185778496 197126944 208986928 220758848 
664.839 231713104 240896496 247197744 249334224 246087152 236943408 
667.732 222653456 205267056 187208800 170366976 155626208 143040976 
670.624 132317232 123119296 115213504 108506088 102969056 98559816 95178576 
673.999 92661992 90827480 89503784 88571384 87960256 87622376 87513008 
677.374 87577944 87753832 87989392 88254552 88543840 88865976 89229600 
680.749 89630352 90050968 90470504 90876664 91274360 91684000 92130240 
684.124 92628816 93179776 93769720 94383040 95012432 95666744 96366536 
687.498 97137784 97997632 98950264 99990200 101111536 102316920 103624160 
690.873 105061296 106659480 108445136 110434584 112639496 115075632 
693.766 117768544 120759640 124100904 127842888 132031080 136700384 
696.659 141879904 147610320 153962208 161049552 169057152 178230592 
699.551 188855008 201229120 215569936 231914544 249952912 268945280 
702.444 287577536 303919168 315810208 321132192 318424096 307423744 
705.337 289135200 265599664 239215504 212367392 186946384 164120864 
708.229 144536464 128324240 115277104 105013352 97075928 91019768 86424656 
711.604 82945472 80306496 78283288 76716984 75493168 74529680 73772392 
714.979 73179328 72714136 72347000 72052064 71810408 71613080 71457128 
718.354 71342536 71268584 71230872 71222824 71239960 71281856 71353000 
721.729 71460872 71610856 71802592 72029496 72280504 72546264 72822816 
725.104 73113408 73427080 73773800 74160624 74588216 75052912 75548216 
728.478 76069120 76613648 77182416 77777008 78398248 79045464 79717776 
731.853 80415616 81141808 81901304 82699848 83541232 84426176 85352976 
735.228 86319184 87324504 88372104 89469216 90624792 91848496 93147832 
738.603 94529240 95998992 97564120 99235488 101027776 102959400 105054248 
741.978 107341080 109853032 112632152 115727688 119194472 123099056 
744.870 127515808 132525656 138224400 144714528 152104720 160511184 
747.763 170044992 180810384 192895536 206360240 221209984 237346064 
750.656 254535728 272314112 289924736 306390560 320481792 330915936 
753.548 336634720 336927328 331629632 321117056 306219456 288033376 
756.441 267708384 246381120 225007360 204332224 184952656 167267104 
759.334 151530016 137886672 126346696 116815392 109103568 102965616 98125744 
762.709 94314728 91313360 88942864 87070024 85601928 84460512 83578992 
766.083 82902000 82379856 81974768 81660984 81418720 81232920 81091000 
769.458 80983264 80906456 80867056 80880152 80964704 81136768 81404016 
772.833 81763168 82203888 82714400 83288648 83929328 84646368 85451240 
776.208 86353832 87358656 88466088 89676424 90993048 92423480 93978864 
779.583 95670336 97506960 99497144 101651104 103984280 106523232 109302968 
782.958 112367528 115770848 119570368 123830024 128617216 133987336 
785.850 139969952 146538176 153593248 160932960 168254912 175206560 
788.743 181390352 186443408 190107376 192244000 192870480 192133264 
791.636 190286144 187624416 184436384 180998592 177539040 174248944 
794.528 171302480 168845120 167006928 165908368 165648608 166321040 
797.421 168017264 170822848 174823216 180090192 186662128 194513024 
800.314 203508624 213384544 223657200 233617472 242383696 248875712 
803.206 252035888 251034464 245399232 235209568 221075568 204057280 
806.099 185399168 166340768 147982752 131084560 116119368 103296736 92600224 
809.474 83885840 76931480 71495720 67329496 64199680 61910376 60286212 
812.849 59186072 58505696 58160452 58087080 58237360 58567044 59039372 
816.224 59624752 60300188 61051752 61872164 62756188 63697568 64686872 
819.598 65712152 66763052 67833848 68926160 70047248 71208152 72418984 
822.973 73686088 75012376 76398832 77846720 79359960 80944224 82605424 
826.348 84348760 86178432 88099280 90121784 92264656 94557632 97043568 
829.723 99772600 102800552 106189224 109998816 114294056 119145864 124628360 
833.098 130826536 137834608 145747568 154658544 164636304 175700896 
835.990 187775760 200641856 213918768 226979184 238989744 248988240 
838.883 255906320 258822896 257142032 250724400 239977424 225766176 
841.776 209277200 191713680 174179360 157576576 142488192 129267528 
844.669 118052744 108801584 101361064 95503432 90983440 87549696 84978920 
848.043 83094936 81749608 80830736 80253072 79941248 79831296 79866928 
851.418 79995064 80172608 80366008 80552080 80721392 80876120 81030344 
854.793 81204640 81423200 81708136 82072744 82520064 83040544 83617664 
858.168 84229472 84855144 85479960 86093864 86691904 87271024 87828416 
861.543 88360080 88862480 89332888 89771952 90183360 90572872 90945776 
864.917 91304736 91648808 91973256 92271504 92536344 92762776 92948816 
868.292 93096264 93210952 93302696 93384688 93471424 93578400 93718912 
871.667 93901696 94130824 94405768 94723544 95081272 95478664 95919024 
875.042 96408488 96954912 97565568 98247744 99008488 99856112 100802928 
878.417 101864080 103058488 104407352 105930432 107643840 109555504 
881.309 111659992 113930840 116314832 118733928 121079032 123226128 
884.202 125057680 126469744 127399160 127831552 127801344 127381968 
887.095 126668720 125768544 124775616 123770144 122821336 121984240 
889.987 121310864 120852144 120649640 120735608 121124312 121809680 
892.880 122767272 123960352 125351384 126905296 128597168 130413712 
895.773 132349224 134403888 136580064 138881376 141312176 143879184 
898.666 146592192 149464016 152509232 155742720 159176480 162819840 
901.558 166678352 170756464 175058768 179593328 184372752 189416352 
904.451 194750816 200409472 206436096 212884544 219816784 227305328 
907.344 235425168 244245664 253827040 264211920 275425728 287474176 
910.236 300349920 314030080 328455936 343521568 359031136 374643392 
913.129 389881728 404089568 416450336 426117504 432246272 434138944 
916.022 431394624 423951712 412148416 396659360 378438272 358558912 
918.914 338039008 317828448 298673856 281096224 265463984 251955984 
921.807 240607952 231350944 224023808 218404800 214226960 211221440 
924.700 209120976 207672960 206669488 205929136 205299888 204666816 
927.593 203931744 203018032 201872080 200456656 198753664 196760720 
930.485 194485056 191939760 189139536 186101184 182844064 179390864 
933.378 175770320 172012192 168146112 164200224 160198032 156161648 
936.271 152114512 148080128 144083760 140149824 136297216 132539408 
939.163 128884984 125338032 121902856 118584176 115387424 112317352 
942.056 109376696 106565704 103882920 101326928 98897664 96596424 94424712 
945.431 92382152 90465616 88669808 86988368 85416304 83950912 82591592 
948.806 81338080 80188992 79140440 78185968 77319056 76534208 75827856 
952.181 75198456 74645344 74167104 73761312 73425400 73157288 72957624 
955.555 72829432 72777096 72804944 72915880 73111216 73392360 73763088 
958.930 74231800 74812880 75528184 76403728 77471032 78767520 80332960 
962.305 82214784 84465624 87136928 90278512 93927320 98096584 102766160 
965.680 107871968 113307120 118906560 124466456 129762840 134552144 
968.573 138617312 141780592 143907296 144920464 144790640 143530352 
971.465 141188144 137849472 133642032 128725096 123303976 117619120 
974.358 111911888 106430128 101390656 96947080 93198336 90173040 87843584 
977.733 86140656 84973960 84251400 83881016 83785448 83901720 84176336 
981.108 84570352 85055400 85611696 86227200 86894296 87606160 88356184 
984.482 89136760 89940088 90760920 91596352 92446480 93313216 94198728 
987.857 95104320 96030120 96976696 97945112 98938112 99959584 101013736 
991.232 102103768 103232392 104401920 105616192 106882080 108210768 
994.125 109618400 111127760 112766200 114566720 116565448 118792776 
997.017 121265392 123971416 126862960 129843440 132775232 135507808 
999.910 137890176 139816128 141252048 142249104 142939888 143507936 
1002.803 144172240 145131648 146543904 148521024 151119952 154359984 
1005.695 158237760 162742528 167861328 173576688 179861776 186660800 
1008.588 193870688 201339328 208834992 216047360 222618912 228124480 
1011.481 232128256 234249616 234182624 231780896 227087360 220346832 
1014.374 211966336 202445904 192341200 182149200 172282832 163067440 
1017.266 154703760 147302800 140899952 135469104 130945624 127241416 
1020.159 124264512 121922600 120131752 118824784 117942440 117436624 
1023.052 117270264 117411048 117833768 118518656 119447680 120603416 
1025.945 121965640 123505296 125184608 126954960 128753752 130514248 
1028.838 132167712 133649648 134914688 135940640 136736976 137344240 
1031.731 137835344 138307984 138863952 139605008 140610800 141921296 
1034.624 143530720 145379056 147361456 149323040 151085408 152469408 
1037.517 153300608 153446448 152827904 151424624 149278288 146481872 
1040.410 143169488 139484528 135568512 131545928 127506864 123516832 
1043.303 119621504 115853000 112242784 108823720 105626160 102678016 
1046.196 99997456 97590208 95450176 93560968 91900120 90438968 89147656 
1049.571 87997176 86958488 86007944 85127840 84306184 83537496 82820120 
1052.947 82153840 81537800 80969976 80447032 79966264 79525776 79124896 
1056.322 78763424 78440048 78151376 77892992 77659664 77447552 77255000 
1059.697 77082928 76933616 76809544 76712560 76644120 76606024 76601704 
1063.072 76637160 76719672 76858064 77060048 77331528 77677184 78100568 
1066.448 78605120 79195032 79874776 80648344 81518296 82485568 83549144 
1069.823 84706448 85954104 87286944 88698456 90180872 91724352 93319704 
1073.198 94959456 96639720 98361632 100131712 101961944 103867600 105867136 
1076.573 107981952 110234880 112652080 115263368 118100008 121195832 
1079.466 124582584 128283280 132307040 136639232 141236352 146014240 
1082.359 150851472 155600928 160086064 164133152 167591760 170342512 
1085.252 172325408 173545168 174079376 174067792 173705616 173234880 
1088.146 172897536 172932912 173554208 174915104 177113232 180170304 
1091.039 184027808 188528432 193406048 198308752 202759424 206211344 
1093.932 208128512 208009632 205525280 200585696 193365504 184281312 
1096.825 173908480 162922096 151944064 141493792 131963688 123564344 
1099.718 116369752 110341280 105368592 101303160 97984216 95266696 93014288 
1103.093 91108080 89453336 87969952 86599152 85304224 84064336 82873368 
1106.468 81733688 80653728 79645256 78723264 77907576 77220008 76681320 
1109.844 76308016 76106896 76074368 76196808 76455136 76827136 77288968 
1113.219 77817072 78384600 78961216 79517664 80025856 80466176 80831376 
1116.594 81126432 81367088 81573856 81770448 81979208 82220024 82514216 
1119.969 82882392 83344200 83916992 84610776 85427432 86361264 87402496 
1123.344 88540712 89766616 91074808 92461768 93927032 95475152 97120960 
1126.720 98895960 100848904 103053824 105606808 108617896 112224496 
1129.613 116581144 121850160 128198296 135746160 144515008 154339040 
1132.506 164814816 175260528 184696160 192063136 196373952 196967120 
1135.399 193737824 187170256 178255232 168163056 158097008 149044480 
1138.292 141618192 136129632 132588056 130798952 130429776 131089568 
1141.185 132394720 133958592 135451280 136619136 137285504 137387600 
1144.078 136969872 136175072 135195184 134235232 133477632 133040712 
1146.971 132984776 133319872 134024504 135063648 136398800 137995968 
1149.864 139818960 141832128 144004960 146315136 148755568 151333264 
1152.757 154061536 156945344 159968096 163081760 166212480 169274928 
1155.650 172184448 174883776 177348896 179591024 181646560 183566608 
1158.543 185408464 187223904 189062448 190971024 192988128 195145680 
1161.437 197463728 199948560 202597216 205403648 208367696 211499872 
1164.330 214823040 218365920 222159360 226227824 230589088 235258336 
1167.223 240253696 245600336 251332576 257486576 264093488 271172032 
1170.116 278726336 286747904 295221216 304134176 313474624 323225888 
1173.009 333362368 343832768 354561248 365461824 376443072 387434272 
1175.902 398397312 409321952 420215584 431082624 441908352 452652736 
1178.795 463255008 473635040 483700832 493334560 502368448 510578464 
1181.688 517669856 523289856 527091968 528750368 527999936 524669632 
1184.581 518659168 509951520 498628768 484881152 469025888 451481056 
1187.474 432749504 413342016 393708864 374239936 355219104 336839936 
1190.367 319241408 302502688 286661344 271722464 257654640 244404144 
1193.260 231906272 220101024 208942608 198403936 188470896 179136384 
1196.153 170392576 162227472 154631680 147603792 141153840 135310896 
1199.046 130117056 125619096 121871136 118923160 116817992 115594960 
1201.939 115280216 115884496 117398192 119787336 122991824 126921136 
1204.833 131469504 136510544 141903568 147514112 153204560 158844672 
1207.726 164325392 169551984 174456656 179007072 183210096 187117024 
1210.619 190813344 194420432 198071808 201893792 206001712 210475888 
1213.512 215353792 220621872 226210640 231991808 237770400 243316080 
1216.405 248365376 252644144 255916592 257984368 258701776 257978944 
1219.298 255759920 252015680 246745536 239979728 231795472 222320112 
1222.191 211735760 200263184 188138832 175618336 162950064 150366240 
1225.084 138095696 126332688 115234808 104927496 95485104 86945744 79319584 
1228.459 72590952 66728392 61684644 57400744 53805044 50818080 48364408 
1231.834 46371160 44776136 43531628 42596368 41935848 41520244 41320136 
1235.210 41309568 41467896 41778228 42228004 42806316 43499948 44293008 
1238.585 45166784 46100380 47076052 48078500 49095768 50118396 51136548 
1241.960 52138596 53112592 54047388 54935536 55776076 56574084 57339148 
1245.335 58081400 58810504 59534336 60260636 61001836 61777616 62615820 
1248.711 63555784 64641648 65921432 67447912 69272144 71444464 74010184 
1252.086 76996512 80399936 84163912 88174048 92236880 96088656 99445240 
1255.461 102014832 103571880 104011304 103366424 101813096 99617080 97109320 
1258.836 94600680 92334328 90478424 89102544 88201688 87725160 87611992 
1262.212 87815960 88318992 89132000 90284344 91808872 93726144 96037808 
1265.587 98721416 101735568 105016480 108482352 112042024 115586616 
1268.480 119002120 122182048 125026392 127460528 129443872 130972864 
1271.373 132083448 132844152 133355456 133730736 134091232 134566240 
1274.266 135274624 136329232 137832560 139862032 142473664 145696224 
1277.159 149532784 153964048 158953552 164457280 170420992 176785008 
1280.052 183489056 190460224 197616272 204868176 212108496 219224768 
1282.945 226105728 232638928 238726416 244287200 249259264 253610192 
1285.838 257343584 260511248 263207488 265572224 267776720 269983168 
1288.731 272337600 274942656 277841120 281020096 284410144 287901888 
1291.625 291340960 294548000 297342656 299545568 301021632 301704960 
1294.518 301614816 300860928 299625152 298150336 296685120 295469568 
1297.411 294724544 294620544 295285792 296795936 299161952 302322336 
1300.304 306134112 310396384 314842048 319174464 323119680 326421728 
1303.197 328880896 330363456 330783680 330107904 328344992 325543552 
1306.090 321782592 317158400 311773920 305716160 299049984 291820320 
1308.983 284058944 275797312 267075664 257942192 248452016 238663680 
1311.876 228635392 218434480 208141632 197846768 187652336 177658880 
1314.769 167947568 158585184 149618544 141079424 133000880 125416400 
1317.662 118358720 111859584 105938048 100597376 95825856 91599416 87885728 
1321.037 84646128 81839008 79416200 77322344 75500704 73891472 72436480 
1324.413 71086296 69795224 68522688 67233944 65895788 64481988 62977688 
1327.788 61381824 59709980 57989752 56257336 54547208 52886412 51295216 
1331.163 49786148 48368296 47050016 45838052 44735992 43741556 42846212 
1334.538 42037312 41301260 40629504 40018256 39468644 38982680 38559896 
1337.914 38195624 37883068 37616228 37394288 37221808 37106992 37056360 
1341.289 37070980 37144312 37265528 37422748 37607592 37817528 38054512 
1344.664 38322380 38623156 38955276 39314416 39696944 40102192 40534880 
1348.039 41003616 41518828 42089220 42720064 43413816 44172492 45000268 
1351.415 45904996 46897176 47987864 49187340 50502640 51939548 53504588 
1354.790 55207712 57063556 59093124 61319468 63767292 66460028 69416672 
1358.165 72650248 76165848 79960408 84017056 88302088 92766472 97333008 
1361.540 101899440 106348640 110551976 114398176 117813784 120771976 
1364.433 123289504 125407072 127172280 128619808 129768920 130627800 
1367.326 131203352 131509232 131570056 131413264 131062776 130529864 
1370.219 129809704 128881184 127709344 126250472 124450136 122250096 
1373.113 119602920 116483640 112911120 108953016 104718240 100328904 
1376.006 95892624 91494400 87190384 83023008 79041296 75300040 71857904 
1379.381 68764880 66042236 63680844 61645964 59895048 58390304 57107280 
1382.756 56033924 55159552 54465692 53922932 53492296 53136112 52829568 
1386.131 52565312 52354072 52215604 52168524 52220868 52369472 52606116 
1389.507 52924848 53325180 53810032 54381488 55035308 55759384 56539284 
1392.882 57362668 58226184 59137092 60110792 61161708 62294372 63503852 
1396.257 64779788 66116236 67517728 69001936 70593392 72316200 74182544 
1399.632 76188552 78319592 80558344 82894704 85328664 87868736 90524096 
1403.008 93295176 96170632 99122448 102108128 105079488 107985648 110778760 
1406.383 113418320 115870696 118112056 120132672 121938168 123554528 
1409.276 125025464 126415136 127796944 129242224 130819096 132578928 
1412.169 134558608 136784320 139272608 142031200 145054048 148318432 
1415.062 151775904 155342688 158908112 162311872 165336832 167729680 
1417.955 169198112 169481056 168436784 166093184 162641904 158347088 
1420.848 153458768 148149616 142520048 136655712 130665392 124709992 
1423.741 119020248 113828040 109312808 105557536 102531352 100127912 
1426.634 98210984 96667128 95418768 94426072 93675200 93158056 92861944 
1430.010 92770944 92870064 93152840 93618560 94262536 95063368 95978336 
1433.385 96938016 97858808 98655120 99241440 99552232 99554192 99257720 
1436.760 98715008 98000208 97181216 96295768 95353688 94349440 93278632 
1440.135 92150720 90996152 89860984 88809344 87914088 87245064 86872760 
1443.510 86858320 87247160 88070784 89344088 91073496 93264904 95932008 
1446.886 99095096 102773344 106974520 111696760 116949872 122775752 
1449.779 129268824 136567680 144804832 154045904 164214496 175093632 
1452.672 186313024 197430608 208048096 217759808 226143712 232707712 
1455.565 236839536 237980800 235917264 231071072 224382016 216856256 
1458.458 209170816 201527904 193829504 185882752 177557056 168817984 
1461.351 159701328 150231776 140405280 130200040 119627536 108832864 
1464.244 98138624 87976200 78780744 70832304 64191268 58739488 54268616 
1467.619 50573660 47490728 44909940 42755380 40959372 39450644 38158076 
1470.995 37022656 36023924 35185908 34565440 34217660 34166364 34398132 
1474.370 34882188 35597648 36552540 37782356 39343292 41295468 43687580 
1477.745 46561256 49947632 53863328 58289008 63136488 68225600 73242592 
1481.120 77792864 81477480 83961328 85080240 84849952 83441768 81102792 
1484.496 78102312 74690368 71046992 67298232 63518464 59738116 55964752 
1487.871 52193556 48421892 44660224 40949252 37365976 34018488 31020112 
1491.246 28452728 26347854 24677740 23372560 22341900 21499382 20778046 
1494.621 20135154 19556116 19045352 18614486 18270604 18010084 17820724 
1497.997 17690906 17614194 17590730 17622544 17709266 17845580 18023552 
1501.372 18235806 18479350 18756032 19068964 19418952 19801026 20200546 
1504.747 20597724 20972768 21315212 21631668 21943788 22277372 22641652 
1508.122 23028560 23419206 23796346 24148240 24470308 24763708 25030946 
1511.498 25274502 25497148 25702330 25895546 26083252 26270476 26457288 
1514.873 26637980 26800950 26934930 27036122 27112540 27181956 27262598 
1518.248 27362066 27470486 27560610 27594858 27542818 27397180 27187774 
1521.623 26970608 26806518 26729236 26733500 26787382 26850680 26894072 
1524.999 26904330 26887058 26858188 26834432 26823542 26823012 26826642 
1528.374 26832564 26847366 26884412 26954884 27060276 27186786 27309524 
1531.749 27399120 27435190 27418602 27376888 27356810 27400638 27531202 
1535.124 27744518 28020100 28331472 28655382 28975144 29273518 29531312 
1538.500 29727126 29843910 29883306 29874718 29873936 29935452 30089434 
1541.875 30332612 30634658 30956416 31265590 31550080 31818178 32093252 
1545.250 32399528 32751568 33148274 33576592 34019560 34464988 34911272 
1548.625 35365056 35837308 36336584 36865728 37421916 38000260 38598532 
1552.000 39219860 39870480 40556232 41279472 42037456 42823976 43633172 
1555.376 44459548 45294192 46121380 46906588 47594864 48124360 48456008 
1558.751 48620524 48721816 48897736 49232800 49727476 50329824 50972980 
1562.126 51605044 52193744 52733784 53241420 53745564 54277176 54859024 
1565.501 55501740 56204952 56964944 57780696 58656840 59601832 60624464 
1568.877 61731396 62929504 64227952 65635340 67159912 68797608 70526624 
1572.252 72299720 74046816 75685448 77107568 78199728 78852808 78979408 
1575.627 78552232 77626152 76335072 74835792 73257576 71674624 70109624 
1579.002 68561136 67028008 65520696 64071208 62727936 61539088 60546752 
1582.378 59774688 59226360 58889424 58741536 58758268 58914736 59191424 
1585.753 59575040 60057256 60632884 61297296 62043520 62863552 63752288 
1589.128 64711252 65752088 66896112 68170976 69602264 71211856 73015480 
1592.503 75023016 77240952 79668736 82293264 85079184 87966136 90883360 
1595.879 93767336 96602056 99444024 102445512 105836528 109894040 114934872 
1599.254 121263864 129167136 138915312 150735088 164783872 181061184 
1602.147 199326032 218914672 238592816 256683056 271082944 279705184 
1605.040 281062624 274547296 260666336 240821440 217068320 191628880 
1607.933 166445504 143113808 122618232 105378432 91423448 80481848 72140192 
1611.308 65920936 61373848 58096360 55737352 54029636 52760756 51763992 
1614.684 50922124 50150380 49405436 48693572 48063916 47587132 47318292 
1618.059 47276540 47438464 47755348 48166232 48615480 49062156 49477800 
1621.434 49850992 50183484 50487004 50777668 51072628 51388372 51736596 
1624.809 52124960 52554544 53019592 53507512 54002396 54492288 54975020 
1628.185 55464052 55983452 56562456 57222748 57970248 58795140 59676376 
1631.560 60591704 61519044 62441904 63348212 64222684 65047540 65806484 
1634.935 66496984 67140344 67784152 68486176 69279416 70161568 71096008 
1638.310 72030200 72910552 73699008 74385648 74986752 75537880 76076296 
1641.686 76627720 77196536 77769432 78322176 78831800 79282872 79667344 
1645.061 79985744 80248568 80485400 80749528 81117528 81676904 82487136 
1648.436 83565656 84879560 86363328 87926096 89464496 90887640 92114752 
1651.811 93112768 93927816 94719880 95702880 97014400 98676288 100611944 
1655.187 102727464 104956056 107264176 109640320 112077192 114573448 
1658.080 117130776 119752712 122451848 125244200 128146040 131171184 
1660.973 134330112 137635040 141103408 144764000 148650288 152779952 
1663.866 157153328 161744944 166515216 171420224 176429376 181539888 
1666.759 186764448 192140640 197723424 203578288 209769696 216347952 
1669.652 223347168 230756544 238527776 246590064 254873520 263333344 
1672.545 271965696 280825952 289991232 299518944 309386816 319434752 
1675.438 329373472 338871136 347665376 355618720 362692864 368869696 
1678.331 374106560 378339200 381511136 383640672 384829536 385223040 
1681.224 384897824 383772896 381569440 377896512 372455296 365358560 
1684.117 357290304 349312992 342318336 336606208 331920768 327723776 
1687.010 323510560 318919392 313802400 308180512 302178560 295939360 
1689.903 289569792 283153184 276767360 270503040 264453824 258646048 
1692.796 252980112 247193328 240894128 233672208 225308592 216001360 
1695.689 206406656 197376240 189486960 182800336 176859776 170938880 
1698.583 164218976 156079104 146392832 135716544 125135152 115665920 
1701.476 107768848 101267216 95675536 90487320 85362216 80154400 74893584 
1704.851 69714920 64787900 60255268 56190356 52612884 49516052 46884256 
1708.226 44689864 42877696 41363616 40043580 38827792 37672380 36585812 
1711.601 35613868 34802124 34167440 33679632 33277538 32895152 32501570 
1714.977 32115478 31796108 31605598 31572458 31671062 31839926 32022410 
1718.352 32207820 32434694 32760288 33218410 33795372 34434108 35056972 
1721.727 35602180 36039872 36387244 36692340 37009528 37368180 37761680 
1725.102 38158724 38530528 38874496 39221604 39623104 40126356 40754320 
1728.478 41496512 42320148 43191932 44101448 45066236 46121160 47297528 
1731.853 48606256 50032580 51550792 53146220 54840600 56679740 58718588 
1735.228 60974496 63417688 66000080 68685040 71474392 74410784 77577264 
1738.603 81070792 84968160 89291256 94005936 99056640 104412712 110101264 
1741.979 116207088 122833608 130064264 137922080 146367856 155308800 
1744.872 164634944 174259536 184099984 194061392 204009568 213712912 
1747.765 222849776 231044032 237874768 242955408 245984416 246788672 
1750.658 245381024 241977312 236974464 230834384 223984816 216743744 
1753.551 209273120 201624432 193789280 185746944 177531216 169261904 
1756.444 161127712 153359184 146150512 139597200 133685752 128309592 
1759.337 123320920 118573336 113973016 109505144 105240352 101306344 
1762.230 97834816 94911208 92540200 90652968 89131384 87847800 86679800 
1765.605 85519856 84284224 82907056 81347752 79596416 77671712 75608704 
1768.980 73435992 71156512 68735072 66108444 63209800 60013844 56574308 
1772.356 53032884 49575028 46356636 43452592 40845200 38460836 36213360 
1775.731 34045544 31942196 29927712 28039114 26305958 24731788 23295118 
1779.106 21963200 20712914 19543432 18474716 17532596 16729683 16054140 
1782.481 15472618 14946055 14442977 13953687 13489181 13071710 12719154 
1785.857 12434424 12204334 12009926 11836852 11682737 11555592 11466551 
1789.232 11419265 11404808 11402529 11388890 11351169 11295665 11246698 
1792.607 11233505 11275738 11372291 11506357 11655168 11804268 11953454 
1795.982 12113831 12300037 12520935 12773338 13043744 13314867 13574569 
1799.358 13822147 14066717 14320020 14586389 14858133 15116598 15342299 
1802.733 15521790 15653055 15742650 15799617 15827073 15819067 15762096 
1806.108 15643163 15457202 15210440 14919443 14602221 14272182 13931926 
1809.483 13575287 13194450 12789069 12370804 11961287 11582134 11246052 
1812.859 10951717 10686005 10432369 10180441 9931845 9699078 9498372 9339633 
1816.716 9221329 9130735 9052001 8973890 8897011 8831067 8789275 8777982 
1820.573 8792791 8819436 8842091 8851458 8848583 8843748 8850140 8876145 
1824.431 8920144 8973112 9025410 9074703 9128739 9201699 9304765 9440023 
1828.288 9596800 9757461 9904284 10032032 10150151 10280279 10441838 
1831.664 10642404 10873604 11117029 11353107 11569884 11767907 11956859 
1835.039 12148347 12346123 12542557 12720007 12861078 12955832 13007758 
1838.414 13031214 13044154 13058461 13074339 13081715 13066281 13018240 
1841.789 12935521 12824935 12698001 12565988 12435140 12308251 12188897 
1845.165 12085621 12011595 11980837 11999640 12063749 12158228 12264214 
1848.540 12365657 12456656 12542216 12633934 12740274 12859337 12976862 
1851.915 13071641 13125665 13131061 13093940 13029098 12951327 12866572 
1855.290 12768459 12642973 12477967 12270962 12033022 11782580 11537829 
1858.666 11307874 11089257 10870988 10642709 10404234 10166500 9947643 
1862.041 9762409 9615397 9497695 9393669 9288043 9175709 9062557 8961713 
1865.898 8883111 8826435 8778658 8720203 8636136 8525152 8402576 8294252 
1869.756 8222423 8194026 8198584 8214590 8222795 8213645 8191460 8168973 
1873.613 8159620 8168669 8190751 8213273 8225125 8224247 8219621 8226273 
1877.470 8256462 8312592 8385314 8459670 8522381 8571246 8615924 8672235 
1881.328 8752996 8859777 8981231 9099605 9198213 9271355 9325212 9374234 
1885.185 9430914 9498202 9567025 9621258 9647174 9640161 9608113 9566043 
1889.043 9529632 9505348 9488516 9467418 9431558 9378805 9316546 9255514 
1892.900 9204136 9161428 9117979 9060594 8981332 8882976 8779469 8688596 
1896.758 8621839 8578579 8546001 8507412 8450312 8374572 8291990 8219824 
1900.615 8170324 8142909 8124442 8096490 8045552 7970828 7885084 7807689 
1904.472 7754863 7730105 7723764 7717727 7697557 7658437 7608023 7560279 
1908.330 7527305 7511056 7503471 7490694 7462817 7420548 7375015 7340945 
1912.187 7328038 7334845 7349335 7356244 7344752 7315671 7280661 7255459 
1916.045 7250169 7263511 7282885 7292555 7283290 7259098 7235379 7230056 
1919.902 7252224 7296498 7344685 7374813 7373162 7340844 7294072 7255021 
1923.760 7241713 7258222 7295184 7336631 7372353 7403191 7441412 7502224 
1927.617 7593760 7710711 7835892 7948117 8033097 8091628 8137676 8190312 
1931.474 8261697 8350792 8442913 8519610 8567967 8588954 8595780 8606934 
1935.332 8633161 8672809 8711346 8731325 8723516 8693260 8657970 8638231 
1939.189 8646141 8677677 8714423 8732779 8717161 8667874 8600106 8533735 
1943.047 8481902 8442372 8399434 8335626 8243224 8131362 8023444 7946092 
1946.904 7913630 7922538 7951863 7975756 7974946 7948421 7909109 7876278 
1950.761 7861229 7859813 7854853 7827087 7767242 7683190 7596221 7530778 
1954.619 7499965 7499156 7507617 7502493 7473232 7428233 7392810 7395034 
1958.476 7451087 7554749 7682752 7805428 7906476 7991247 8083190 8209288 
1962.334 8383388 8598857 8831541 9053118 9245969 9413646 9574646 9751599 
1966.191 9952253 10164023 10355502 10494313 10561393 10560917 10514205 
1969.566 10448286 10376813 10292289 10171146 9987378 9730014 9411478 9062455 
1973.424 8719088 8407103 8130957 7880394 7642485 7419672 7232481 7114008 
1977.281 7087872 7153316 7277090 7409055 7499122 7519888 7474075 7387418 
1981.139 7291073 7205530 7132634 7059886 6973344 6869753 6762316 6674219 
1984.996 6628427 6632061 6674353 6731322 6780523 6812329 6835048 6867598 
1988.854 6927824 7021327 7136744 7253302 7354458 7438345 7521979 7632167 
1992.711 7788426 7992529 8224112 8451258 8643200 8787178 8892040 8981434 
1996.568 9078932 9194355 9316714 9421671 9480795 9477646 9413984 9305747 
2000.426 9173339 9028455 8870193 8688325 8475584 8235593 7988310 7761373 
2004.283 7579396 7449772 7360760 7286356 7203475 7105521 7006242 6931932 
2008.141 6905066 6931831 6995264 7065510 7112594 7124113 7106497 7080328 
2011.998 7065106 7068238 7079621 7079587 7051534 6993985 6921832 6860664 
2015.855 6831110 6837371 6865410 6891601 6898165 6884026 6866420 6870494 
2019.713 6916984 7005972 7119633 7229213 7314963 7375251 7430020 7508494 
2023.570 7633920 7809443 8015075 8217797 8387814 8513461 8604500 8682545 
2027.428 8768109 8866642 8965976 9045100 9086748 9090267 9073215 9063910 
2031.285 9084008 9139736 9217775 9294847 9352194 9385001 9404300 9429086 
2035.143 9472363 9531494 9588534 9620275 9612111 9566618 9503519 9447879 
2039.000 9419165 9419808 9436298 9447947 9441311 9417675 9395801 9399188 
2042.857 9444493 9532104 9645784 9761427 9859608 9936388 10002669 10077912 
2046.715 10176845 10300771 10435661 10560102 10653745 10707605 10725638 
2050.090 10718268 10696533 10664544 10621216 10564686 10498624 10435389 
2053.465 10392017 10383431 10414314 10474694 10544282 10600538 10630418 
2056.841 10634900 10627395 10624272 10636054 10660333 10683357 10687398 
2060.216 10660673 10603866 10529582 10455788 10395207 10350310 10312069 
2063.591 10267488 10206254 10127732 10040238 9956491 9884928 9825410 9770102 
2067.448 9710564 9643786 9576611 9523502 9499624 9511614 9554120 9611061 
2071.306 9662385 9695893 9709989 9714495 9723067 9746415 9785215 9831578 
2075.163 9873777 9903945 9923200 9940456 9966899 10008941 10064620 10124002 
2079.021 10175657 10212665 10237260 10259074 10290321 10337552 10398668 
2082.396 10463255 10518754 10557047 10578673 10591167 10605665 10629331 
2085.771 10661657 10695481 10722445 10738136 10746050 10755662 10777128 
2089.146 10814968 10864567 10913730 10947878 10957902 10944208 10916447 
2092.522 10888111 10870274 10867115 10875506 10888009 10899018 10907886 
2095.897 10918282 10934558 10957392 10980669 10994943 10991748 10968640 
2099.272 10931738 10892291 10862291 10846799 10842077 10837321 10821491 
2102.647 10788609 10741499 10689130 10642098 10605495 10575923 10544078 
2106.023 10499235 10437154 10361169 10282110 10210935 10153678 10107451 
2109.398 10062517 10007212 9935065 9847712 9754581 9666654 9590669 9525432 
2113.255 9463727 9396276 9317764 9230772 9144135 9069188 9012724 8974973 
2117.113 8949096 8926469 8900968 8871850 8843613 8822275 8810272 8805098 
2120.970 8799891 8788058 8767534 8742786 8722367 8714186 8721319 8739000 
2124.828 8757629 8767027 8762598 8747147 8729703 8719594 8721792 8734368 
2128.685 8749953 8760536 8763038 8760941 8763106 8778286 8809562 8853047 
2132.542 8899514 8940438 8973552 9004267 9043171 9099301 9173880 9258797 
2136.400 9338381 9399323 9435452 9451503 9459156 9470399 9490684 9516728 
2140.257 9538709 9547413 9541350 9527193 9517202 9521266 9540470 9564552 
2144.115 9578880 9569667 9533526 9478120 9419368 9370578 9335469 9304901 
2147.972 9263569 9197334 9102481 8988232 8871850 8769123 8683863 8607880 
2151.830 8523395 8414703 8276725 8118601 7958309 7814537 7695972 7599525 
2155.687 7514191 7433761 7364770 7330700 7361434 7477446 7675872 7927566 
2159.544 8186733 8408083 8567697 8665745 8721894 8759825 8796577 8836613 
2163.402 8876720 8913617 8950585 8999328 9073383 9178754 9307676 9439786 
2167.259 9549480 9619326 9646462 9643380 9630506 9626068 9635045 9649613 
2171.117 9653238 9632708 9587044 9530140 9483877 9469281 9496103 9558997 
2174.974 9641313 9724152 9795687 9854694 9907844 9962186 10019723 10075063 
2178.832 10119321 10147200 10161852 10174369 10198859 10243773 10305385 
2182.207 10369042 10416248 10434235 10423171 10396870 10374913 10374438 
2185.582 10400433 10444622 10490070 10522522 10535082 10533317 10529820 
2188.957 10537424 10561834 10600538 10643966 10683798 10717657 10750636 
2192.333 10791531 10847139 10917841 10997389 11076952 11150717 11220244 
2195.708 11293931 11381950 11488630 11610311 11734103 11844990 11932235 
2199.083 11994019 12038472 12078092 12123099 12175709 12229450 12274336 
2202.458 12302593 12313807 12315136 12316569 12326078 12344828 12366782 
2205.833 12382532 12386930 12380896 12372952 12372850 12387680 12416319 
2209.209 12451711 12484276 12507328 12522879 12538430 12564180 12605519 
2212.584 12660030 12717414 12765967 12797498 12811967 12817939 12827563 
2215.959 12850224 12887972 12935351 12983006 13024147 13056857 13084857 
2219.334 13114464 13149366 13187619 13222903 13248147 13260342 13263587 
2222.710 13267858 13283299 13316302 13364785 13419939 13470724 13509382 
2226.085 13535565 13555391 13577715 13608073 13646160 13685517 13717456 
2229.460 13735855 13740813 13736915 13731135 13727339 13723886 13714720 
2232.835 13693758 13658025 13611594 13563493 13522985 13496461 13482925 
2236.211 13475988 13467546 13452986 13434053 13417137 13409960 13416419 
2239.586 13434736 13457566 13476500 13486617 13489830 13493351 13505553 
2242.961 13532385 13573510 13622980 13673344 13718926 13759145 13797485 
2246.336 13839113 13886082 13936305 13983353 14021132 14047209 14064800 
2249.712 14081229 14104947 14141470 14190012 14245167 14300124 14350875 
2253.087 14397420 14443147 14491894 14543525 14592900 14631314 14649889 
2256.462 14645193 14620142 14584230 14548082 14520056 14502412 14492031 
2259.837 14483022 14470860 14455376 14440750 14432529 14434583 14447019 
2263.213 14465825 14486104 14504056 14519678 14536364 14558977 14590329 
2266.588 14630423 14676141 14723165 14768995 14813459 14858647 14906275 
2269.963 14956480 15005731 15049739 15084419 15109360 15128057 15147030 
2273.338 15172112 15206460 15249424 15297369 15346109 15394030 15442060 
2276.714 15493632 15552009 15617161 15685862 15752923 15813122 15864290 
2280.089 15907973 15948808 15991775 16039735 16092615 16147669 16201595 
2283.464 16252672 16301554 16349889 16399264 16448541 16494589 16532827 
2286.839 16559295 16573858 16578952 16579296 16579434 16581362 16584286 
2290.215 16585251 16581189 16571240 16557781 16544668 16535925 16533514 
2293.590 16536407 16541122 16544186 16543187 16538024 16530795 16523397 
2296.965 16516890 16510488 16502745 16492730 16481854 16473353 16471323 
2300.340 16479066 16497066 16522776 16551655 16579228 16603256 16624289 
2303.716 16644705 16667187 16692735 16720317 16746867 16769458 16787262 
2307.091 16801314 16815126 16831830 16854012 16881742 16913536 16947644 
2310.466 16982614 17018864 17057528 17099504 17144482 17190880 17236246 
2313.841 17279170 17319720 17359582 17401864 17448702 17500236 17554502 
2317.217 17608466 17659296 17706470 17751514 17797352 17847272 17903170 
2320.592 17964012 18027146 18088696 18144142 18189574 18221606 18237084 
2323.967 18233802 18210858 18170158 18116816 18059060 18006422 17967950 
2327.342 17949164 17950614 17968330 17995958 18026556 18055846 18082996 
2330.718 18109526 18138374 18170606 18206262 18243858 18281940 18319956 
2334.093 18358908 18400734 18446538 18496050 18547188 18597540 18645476 
2337.468 18691582 18738284 18788658 18844814 18906622 18971760 19036732 
2340.843 19098430 19155942 19209480 19260048 19306914 19347062 19375748 
2344.219 19388706 19384722 19367746 19346612 19334036 19342006 19379386 
2347.594 19450002 19552686 19682472 19831752 19992500 20156464 20314936 
2350.969 20460822 20587996 20693000 20775926 20840476 20892622 20938726 
2354.344 20983652 21029000 21073622 21115152 21151192 21181180 21206194 
2357.719 21227940 21247286 21263432 21274078 21277072 21271538 21259186 
2361.095 21243944 21230792 21223000 21222478 21229052 21241858 21260474 
2364.470 21286536 21322312 21370096 21430382 21501298 21578944 21659390 
2367.845 21740478 21822278 21906812 21996624 22092660 22193672 22296556 
2371.220 22397438 22493738 22585278 22673768 22761470 22849644 22938184 
2374.596 23024996 23107984 23185428 23257432 23325148 23390218 23453340 
2377.971 23514056 23570932 23622746 23669488 23712704 23755294 23800336 
2381.346 23849550 23903180 23960040 24018408 24077664 24138468 24202784 
2384.721 24272856 24349982 24433958 24523700 24617702 24715548 24817802 
2388.097 24926292 25041828 25163434 25287780 25409804 25523678 25625174 
2391.472 25712314 25785828 25847856 25900924 25946966 25986854 26021154 
2394.847 26050882 26077904 26104398 26132126 26161614 26191318 26218418 
2398.222 26240590 26256608 26267096 26274910 26282620 26292688 26305326 
2401.598 26319652 26333806 26347008 26359928 26374222 26392250 26415032 
2404.973 26441934 26470810 26498526 26522934 26543080 26559776 26574324 
2408.348 26588344 26602504 26617160 26632202 26648020 26665214 26684840 
2411.723 26707036 26730926 26754606 26776280 26794924 26811556 26828898 
2415.099 26849906 26876764 26909760 26946634 26983830 27019124 27051390 
2418.474 27082846 27116948 27156840 27204178 27257624 27313864 27368736 
2421.849 27419872 27466498 27510516 27554962 27602696 27655310 27713156 
2425.224 27775424 27840774 27908504 27977444 28046042 28112390 28173688 
2428.600 28228034 28274816 28316050 28355132 28396022 28441478 28491540 
2431.975 28543942 28594756 28640872 28681186 28717362 28752762 28791138 
2435.350 28834654 28883414 28935476 28988392 29040888 29093074 29146432 
2438.725 29202634 29262106 29324066 29386246 29447088 29505740 29563196 
2442.101 29621722 29683412 29749408 29819210 29891188 29964240 30037308 
2445.476 30111452 30188310 30269762 30355992 30446574 30539948 30635192 
2448.851 30732056 30831184 30933786 31040076 31148672 31256974 31361990 
2452.226 31461760 31556886 31650070 31745058 31845380 31952538 32065750 
2455.602 32182950 32301646 32420482 32539282 32658752 32779154 32899264 
2458.977 33016406 33127926 33231500 33327836 33419080 33509370 33602404 
2462.352 33699824 33800960 33903368 34003796 34100160 34192456 34281944 
2465.727 34370984 34460828 34552200 34644416 34736900 34829304 34922440 
2469.103 35017356 35114700 35214436 35315312 35415456 35513280 35609156 
2472.478 35704760 35802728 35905396 36014024 36127832 36245560 36365264 
2475.853 36485904 36607944 36732292 36859380 36989428 37120996 37252276 
2479.228 37381540 37508096 37632452 37755680 37879128 38002900 38126672 
2482.604 38249720 38371712 38493600 38617220 38744644 38877176 39015120 
2485.979 39156836 39300668 39444876 39589056 39733868 39880508 40029848 
2489.354 40181784 40335404 40489344 40643256 40797592 40954348 41115348 
2492.729 41281476 41452404 41625584 41798148 41967344 42131860 42292240 
2496.104 42450016 42606892 42764304 42922612 43081892 43242364 43404916 
2499.480 43570344 43739868 43913344 44089456 44266112 44440752 44611900 
2502.855 44779628 44945656 45111964 45280620 45452692 45627844 45805060 
2506.230 45983596 46163204 46344432 46527876 46713464 46900200 47086760 
2509.605 47271296 47452324 47629768 47803544 47974248 48141392 48304040 
2512.981 48460940 48611516 48756440 48898032 49039156 49182848 49330672 
2516.356 49483040 49638576 49795624 49953244 50111668 50271636 50433932 
2519.731 50598268 50763144 50926408 51086308 51242604 51396616 51551236 
2523.106 51708640 51869272 52031760 52192736 52348200 52495572 52634316 
2526.482 52766144 52894348 53021800 53150640 53281388 53413676 53547916 
2529.857 53685308 53828108 53979284 54140460 54312168 54492776 54679920 
2533.232 54871244 55065324 55262384 55463372 55669656 55882028 56100464 
2536.607 56324364 56553212 56786784 57025468 57269356 57517800 57769080 
2539.983 58020540 58268960 58511572 58746316 58972380 59188768 59394280 
2543.358 59586708 59763172 59920344 60055392 60166584 60252676 60312828 
2546.733 60345604 60348648 60318992 60253780 60151400 60012480 59839412 
2550.108 59636648 59409212 59161808 58898948 58624340 58341456 58053752 
2553.484 57764648 57476652 57191372 56909076 56628736 56348924 56068944 
2556.859 55789112 55510776 55235628 54965092 54700328 54441616 54189480 
2560.234 53945256 53711364 53491096 53288092 53105032 52942852 52801356 
2563.609 52679352 52575336 52488956 52420312 52370104 52338856 52326672 
2566.985 52333028 52357548 52399712 52460164 52539212 52637568 52754472 
2570.360 52888208 53036028 53194752 53361668 53535208 53714928 53901400 
2573.735 54095684 54298656 54511220 54734528 54969796 55218472 55481784 
2577.110 55760404 56053752 56360580 56678908 57006696 57342360 57684648 
2580.486 58032316 58383144 58734024 59080144 59415972 59736216 60036256 
2583.861 60312404 60562220 60783248 60972400 61126008 61239492 61307756 
2587.236 61326680 61293060 61204776 61061096 60862032 60608276 60301440 
2590.611 59944268 59540568 59095632 58615316 58106168 57573904 57024112 
2593.987 56461544 55891076 55317888 54747416 54184712 53634580 53100124 
2597.362 52583112 52084652 51605452 51146908 50711344 50300952 49918044 
2600.737 49563920 49237736 48937972 48662068 48408000 48173968 47959592 
2604.112 47764300 47587988 47430332 47290656 47168600 47063832 46976400 
2607.488 46905848 46851148 46810036 46779404 46756416 46738552 46724976 
2610.863 46716120 46713464 46718224 46730880 46751064 46777008 46807340 
2614.238 46840444 46875732 46912900 46951772 46991868 47032664 47073432 
2617.613 47114016 47155160 47198336 47244992 47296564 47352804 47412924 
2620.989 47475572 47539336 47603844 47669368 47736708 47806764 47879600 
2624.364 47955008 48032460 48111812 48193844 48279820 48371484 48469864 
2627.739 48575052 48685492 48799740 48915944 49033368 49152088 49273068 
2631.114 49397012 49524108 49653512 49783808 49913804 50043104 50172028 
2634.490 50301472 50432300 50564388 50696372 50826124 50951332 51070540 
2637.865 51183556 51291712 51396912 51501580 51607392 51714948 51824132 
2641.240 51934580 52045916 52158136 52271172 52385208 52500360 52616064 
2644.615 52731876 52847192 52961720 53075000 53187224 53297980 53406740 
2647.990 53512872 53615988 53715156 53810140 53900424 53986000 54066524 
2651.366 54141696 54211404 54275752 54334960 54389712 54440716 54488380 
2654.741 54533308 54575308 54614612 54650948 54684616 54715320 54742908 
2658.116 54767000 54787036 54802560 54813800 54821580 54827184 54832368 
2661.491 54838460 54845976 54854740 54863724 54871544 54877524 54881584 
2664.867 54884856 54888800 54894552 54902900 54912828 54922456 54929072 
2668.242 54929220 54919820 54898048 54861432 54807748 54735316 54642452 
2671.617 54528200 54392004 54233964 54055044 53857104 53642944 53416336 
2674.992 53182168 52946896 52716872 52499240 52300620 52126792 51982232 
2678.368 51870240 51792624 51750480 51743724 51771348 51830968 51919084 
2681.743 52030972 52161124 52303688 52453772 52606824 52759824 52910736 
2685.118 53058224 53201944 53342000 53479180 53614488 53749464 53885308 
2688.493 54022884 54162152 54302936 54443756 54583840 54722460 54858800 
2691.869 54992696 55123252 55249552 55369680 55481488 55583076 55672708 
2695.244 55749516 55813148 55863604 55900460 55923184 55930644 55921676 
2698.619 55895296 55850340 55786284 55702312 55597156 55469284 55316536 
2701.994 55136904 54928280 54689128 54418256 54114748 53777740 53406556 
2705.370 53000612 52559780 52084800 51577540 51040840 50478780 49896152 
2708.745 49298784 48692496 48084012 47480304 46888020 46313100 45760656 
2712.120 45233920 44735148 44265232 43825000 43414764 43034656 42684788 
2715.495 42364232 42071076 41802596 41555356 41326588 41113892 40916080 
2718.871 40732916 40563980 40408788 40265784 40133044 40008772 39891404 
2722.246 39780636 39676616 39580236 39492048 39412400 39340968 39277528 
2725.621 39221820 39173988 39134356 39103284 39080408 39064816 39055140 
2728.996 39050280 39049048 39051408 39057568 39068548 39084904 39107056 
2732.372 39134864 39168004 39205896 39247896 39293416 39341476 39390780 
2735.747 39439940 39487364 39532328 39574248 39613632 39651092 39687396 
2739.122 39723048 39758048 39792692 39827152 39862236 39899684 39941236 
2742.497 39988680 40043180 40105716 40176364 40255536 40343552 40440860 
2745.873 40548124 40665092 40791040 40924020 41061844 41202340 41343240 
2749.248 41483644 41622964 41761156 41898008 42033772 42168008 42300716 
2752.623 42431600 42560660 42687672 42812164 42932852 43048668 43158480 
2755.998 43261880 43359000 43451272 43540124 43626760 43711944 43795168 
2759.374 43875548 43951872 44022820 44087952 44146780 44199308 44245276 
2762.749 44284384 44316236 44340780 44358436 44370180 44377664 44382216 
2766.124 44385332 44387904 44391060 44395460 44402252 44412492 44427356 
2769.499 44447508 44473240 44504588 44541188 44582932 44629896 44682296 
2772.875 44740328 44803540 44871656 44943672 45018568 45096344 45177260 
2776.250 45262380 45352816 45449784 45553324 45663584 45779616 45900872 
2779.625 46026952 46157896 46294224 46435908 46583352 46735896 46893004 
2783.000 47053972 47217952 47384656 47553420 47723616 47894512 48065728 
2786.375 48237200 48409224 48582908 48759368 48939012 49121700 49306136 
2789.751 49490948 49674016 49854672 50032728 50209368 50386192 50564764 
2793.126 50746048 50930320 51117504 51307148 51499192 51693524 51890256 
2796.501 52088984 52289072 52489144 52688032 52885140 53080428 53274720 
2799.876 53469584 53665888 53864228 54064272 54264864 54464568 54662368 
2803.252 54857368 55049148 55238076 55424300 55607928 55789640 55969316 
2806.627 56147328 56324060 56499620 56673968 56846412 57016216 57182564 
2810.002 57344744 57502784 57656720 57806816 57953400 58096552 58235804 
2813.377 58371052 58502172 58629384 58753372 58874968 58994812 59113248 
2816.753 59230540 59346800 59462556 59578572 59696256 59816668 59941036 
2820.128 60070080 60203312 60340160 60479412 60619704 60759848 60898704 
2823.503 61035164 61168348 61297524 61422124 61541800 61655968 61764128 
2826.878 61865440 61958636 62042376 62115692 62178200 62230204 62272764 
2830.254 62307144 62334072 62353576 62364208 62363636 62349064 62318008 
2833.629 62269476 62203476 62121424 62025596 61918132 61800152 61671780 
2837.004 61531836 61378120 61207868 61018996 60810460 60582560 60337724 
2840.379 60079516 59812600 59541820 59271248 59003996 58741992 58486288 
2843.755 58237512 57996948 57765860 57546324 57339828 57147868 56970800 
2847.130 56808496 56660188 56525508 56404684 56298524 56208192 56135076 
2850.505 56079728 56042328 56022388 56019560 56033396 56064536 56112984 
2853.880 56179380 56263296 56363560 56478976 56607600 56747892 56898500 
2857.256 57058040 57225164 57398100 57574696 57752388 57929052 58102912 
2860.631 58273128 58439468 58601964 58760880 58915988 59066780 59212840 
2864.006 59353596 59488320 59616276 59736516 59847320 59947084 60033936 
2867.381 60106340 60163728 60206128 60234104 60248832 60251000 60240956 
2870.757 60218880 60184472 60137244 60077156 60003840 59917528 59818496 
2874.132 59707584 59586176 59456436 59321652 59184892 59049548 58918228 
2877.507 58792444 58672392 58557680 58447316 58340696 58237776 58138668 
2880.882 58044208 57955180 57872000 57794700 57723512 57657820 57597168 
2884.258 57540800 57487580 57436524 57386376 57336048 57285236 57233820 
2887.633 57181960 57129804 57077052 57022824 56965964 56905940 56842296 
2891.008 56775188 56705868 56635460 56564304 56492336 56417888 56339416 
2894.383 56254888 56162944 56062952 55955220 55840200 55719040 55592564 
2897.759 55461604 55326924 55189836 55051292 54912488 54774328 54637232 
2901.134 54501192 54365756 54230848 54095684 53960228 53823868 53685872 
2904.509 53545776 53402732 53256700 53108064 52957900 52807304 52657620 
2907.884 52509596 52363488 52219452 52077332 51937272 51799456 51663444 
2911.260 51527844 51389828 51245588 51090888 50922088 50737560 50537888 
2914.635 50325504 50103672 49875968 49644636 49410744 49174908 48937604 
2918.010 48700020 48464752 48234908 48013696 47803836 47606916 47423680 
2921.385 47254672 47099980 46959820 46834208 46722580 46623520 46534960 
2924.760 46455188 46383216 46319992 46267172 46227916 46204736 46199136 
2928.136 46210556 46237280 46276788 46326588 46385612 46453644 46531860 
2931.511 46622044 46725716 46844616 46979716 47132076 47301996 47490060 
2934.886 47695584 47917372 48153532 48401260 48657692 48919836 49184852 
2938.261 49449844 49712208 49968896 50216844 50452916 50673884 50876600 
2941.637 51058688 51217852 51352456 51462004 51547056 51609260 51651724 
2945.012 51678260 51692404 51697744 51696696 51690688 51681136 51669712 
2948.387 51658368 51650420 51648964 51656316 51673708 51700092 51733384 
2951.762 51770564 51809204 51847728 51886112 51924948 51965500 52008152 
2955.138 52052864 52098732 52144836 52190156 52234476 52277412 52319156 
2958.513 52359228 52397280 52432724 52465176 52494748 52521860 52547140 
2961.888 52570924 52593212 52613860 52632372 52648944 52664276 52679540 
2965.263 52695924 52714068 52733448 52752828 52770112 52783208 52790204 
2968.639 52790240 52783208 52769700 52750732 52727348 52700864 52672584 
2972.014 52643704 52614756 52586144 52557160 52526532 52492692 52454520 
2975.389 52411676 52365172 52316840 52269228 52224872 52185148 52150812 
2978.764 52121748 52097164 52076320 52059248 52045880 52036540 52031832 
2982.140 52032056 52037512 52048192 52064144 52084948 52110276 52139492 
2985.515 52171812 52206672 52243328 52281824 52322560 52365472 52410256 
2988.890 52456200 52501220 52543288 52580196 52610156 52632336 52646772 
2992.265 52653992 52655112 52651224 52643480 52633044 52621040 52608472 
2995.641 52595720 52582704 52568380 52551064 52529188 52501332 52467232 
2999.016 52427600 52383752 52337328 52289148 52239148 52186532 52130152 
3002.391 52068588 52001952 51930660 51856352 51780756 51705432 51631724 
3005.766 51560232 51491060 51424516 51360404 51298836 51239848 51183556 
3009.142 51130028 51079820 51033536 50991876 50955508 50924920 50899508 
3012.517 50878348 50859576 50841176 50821320 50798824 50772940 50744300 
3015.892 50713688 50682300 50651580 50622616 50596068 50571872 50549464 
3019.267 50527612 50504760 50479860 50452392 50422140 50390136 50356948 
3022.643 50322716 50286964 50248016 50203752 50152388 50092668 50024584 
3026.018 49949044 49867348 49780388 49688356 49590588 49485784 49373176 
3029.393 49252320 49124260 48990752 48854424 48717404 48581648 48448380 
3032.768 48318188 48191108 48066952 47945752 47827144 47711264 47598448 
3036.144 47489656 47386320 47290028 47202440 47124580 47056224 46996040 
3039.519 46941844 46891304 46842216 46792800 46741396 46686604 46626288 
3042.894 46557568 46477280 46382516 46271888 46145516 46005700 45855872 
3046.269 45700688 45544384 45390852 45243884 45106344 44981232 44870920 
3049.645 44777276 44700696 44640252 44594096 44559472 44533736 44514828 
3053.020 44501244 44492252 44487116 44484764 44483260 44480800 44475296 
3056.395 44465124 44449196 44427320 44399136 44364748 44324416 44278772 
3059.770 44228436 44175132 44120188 44065028 44010100 43954916 43898460 
3063.146 43839588 43777392 43712052 43644272 43575072 43505072 43434320 
3066.521 43361892 43286840 43208804 43128400 43047172 42967528 42891520 
3069.896 42820612 42755564 42696264 42642492 42594684 42553092 42518376 
3073.271 42490352 42467480 42446764 42424036 42394260 42352836 42295928 
3076.646 42220844 42126092 42010852 41875856 41722456 41553208 41372068 
3080.022 41184196 40994656 40808944 40631288 40464756 40311412 40172004 
3083.397 40046704 39935392 39837504 39752388 39679264 39617368 39566448 
3086.772 39526632 39498288 39481380 39474156 39473504 39473756 39467556 
3090.147 39447380 39405908 39338136 39241368 39114960 38960240 38779348 
3093.523 38575864 38353580 38117808 37874864 37631868 37395876 37173076 
3096.898 36967132 36779100 36607512 36449940 36302832 36163552 36030872 
3100.273 35904208 35783660 35669224 35560680 35457192 35357544 35260004 
3103.648 35163272 35065808 34966248 34863408 34756680 34645456 34529920 
3107.024 34410468 34287756 34162240 34034328 33904300 33772092 33638632 
3110.399 33504934 33372704 33243950 33120702 33004322 32895152 32793090 
3113.774 32696728 32603994 32512498 32419876 32323670 32223166 32118048 
3117.149 32009672 31900220 31791796 31686426 31584180 31484130 31384074 
3120.525 31282432 31178254 31072250 30966982 30865442 30770076 30682200 
3123.900 30600668 30523064 30447072 30370488 30293210 30216370 30142030 
3127.275 30072462 30008158 29948620 29891754 29835038 29775984 29712862 
3130.650 29644992 29572418 29495812 29416702 29336544 29257002 29179884 
3134.026 29106572 29037700 28972700 28910612 28849774 28788556 28725998 
3137.401 28661506 28594756 28525400 28452338 28374480 28290412 28199534 
3140.776 28102456 28000378 27896032 27791568 27688928 27588750 27491136 
3144.151 27395626 27302008 27210244 27120616 27033122 26947444 26862770 
3147.527 26778536 26694422 26611594 26531952 26457570 26389504 26327504 
3150.902 26269314 26211344 26150214 26083744 26011128 25933986 25854504 
3154.277 25774928 25696636 25619970 25544340 25469636 25395682 25323322 
3157.652 25253714 25187206 25123340 25060642 24997532 24932540 24865306 
3161.028 24796262 24726668 24657400 24588668 24519808 24449872 24377528 
3164.403 24302746 24225872 24148100 24070520 23993828 23917708 23841358 
3167.778 23764146 23685236 23604658 23522660 23439806 23356266 23272464 
3171.153 23188748 23105746 23024752 22947056 22873568 22804522 22738914 
3174.529 22674778 22609990 22543014 22473116 22401346 22329344 22259026 
3177.904 22191928 22128608 22068328 22010426 21953230 21895868 21837190 
3181.279 21776464 21713308 21647444 21579360 21510106 21441244 21374934 
3184.654 21312462 21254246 21199724 21147192 21094492 21039956 20982990 
3188.030 20923810 20863696 20803732 20744958 20688066 20632226 20577192 
3191.405 20522200 20467108 20411784 20356534 20301674 20247236 20193292 
3194.780 20139736 20086082 20031880 19976470 19918884 19858702 19796170 
3198.155 19732192 19668604 19608076 19552790 19504718 19464174 19430424 
3201.531 19402010 19377272 19354822 19334174 19315608 19299258 19285160 
3204.906 19273070 19262194 19251042 19237810 19220632 19197360 19165708 
3208.281 19123670 19069866 19004816 18930536 18850974 18771116 18695700 
3211.656 18627906 18569044 18517832 18471778 18428632 18386596 18345532 
3215.031 18306684 18271262 18239850 18212138 18185842 18158652 18128216 
3218.407 18093394 18054052 18011500 17967122 17922368 17878552 17836086 
3221.782 17795558 17757174 17720968 17686592 17653428 17620888 17588108 
3225.157 17555470 17523730 17494026 17467776 17445184 17425386 17406072 
3228.532 17384584 17358618 17327444 17291964 17254554 17218078 17184744 
3231.908 17155306 17128800 17103330 17076792 17047500 17015142 16980032 
3235.283 16942822 16904270 16864278 16822566 16778792 16732542 16684679 
3238.658 16635684 16586663 16538471 16491456 16445203 16399195 16352711 
3242.033 16304994 16255595 16204277 16151348 16097428 16043207 15990091 
3245.409 15938839 15890205 15843809 15798792 15753713 15707126 15658312 
3248.784 15607373 15555821 15505479 15458163 15415178 15376660 15341853 
3252.159 15309348 15277360 15244860 15210577 15174377 15136052 15095981 
3255.534 15054335 15012111 14970096 14929354 14890468 14853984 14819596 
3258.910 14786342 14753364 14719258 14683167 14644542 14602905 14557984 
3262.285 14509675 14457877 14403140 14346732 14290331 14236403 14186794 
3265.660 14143148 14105803 14074314 14047414 14023322 14000873 13978529 
3269.035 13955056 13929531 13900621 13867369 13829809 13788455 13744951 
3272.411 13701589 13660830 13623698 13590945 13561374 13533240 13504869 
3275.786 13474894 13442973 13409755 13376164 13343293 13311827 13281967 
3279.161 13253715 13226797 13200563 13174469 13147624 13119483 13089569 
3282.536 13057881 13025239 12992805 12961772 12932995 12906234 12880600 
3285.912 12854524 12826948 12797361 12766752 12737033 12710488 12688722 
3289.287 12671902 12658802 12647101 12634172 12618106 12597946 12574174 
3292.662 12547673 12519776 12491198 12462350 12432958 12402886 12371964 
3296.037 12340976 12310910 12282960 12258453 12238482 12223111 12212785 
3299.413 12206787 12204266 12204505 12206549 12209889 12213978 12218716 
3302.788 12223555 12227474 12228939 12225566 12214933 12195030 12164737 
3306.163 12124632 12076116 12021474 11962990 11902505 11840631 11777984 
3309.538 11714700 11651628 11590029 11531501 11477676 11429096 11385726 
3312.914 11346169 11308520 11271385 11233913 11195492 11156769 11117742 
3316.289 11078550 11039225 10999496 10959092 10918452 10877918 10837865 
3319.664 10798596 10759873 10721290 10682610 10643864 10605699 10568861 
3323.039 10534064 10501510 10470348 10439089 10406067 10370026 10330664 
3326.415 10288727 10245504 10202726 10161513 10122543 10085305 10049495 
3329.790 10014265 9979512 9945337 9912115 9880624 9851643 9825580 9802940 
3333.647 9784334 9770406 9760918 9755936 9754581 9755462 9756174 9753870 
3337.505 9746144 9730523 9705516 9670889 9628067 9579252 9527735 9477239 
3341.362 9430237 9388183 9351009 9317189 9284319 9250572 9214797 9177434 
3345.219 9140074 9104985 9074466 9049904 9031533 9018407 9008327 8998889 
3349.077 8986880 8969595 8944361 8909186 8863733 8808716 8746471 8680855 
3352.934 8615891 8555362 8502242 8458049 8423217 8397644 8380990 8373086 
3356.792 8373829 8381970 8395313 8410751 8423859 8430311 8427609 8414940 
3360.649 8393759 8367884 8341166 8317759 8300129 8289424 8286147 8289220 
3364.507 8297697 8310194 8325122 8340794 8354880 8364911 8368593 8363831 
3368.364 8349104 8323434 8286654 8239342 8183019 8120425 8055476 7993204 
3372.221 7938162 7893991 7863119 7844597 7835825 7832822 7831473 7828268 
3376.079 7821554 7810826 7796961 7781275 7764780 7748184 7732196 7717153 
3379.936 7703021 7690036 7677996 7665991 7653783 7640361 7625692 7610181 
3383.794 7595007 7580744 7568471 7558053 7549254 7541566 7535329 7531351 
3387.651 7531149 7536341 7547197 7562706 7579834 7594400 7602223 7599930 
3391.509 7586342 7562301 7530710 7495009 7458906 7425705 7397023 7374038 
3395.366 7357592 7347819 7345123 7349437 7360187 7375858 7394529 7413268 
3399.223 7428739 7437974 7438278 7428099 7407134 7376532 7338552 7296330 
3403.081 7253201 7212234 7175952 7145501 7121418 7103432 7090870 7082281 
3406.938 7076792 7072885 7068911 7063961 7056989 7047863 7037154 7025738 
3410.796 7014559 7004221 6994288 6984287 6972873 6959473 6943715 6926646 
3414.653 6909409 6893452 6879414 6867531 6856961 6846459 6835183 6822258 
3418.510 6807449 6791259 6773994 6756225 6738221 6720419 6703526 6688082 
3422.368 6674656 6663284 6653527 6644005 6633003 6619411 6602119 6581295 
3426.225 6558253 6534202 6510691 6488762 6468414 6448976 6429976 6410942 
3430.083 6391439 6372273 6354218 6337844 6324093 6312763 6303014 6293331 
3433.940 6281599 6265464 6242942 6212858 6175215 6131829 6085187 6038685 
3437.798 5995178 5956781 5923695 5895514 5870526 5847655 5825693 5805242 
3441.655 5786371 5769985 5756050 5743762 5731238 5716567 5697833 5673293 
3445.512 5642511 5605957 5564809 5521349 5477659 5436691 5400792 5371371 
3449.370 5349030 5333533 5323201 5315956 5309952 5303713 5296636 5288788 
3453.227 5280671 5272421 5263801 5253874 5241767 5226676 5208433 5187576 
3457.085 5165177 5142209 5119276 5096344 5073179 5049345 5024908 5000004 
3460.942 4975704 4953048 4933409 4917592 4906500 4900602 4899831 4903785 
3464.800 4911626 4921781 4932404 4941251 4946815 4947820 4943999 4935755 
3468.657 4923758 4908812 4891454 4872722 4853690 4835731 4820654 4809967 
3472.514 4804506 4803769 4806951 4812077 4817672 4823937 4831744 4843002 
3476.372 4860392 4885489 4918362 4958042 5002116 5047870 5093159 5136510 
3480.229 5177349 5216582 5255719 5296804 5342556 5396029 5459137 5533263 
3484.087 5617940 5710087 5805108 5896992 5979994 6049672 6103937 6142213 
3487.944 6165973 6176929 6176291 6164696 6142179 6108239 6062641 6005828 
3491.802 5937836 5859074 5769850 5670306 5561319 5444475 5322262 5198105 
3495.659 5075660 4957740 4846386 4742899 4647842 4562215 4486849 4422643 
3499.516 4369759 4327054 4291615 4259090 4225297 4186554 4141191 4090214 
3503.374 4036835 3985001 3938255 3899504 3869015 3846450 3829903 3817635 
3507.231 3807574 3797947 3787418 3774985 3760178 3743367 3725488 3708878 
3511.089 3694676 3684083 3677366 3673356 3670382 3666640 3660592 3651303 
3514.946 3638372 3621699 3601185 3576997 3549703 3520541 3491714 3466096 
3518.803 3446525 3434969 3431997 3436305 3445689 3456778 3466096 3471674 
3522.661 3471908 3466230 3455074 3439077 3418104 3392390 3361936 3326408 
3526.518 3286477 3243178 3197881 3153188 3112172 3077600 3052273 3037958 
3530.376 3034421 3039960 3051539 3065219 3076999 3084274 3085275 3080169 
3534.233 3070025 3056043 3039860 3022443 3004126 2985242 2966326 2948078 
3538.091 2931465 2917822 2907881 2902944 2903245 2908915 2919356 2933767 
3541.948 2950313 2966659 2980571 2988845 2989446 2981072 2963190 2936769 
3545.805 2904079 2867621 2831234 2798018 2770940 2751667 2741030 2737962 
3549.663 2740530 2745865 2750700 2752600 2750166 2743297 2732728 2720124 
3553.520 2706620 2692884 2679248 2666046 2653478 2642477 2634076 2628576 
3557.378 2625776 2624009 2621275 2614875 2603675 2587576 2568243 2548812 
3561.235 2532581 2522150 2519284 2523783 2534481 2548779 2563477 2574376 
3565.093 2577443 2568443 2544513 2505253 2453601 2395625 2339089 2291621 
3568.950 2258080 2239861 2234999 2239295 2247988 2256714 2262643 2264741 
3572.807 2263242 2258846 2252418 2244291 2234666 2223176 2210521 2196667 
3576.665 2182780 2169593 2158171 2149014 2142720 2139158 2138492 2140590 
3580.522 2144718 2150712 2158571 2168727 2182047 2199597 2221810 2247722 
3584.380 2274933 2298183 2311541 2308709 2285326 2240627 2178517 2107126 
3588.237 2037013 1977627 1935956 1914789 1913159 1926737 1949735 1976662 
3592.094 2001594 2019935 2029389 2029156 2020501 2007020 1992107 1979225 
3595.952 1970005 1964913 1962250 1960319 1956858 1950534 1940649 1927769 
3599.809 1912194 1895088 1877783 1861477 1847768 1839116 1836887 1843376 
3603.667 1859148 1883840 1915455 1950201 1983519 2009349 2022731 2019702 
3607.524 1998864 1962583 1916520 1869331 1828701 1800819 1787278 1785647 
3611.382 1790172 1793799 1791636 1782254 1768480 1756636 1754075 1766018 
3615.239 1793366 1832528 1875653 1913858 1937620 1940117 1919083 1876752 
3619.096 1818786 1753942 1691036 1636953 1595913 1569974 1558369 1560198 
3622.954 1574032 1599006 1634958 1681889 1738306 1801085 1863108 1913957 
3626.811 1939751 1926638 1865005 1756403 1617032 1473682 1357267 1287673 
3630.669 1269130 1292791 1342743 1401708 1455297 1495425 1519764 1531202 
3634.526 1535292 1536921 1539083 1542341 1545068 1545700 1544336 1541643 
3638.384 1539482 1539149 1540479 1542109 1542208 1539149 1533796 1528575 
3642.241 1527578 1535259 1554811 1587034 1630368 1680957 1733249 1781389 
3646.098 1819318 1841945 1844207 1822945 1776598 1705606 1614072 1509789 
3649.956 1404135 1310704 1242812 1208886 1212275 1249624 1311933 1385753 
3653.813 1457125 1512748 1542275 1541809 1515674 1475144 1434918 1407825 
3657.671 1400744 1413642 1440968 1474513 1507927 1535957 1556075 1568478 
3661.528 1574131 1573799 1568944 1560896 1551785 1545068 1545035 1555276 
3665.385 1578820 1615801 1663029 1714554 1761161 1792701 1799455 1775467 
3669.243 1721107 1646499 1570507 1513812 1493896 1517403 1578355 1660867 
3673.100 1742065 1798523 1808704 1761893 1663329 1537719 1419260 1336328 
3676.958 1302296 1312166 1350221 1398684 1444858 1482226 1511119 1535924 
3680.815 1561628 1591291 1625180 1661466 1699019 1738439 1782287 1834125 
3684.673 1895055 1962350 2028291 2083021 2114818 2115983 2085252 2029422 
3688.530 1961851 1897650 1848300 1817987 1804978 1803847 1809503 1819152 
3692.387 1831630 1846836 1863873 1881111 1895554 1904939 1907934 1905405 
3696.245 1900080 1895787 1895221 1899581 1907335 1914956 1917186 1909298 
3700.102 1887966 1852160 1804412 1749750 1695893 1650058 1618362 1603795 
3703.960 1606489 1623750 1650723 1683053 1716417 1748086 1776964 1802915 
3707.817 1825407 1843176 1852892 1849232 1827038 1782287 1714687 1629703 
3711.675 1537819 1452570 1387049 1350321 1344637 1366707 1408390 1459851 
3715.532 1511651 1556374 1589628 1610879 1622586 1628738 1633860 1640911 
3719.389 1650390 1660768 1669715 1675336 1677698 1678862 1681922 1689972 
3723.247 1704009 1721506 1737474 1745824 1741599 1722837 1692666 1658539 
3727.104 1630834 1618462 1626543 1654614 1697024 1744327 1786046 1814028 
3730.962 1824209 1818487 1803447 1787943 1778494 1775400 1772838 1760429 
3734.819 1729723 1677299 1608451 1536555 1477638 1443661 1439339 1462311 
3738.677 1506032 1563723 1631166 1706836 1789806 1876918 1960419 2025228 
3742.534 2052193 2022931 1929000 1783085 1619958 1487479 1422518 1434718 
3746.391 1509357 1617929 1730621 1820483 1870595 1874289 1835323 1765452 
3750.249 1679061 1588298 1501277 1423615 1361389 1321272 1309607 1328717 
3754.106 1374717 1438807 1508858 1574231 1626444 1661832 1681190 1687876 
3757.964 1684982 1674105 1655878 1630667 1601933 1576326 1561528 1564155 
3761.821 1585937 1622253 1663961 1699951 1721007 1723269 1709697 1687843 
3765.678 1667819 1656710 1655745 1660635 1663295 1655911 1633561 1596047 
3769.536 1548293 1498451 1455163 1424047 1408024 1406030 1415005 1431061 
3773.393 1450543 1470357 1488909 1506264 1523355 1541610 1561196 1580616 
3777.251 1596047 1602764 1596412 1575994 1545068 1511584 1484985 1473216 
3781.108 1478868 1499149 1526879 1553381 1571803 1579319 1577324 1570108 
3784.966 1563058 1559766 1560630 1564155 1567647 1569576 1570141 1570773 
3788.823 1573300 1578321 1585538 1593286 1600370 1607254 1615335 1626776 
3792.680 1642707 1661799 1679893 1691335 1691402 1677897 1654315 1628805 
3796.538 1612209 1613673 1637120 1679061 1730056 1775966 1801518 1794531 
3800.395 1749417 1671145 1575661 1487313 1428568 1412346 1438707 1496157 
3804.253 1567181 1631432 1670613 1673740 1638550 1574796 1501277 1440403 
3808.110 1406861 1406263 1433721 1479300 1533131 1587899 1641244 1693963 
3811.968 1747987 1802848 1854190 1893324 1909365 1892858 1840680 1760263 
3815.825 1670513 1596512 1558535 1565918 1614138 1686645 1760529 1813263 
3819.682 1826139 1789939 1710096 1606323 1508492 1442231 1421687 1445090 
3823.540 1499482 1565951 1626942 1670846 1692500 1695028 1686911 1679095 
3827.397 1680192 1693531 1717415 1746456 1774701 1796959 1810801 1816224 
3831.255 1815625 1811799 1808305 1808372 1814627 1828868 1851029 1878748 
3835.112 1906836 1927769 1933493 1917585 1878915 1821980 1756869 1696292 
3838.969 1649858 1622918 1614271 1619193 1630734 1643173 1652087 1654714 
3842.827 1650656 1640279 1625812 1610413 1598674 1595481 1604826 1628905 
3846.684 1666854 1716450 1774102 1836122 1901810 1971403 2045202 2121677 
3850.542 2193803 2248421 2267306 2230137 2124207 1954162 1748619 1549790 
3854.399 1398551 1316487 1301764 1338389 1405132 1484786 1565419 1640778 
3858.257 1708899 1769378 1822280 1866536 1901611 1926804 1942746 1951167 
3862.114 1953263 1949269 1938220 1918983 1892758 1864772 1844573 1841845 
3865.971 1864073 1911195 1974465 2037845 2083488 2094907 2064045 1996035 
3869.829 1909431 1830265 1780324 1769312 1792601 1835889 1880712 1912293 
3873.686 1923110 1914457 1895587 1878915 1875687 1890728 1923010 1965578 
3877.544 2008850 2043504 2061281 2058618 2036613 2001926 1964680 1936622 
3881.401 1927270 1940316 1973167 2017006 2059584 2086817 2087316 2056154 
3885.259 1997965 1927070 1862576 1822479 1816091 1841911 1889131 1942613 
3889.116 1986015 2005721 1994903 1954761 1895188 1830265 1774801 1739204 
3892.973 1727494 1738173 1765652 1804878 1850696 1899348 1948337 1995169 
3896.831 2036713 2070304 2093143 2103730 2103031 2093942 2080458 2066808 
3900.688 2054823 2043504 2030488 2011846 1985250 1950601 1911461 1873524 
3904.546 1843475 1826738 1825374 1839349 1865604 1900346 1939651 1980756 
3908.403 2021200 2059484 2094907 2126938 2155574 2181881 2206757 2232168 
3912.260 2259645 2289456 2320901 2351482 2377168 2393726 2397724 2387363 
3916.118 2363509 2329429 2289323 2248521 2210687 2178284 2152144 2132465 
3919.975 2119046 2111855 2110722 2114884 2122010 2129302 2133197 2130634 
3923.833 2120145 2102998 2082189 2062347 2047699 2040475 2040708 2046267 
3927.690 2054157 2061914 2068273 2073167 2077761 2082689 2087549 2090579 
3931.548 2088815 2079792 2062913 2040142 2015208 1992906 1977461 1970771 
3935.405 1972435 1980190 1991008 2001694 2011014 2018970 2026493 2034782 
3939.262 2044736 2055455 2065909 2074199 2078494 2078560 2075098 2069704 
3943.120 2065310 2064078 2067440 2075531 2087416 2100401 2112054 2119313 
3946.977 2120245 2114219 2101999 2085685 2067940 2051627 2038377 2029090 
3950.835 2023930 2022032 2023264 2027325 2034050 2043304 2054690 2066775 
3954.692 2078194 2087749 2094608 2099302 2103331 2108025 2114984 2124407 
3958.550 2135462 2146583 2156273 2163033 2166529 2167695 2167395 2166896 
3962.407 2167162 2168128 2169493 2170692 2171258 2171025 2169992 2168161 
3966.264 2165830 2163166 2160202 2157039 2153676 2149980 2145817 2141022 
3970.122 2135495 2129502 2124074 2120112 2118947 2121111 2126438 2133597 
3973.979 2140590 2145451 2146750 2144286 2138891 2131899 2125240 2119912 
3977.837 2116150 2113719 2112287 2111821 2112554 2114785 2118913 2124174 
3981.694 2129402 2132498 2131766 2126738 2117049 2104596 2091578 2080524 
3985.552 2072701 2069105 2069205 2071835 2075997 2080957 2086118 2092144 
3989.409 2099336 2108591 2120245 2134496 2150446 2167428 2183679 2197766 
3993.266 2208522 2215516 2218946 2219346 2218247 2216082 2213718 2210787 
3997.124 2206491 2200629 2192770 2183379 2173289 2164231 2156673 2151278 
##END=
