
##TITLE=Z140a_3_b
##JCAMP-DX=5.01  $$ Nicolet v. 1
##DATATYPE=INFRARED SPECTRUM
##ORIGIN=UniL
##OWNER=Nicolet
##LONGDATE=2011/09/20
##TIME=11:19:21
##SPECTROMETER/DATA SYSTEM=Nicolet iS5
##DATA PROCESSING=
Ratio against background
%Transmittance->Absorbance
Truncated
ElementMultiply or ElementDivide
##COMMENTS=
Number of sample scans: 32
Collection length: 51.17 sec
Sample gain: 2.0
Background collected on: Mar Sep 20 11:15:18 2011 (GMT+02:00);
Number of background scans: 32
Background gain: 2.0
Sample spacing:  1.000
Number of scan points: 12415
Resolution points: 8192
Number of FFT points: 65536
Apodization: N-B fort;
Phase correction: Mertz;
Laser frequency: 15798.0 cm-1
Number of rejected sample scans: 0
Number of rejected background scans: 0
Bench serial number: ASB1000141;
##RESOLUTION=4.000
##XUNITS=1/CM
##YUNITS=ABSORBANCE
##FIRSTX=649.893372
##LASTX=4000.122314
##FIRSTY=0.086376
##MAXX=4000.122314
##MINX=649.893372
##MAXY=0.624996
##MINY=-0.003054
##XFACTOR=1.000000
##YFACTOR=1.000000E-009
##NPOINTS=6950
##DELTAX=0.482117
##ZPD=6100
##XYDATA=(X++(Y..Y))
649.893 86375984 82126104 78857504 76544200 75104184 74409880 74293880 
653.268 74591248 75173792 75969176 76970320 78211080 79733104 81556272 
656.643 83676200 86081056 88780480 91827088 95315184 99349264 104032776 
660.018 109450360 115678808 122830400 131061568 140542832 151401824 
662.911 163617552 176968144 190976304 204994864 218250640 229730784 
665.803 238222448 242233184 240197792 231249440 216032928 196903968 
668.696 176808064 158033696 141599648 127514336 115393520 104841560 95608056 
672.071 87623064 80896520 75409960 71072560 67706040 65104776 63075916 
675.446 61490528 60277916 59392612 58788648 58404556 58168256 58023908 
678.820 57946132 57942684 58036216 58242664 58553164 58934848 59344900 
682.195 59753472 60157220 60579476 61054652 61607620 62241864 62939920 
685.570 63675852 64431444 65207952 66023952 66906272 67873832 68929352 
688.945 70061768 71256952 72510480 73835496 75261616 76825320 78562880 
692.320 80501072 82663016 85075720 87776784 90820744 94274592 98204416 
695.694 102674320 107740184 113455616 119890944 127149536 135379872 
698.587 144799344 155679744 168326336 183044560 200045904 219340384 
701.480 240544288 262789248 284543808 303561024 317327744 323416704 
704.373 320235808 307646656 286996800 260757776 231686416 202407392 
707.265 174915504 150384704 129422528 112105800 98175960 87211768 78724424 
710.640 72240360 67312008 63565836 60700972 58473016 56712172 55302648 
714.015 54166356 53255280 52531432 51959264 51506208 51142848 50848552 
717.390 50614796 50440408 50327332 50273868 50272492 50311256 50380348 
720.765 50475096 50598940 50760204 50966608 51219752 51514824 51841196 
724.139 52189036 52552712 52932672 53332484 53755200 54199428 54659364 
727.514 55127540 55599416 56076976 56568796 57086872 57641056 58235468 
730.889 58867908 59531828 60221920 60937284 61683008 62468568 63303820 
734.264 64195372 65146468 66157168 67227904 68361360 69564232 70845640 
737.639 72216960 73689192 75273792 76983056 78830328 80830536 82999904 
741.013 85353184 87906296 90676680 93686552 96967664 100564248 104532744 
744.388 108947304 113895176 119474464 125802440 133006424 141225392 
747.281 150615104 161337120 173557616 187438048 203112400 220648944 
750.174 239974688 260827040 282613568 304320576 324604672 341759712 
753.066 354017632 359969056 358781376 350457248 335753664 315994432 
755.959 292735968 267468928 241554032 216054704 191750672 169241168 
758.852 148909456 130990792 115612432 102758688 92303016 84016368 77607056 
762.227 72749544 69122624 66460028 64534992 63168944 62229284 61603460 
765.601 61199972 60952080 60810652 60748836 60756304 60829100 60962180 
768.976 61146412 61368808 61619804 61898644 62215364 62585512 63024728 
772.351 63541896 64135724 64798372 65521544 66302592 67146256 68062136 
775.726 69058760 70139288 71300832 72537184 73845320 75229624 76702192 
779.101 78280312 79980760 81816048 83796216 85932296 88242936 90761200 
782.475 93533768 96620312 100094280 104034000 108525872 113660208 119514520 
785.850 126136568 133510200 141534144 149984512 158512880 166703936 
788.743 174078736 180190624 184710208 187449024 188405184 187736512 
791.636 185733568 182741392 179100432 175139104 171128464 167295440 
794.528 163846096 160950896 158762000 157418336 157033056 157711568 
797.421 159554336 162652592 167095408 172953616 180259168 188969424 
800.314 198917936 209790656 221024048 231800672 241115632 247757392 
803.206 250571168 248696096 241715152 229841744 213863312 195020304 
806.099 174691168 154191872 134647184 116799096 101084984 87674632 76517720 
809.474 67445816 60221768 54594396 50308504 47125092 44842224 43277944 
812.849 42283916 41748792 41579896 41705128 42067064 42612372 43296652 
816.224 44085088 44951424 45880584 46864804 47898840 48976956 50090884 
819.598 51231980 52394628 53579216 54792788 56045876 57348752 58707660 
822.973 60123084 61592120 63112272 64684720 66316256 68017536 69799504 
826.348 71672320 73644080 75723512 77925224 80272928 82800792 85556128 
829.723 88591904 91966616 95744024 99988736 104772184 110176120 116289408 
833.098 123216096 131074024 139984448 150068896 161421920 174079968 
835.990 187960480 202802080 218138032 233188688 246912768 258111536 
838.883 265474736 267910368 264774912 256031984 242319616 224799552 
841.776 204955632 184216544 163833536 144784032 127663416 112804952 
844.669 100305200 90070408 81892256 75488608 70566104 66831604 64028240 
848.043 61955008 60444644 59370732 58639280 58171288 57906108 57798108 
851.418 57811736 57922996 58115448 58375068 58690216 59049812 59444888 
854.793 59871468 60329996 60824756 61360068 61937200 62551528 63194320 
858.168 63853792 64519464 65185076 65848052 66507792 67163392 67811000 
861.543 68444632 69057520 69644744 70205736 70743736 71264760 71774880 
864.917 72277728 72774464 73264200 73746088 74220600 74689576 75155752 
868.292 75621680 76088816 76558280 77032072 77513688 78009192 78525712 
871.667 79069000 79643184 80249168 80886376 81554592 82256264 82996136 
875.042 83782032 84621688 85521752 86487816 87525296 88642008 89851120 
878.417 91170768 92625280 94241944 96045416 98054104 100272976 102687288 
881.792 105253488 107893504 110503256 112945760 115075768 116766744 
884.684 117920048 118493416 118503864 118024656 117164408 116045312 
887.577 114789448 113493864 112233248 111066256 110039024 109197680 
890.470 108591128 108262672 108247152 108561904 109202960 110147808 
893.362 111361696 112808904 114455440 116275336 118251248 120370992 
896.255 122626048 125011552 127524824 130168032 132947880 135876448 
899.148 138968336 142238672 145701520 149367632 153244736 157339024 
902.040 161656032 166203456 170992144 176036848 181357888 186983024 
904.933 192946688 199295552 206088848 213396624 221304176 229905936 
907.826 239297952 249579792 260844288 273176032 286647552 301313152 
910.719 317197440 334261856 352386784 371317440 390599360 409603200 
913.611 427473504 443165408 455610432 463766880 466800768 464259616 
916.504 456120672 442844032 425278976 404581312 382018304 358767168 
919.397 335903360 314256800 294395840 276717696 261409904 248505280 
922.289 237926624 229497616 222977328 218076528 214501680 211960512 
925.182 210174112 208911488 207968544 207174224 206398368 205531072 
928.075 204487344 203209040 201656816 199811792 197671760 195243760 
930.967 192539840 189572992 186357744 182911440 179256256 175421184 
933.860 171438176 167339616 163156352 158914368 154636832 150346944 
936.753 146066608 141818576 137624048 133499112 129455832 125502688 
939.646 121645664 117893312 114255992 110744088 107367688 104132360 
942.538 101039112 98085504 95267568 92582344 90028624 87606480 85315760 
945.913 83154768 81120520 79209344 77418240 75745328 74189704 72749464 
949.288 71420720 70197592 69072624 68039736 67094752 66236316 65464600 
952.663 64778828 64176136 63650840 63196116 62806232 62479132 62216476 
956.037 62023264 61905712 61869644 61919964 62061220 62300568 62648124 
959.412 63118980 63733832 64516352 65495692 66708148 68194936 70008736 
962.787 72211168 74863424 78025688 81741728 86027216 90858400 96162576 
966.162 101820504 107650848 113432088 118922200 123857576 128002184 
969.055 131160464 133181720 133979080 133519944 131822376 128949448 
971.947 125009208 120157800 114583592 108519488 102228440 95965568 89985040 
975.322 84501888 79661928 75552432 72189568 69534408 67509096 66017940 
978.697 64966492 64262488 63829152 63604192 63534804 63582748 63720704 
982.072 63930028 64200604 64525732 64899540 65315112 65764776 66240952 
985.447 66739292 67258896 67802352 68373104 68974008 69605384 70265752 
988.821 70953464 71668768 72414752 73197208 74022960 74897880 75826952 
992.196 76815080 77868248 78997456 80218040 81551152 83023936 84665856 
995.571 86509528 88587032 90921712 93520984 96361616 99384960 102483864 
998.946 105513856 108322104 110761744 112737504 114230560 115311280 
1001.839 116129592 116882608 117797520 119076600 120876520 123307280 
1004.731 126423912 130244272 134762592 139963088 145822576 152305744 
1007.624 159362672 166907152 174800576 182856064 190807472 198316576 
1010.517 205010208 210462128 214254784 216041312 215565552 212734656 
1013.409 207637920 200553632 191901104 182173392 171904288 161563696 
1016.302 151539696 142138096 133551120 125889360 119195080 113452216 
1019.195 108608320 104586784 101305416 98680152 96633760 95102256 94028320 
1022.570 93363704 93069408 93110592 93458856 94091232 94984936 96116224 
1025.945 97457240 98969656 100607056 102316000 104033616 105700408 107261544 
1029.320 108672744 109910248 110972952 111886848 112700392 113485952 
1032.213 114330832 115320104 116533552 118027648 119823656 121901840 
1035.106 124195496 126600208 128966032 131120712 132889416 134097856 
1037.999 134608560 134332992 133237688 131350800 128752592 125566752 
1040.892 121929480 117979304 113841776 109611624 105363440 101155072 
1043.785 97032424 93042072 89231512 85643856 82319096 79286256 76560288 
1047.160 74144784 72031528 70203784 68635912 67297384 66154860 65173028 
1050.536 64321004 63574388 62915260 62333344 61822500 61377548 60992608 
1053.911 60660392 60373056 60124568 59911408 59732640 59588148 59477108 
1057.286 59396868 59343116 59311244 59298216 59303308 59328488 59376504 
1060.661 59449408 59547904 59671736 59820436 59995548 60200836 60441864 
1064.037 60725588 61057512 61442012 61882216 62380852 62941224 63568020 
1067.412 64265640 65037996 65886884 66811740 67810104 68879296 70017504 
1070.787 71224152 72499712 73845360 75261976 76750664 78313328 79953880 
1074.162 81678944 83498384 85426184 87478352 89674712 92038816 94596840 
1077.538 97380648 100426648 103773632 107463368 111535920 116022632 
1080.431 120940472 126280128 131999656 138007888 144164288 150290704 
1083.324 156162544 161548208 166234944 170040176 172852000 174640448 
1086.217 175469856 175490896 174933232 174095792 173288592 172828656 
1089.110 173011552 174064336 176152464 179351008 183632192 188843744 
1092.003 194689072 200751120 206441952 211067552 213931872 214369936 
1094.896 211931200 206474656 198202112 187630992 175479824 162585440 
1097.789 149708752 137474624 126344216 116556096 108185000 101175024 
1100.682 95389592 90651240 86772088 83584608 80932528 78680256 76720144 
1104.057 74961184 73336800 71805400 70342536 68938624 67592592 66307648 
1107.433 65089688 63947572 62895416 61950380 61129824 60448264 59911900 
1110.808 59518300 59257804 59119020 59091572 59168036 59343304 59610500 
1114.183 59958912 60374464 60841332 61347056 61885996 62459392 63072384 
1117.558 63730448 64435484 65185232 65975896 66806212 67679744 68605408 
1120.934 69595112 70658264 71799696 73018616 74310824 75671960 77099896 
1124.309 78594912 80159776 81799088 83521632 85346408 87309344 89465024 
1127.684 91895248 94706192 98019976 101989016 106784792 112587880 119583808 
1131.059 127908128 137588048 148443728 160030208 171587392 182013344 
1133.952 190107328 194744128 195170176 191273136 183618288 173344592 
1136.845 161782784 150283072 139938496 131416040 125047880 120834984 
1139.739 118556096 117840376 118251464 119360304 120733168 122001224 
1142.632 122883552 123189784 122859592 121953832 120641640 119143248 
1145.525 117689200 116480952 115645944 115246776 115289896 115748440 
1148.418 116581920 117749240 119216224 120950232 122919608 125097992 
1151.311 127463848 130007360 132729800 135638016 138734272 142007440 
1154.204 145425728 148942080 152502832 156055936 159565440 163012704 
1157.097 166393392 169711120 172970464 176174384 179325952 182432832 
1159.990 185511968 188586640 191685328 194834048 198052064 201354160 
1162.883 204755216 208276768 211954096 215834512 219970640 224416960 
1165.776 229220016 234417520 240044752 246138656 252744048 259915712 
1168.669 267710176 276179648 285363072 295283360 305947904 317353440 
1171.562 329496704 342367936 355945504 370190976 385026112 400333504 
1174.455 415976224 431798176 447662112 463468992 479151264 494664768 
1177.348 509963328 524974272 539593792 553693056 567127232 579746816 
1180.241 591384192 601822464 610781632 617902336 622769088 624995904 
1183.135 624259840 620355456 613223552 602918016 589599168 573527616 
1186.028 555068608 534696032 512953216 490435584 467702656 445212160 
1188.921 423329696 402291392 382232544 363231168 345311200 328462688 
1191.814 312649760 297807008 283850816 270689152 258238944 246434096 
1194.707 235230672 224601152 214526032 204985792 195958208 187424224 
1197.600 179377136 171827456 164812304 158387984 152619344 147581504 
1200.493 143343728 139965184 137499648 135984160 135438432 135859952 
1203.386 137220144 139462048 142497456 146221088 150507696 155217408 
1206.279 160217152 165371008 170550608 175649056 180573904 185261136 
1209.172 189683696 193856272 197839872 201730240 205659472 209770096 
1212.065 214195008 219053296 224424928 230343472 236784032 243658416 
1214.958 250808592 257994384 264928784 271280000 276698304 280880672 
1217.851 283574432 284600800 283862752 281319488 276976064 270876288 
1220.744 263103904 253791632 243118544 231313472 218632848 205335472 
1223.637 191687968 177939760 164317840 151044400 138307072 126260232 
1226.531 115029216 104690712 95287320 86836144 79326704 72733056 67011616 
1229.906 62103956 57936588 54425844 51489868 49048764 47033292 45389856 
1233.281 44072220 43042268 42267660 41717240 41364272 41187508 41170244 
1236.656 41299732 41564984 41951288 42440732 43011648 43639840 44304788 
1240.031 44989276 45680480 46368836 47044740 47696656 48312632 48880900 
1243.407 49394484 49853260 50264492 50641864 51000852 51358236 51730212 
1246.782 52132992 52588276 53124088 53775040 54584852 55599984 56868624 
1250.157 58442388 60371264 62704160 65485060 68739496 72460408 76585736 
1253.532 80993736 85480400 89769912 93564840 96558888 98512600 99308528 
1256.908 98969696 97664048 95653112 93265856 90814736 88547136 86639024 
1260.283 85169280 84144408 83525448 83262800 83320152 83688536 84386624 
1263.658 85449944 86917408 88814504 91147232 93897496 97027696 100478384 
1267.033 104171912 108020952 111919128 115752208 119410168 122784368 
1269.927 125786784 128360168 130480600 132163896 133461640 134460864 
1272.820 135267824 136002736 136799440 137785600 139086448 140818368 
1275.713 143072848 145918640 149395536 153514208 158260032 163597616 
1278.606 169482320 175856304 182654880 189810320 197239584 204847120 
1281.499 212528048 220155872 227598592 234726928 241412288 247546512 
1284.392 253043088 257841520 261917328 265290208 268037136 270284832 
1287.285 272212480 274034976 275954144 278151616 280755328 283821088 
1290.178 287335168 291212800 295317248 299453344 303392544 306903296 
1293.071 309753760 311766304 312848032 313009888 312374496 311154112 
1295.964 309636256 308118880 306890336 306217824 306306912 307312192 
1298.857 309324448 312356320 316334912 321090656 326386368 331906912 
1301.750 337302464 342249984 346449152 349667008 351749376 352600864 
1304.643 352186432 350520672 347663104 343706464 338762528 332949248 
1307.536 326366048 319087744 311167072 302644064 293560448 283968608 
1310.429 273930176 263514128 252791376 241830096 230705632 219505584 
1313.323 208325472 197272368 186448688 175935008 165795200 156071760 
1316.216 146791968 137986672 129689320 121934920 114759408 108185600 
1319.109 102220016 96852360 92058640 87805536 84053200 80758624 77872728 
1322.484 75339560 73101960 71099360 69273040 67572616 65951096 64366108 
1325.859 62781072 61160644 59476576 57712572 55866580 53953844 52001840 
1329.234 50046820 48122952 46256996 44469164 42771652 41173560 39683292 
1332.610 38307144 37047488 35899852 34853536 33893588 33005324 32179952 
1335.985 31415060 30713672 30079882 29514890 29015170 28574232 28185922 
1339.360 27848830 27567002 27347456 27195288 27109754 27082774 27102276 
1342.735 27156522 27237762 27345022 27481606 27652202 27858792 28098920 
1346.111 28367158 28659204 28974434 29318322 29700764 30133470 30625414 
1349.486 31181602 31803846 32493108 33253248 34092380 35022488 36056400 
1352.861 37206396 38481760 39889876 41439280 43141136 45011804 47073432 
1356.236 49351276 51871964 54662256 57745084 61139508 64858376 68908376 
1359.612 73285464 77970896 82929952 88097168 93373808 98633464 103722976 
1362.987 108493800 112830256 116665304 119986328 122817080 125196544 
1365.880 127156944 128716008 129879800 130653216 131050360 131099656 
1368.773 130836072 130293696 129494760 128443312 127126080 125514152 
1371.666 123568488 121238976 118472088 115225736 111482896 107273424 
1374.559 102677728 97817216 92823992 87810160 82861784 78032832 73364264 
1377.934 68905200 64711788 60844916 57355864 54265084 51561272 49207044 
1381.310 47158448 45377464 43841056 42538404 41459436 40584792 39884500 
1384.685 39319316 38853044 38463768 38146136 37910872 37773680 37745200 
1388.060 37824180 37999792 38259596 38597012 39012944 39512368 40098340 
1391.435 40767672 41509820 42314228 43174472 44094624 45087668 46170204 
1394.811 47351248 48625932 49978672 51392360 52859540 54387572 55997320 
1398.186 57713636 59555316 61524696 63607408 65781504 68029776 70348536 
1401.561 72748680 75249520 77869560 80615904 83481240 86441152 89457088 
1404.936 92484312 95474616 98379928 101156040 103761216 106161800 108338944 
1408.312 110290536 112037216 113619832 115100000 116549248 118037136 
1411.205 119631112 121384168 123336592 125520216 127956568 130656496 
1414.098 133614344 136806560 140183312 143662528 147139104 150461344 
1416.991 153422016 155772512 157217376 157482896 156411136 154017664 
1419.884 150492464 146106128 141117744 135707264 129978744 124020704 
1422.777 117944832 111917928 106179744 100971216 96476840 92778936 89840648 
1426.152 87546728 85753040 84340872 83229568 82377328 81767448 81386392 
1429.527 81213984 81226088 81400464 81726528 82203048 82828016 83584888 
1432.903 84436160 85318056 86152768 86860264 87360760 87593544 87527392 
1436.278 87170448 86568448 85786704 84884400 83896568 82835152 81702296 
1439.653 80503464 79257936 78004200 76792464 75688768 74766712 74097736 
1443.028 73757624 73815512 74326192 75331368 76855376 78913368 81519888 
1446.404 84695736 88463528 92834240 97795392 103315984 109376448 116003408 
1449.779 123297680 131425944 140559504 150801536 162095584 174220640 
1452.672 186775808 199274176 211279456 222353760 232046592 239820816 
1455.565 244977904 246833392 245057264 240042560 232816320 224529008 
1458.458 215978976 207427808 198791712 189876288 180554080 170803200 
1461.351 160678704 150218336 139424640 128275352 116779232 105086664 
1464.244 93539152 82596360 72719496 64201100 57096092 51267848 46485796 
1467.619 42525796 39209960 36420104 34076324 32109878 30449986 29026222 
1470.995 27779944 26689314 25774614 25086056 24670586 24544490 24688962 
1474.370 25072402 25676316 26513460 27623036 29064906 30903116 33191834 
1477.745 35983896 39329180 43269236 47816564 52915080 58408388 63991144 
1481.120 69253768 73761280 77125224 79127880 79739992 79100088 77437016 
1484.496 75011048 72067904 68785536 65288000 61646456 57888768 54020896 
1487.871 50040200 45951736 41783192 37602028 33519250 29680220 26228978 
1491.246 23264774 20822850 18868484 17321066 16080100 15052825 14169883 
1494.621 13388841 12695715 12094547 11593603 11195084 10889096 10658567 
1497.997 10489459 10374269 10312341 10303859 10345560 10428534 10542110 
1501.372 10677787 10833109 11011764 11220313 11462979 11738766 12038847 
1504.747 12350316 12661395 12968156 13277833 13603868 13955671 14326835 
1508.122 14699961 15056324 15384933 15683217 15955029 16206410 16441178 
1511.498 16658889 16856974 17033232 17189190 17330650 17464880 17596148 
1514.873 17722554 17835188 17922852 17979036 18007528 18022586 18040650 
1518.248 18070804 18106902 18127318 18100820 18001414 17822762 17590384 
1521.623 17352858 17161268 17042296 16989402 16973726 16961254 16928832 
1524.999 16868480 16787882 16702652 16627010 16565699 16514722 16467229 
1528.374 16421665 16384089 16365854 16375730 16412959 16463889 16506704 
1531.749 16518096 16484436 16410895 16323812 16261719 16254736 16314350 
1535.124 16431576 16587282 16762294 16943200 17122698 17292376 17439424 
1538.500 17545948 17594076 17580966 17529974 17489406 17507102 17608430 
1541.875 17787238 18014434 18255642 18485952 18699644 18908974 19135340 
1545.250 19395670 19694536 20022442 20363896 20705756 21044580 21387638 
1548.625 21748106 22137778 22559590 23007214 23469182 23938120 24415242 
1552.000 24910746 25438576 26008314 26619766 27262282 27919598 28579362 
1555.376 29236870 29892536 30545850 31183024 31771440 32266990 32634572 
1558.751 32885932 33087234 33334494 33686612 34140732 34655756 35181848 
1562.126 35682892 36141984 36565120 36974600 37401260 37871320 38398788 
1565.501 38984852 39624956 40317988 41073716 41911948 42857692 43932148 
1568.877 45145460 46496048 47976168 49575284 51286976 53100536 54994236 
1572.252 56925056 58829244 60631248 62231540 63524948 64407384 64786672 
1575.627 64616808 63920892 62798344 61384000 59804504 58148444 56460676 
1579.002 54763280 53074852 51418584 49833232 48368960 47072876 45985144 
1582.378 45128364 44504920 44101044 43891420 43846996 43937976 44140876 
1585.753 44442112 44835688 45320524 45895276 46554356 47288916 48091752 
1589.128 48963972 49919380 50985240 52196884 53586932 55182464 57001252 
1592.503 59054140 61347668 63882812 66648960 69611408 72707440 75859464 
1595.879 78993488 82084152 85185240 88456904 92150224 96574408 102091656 
1599.254 109059360 117825728 128733696 142087728 158125904 176918096 
1602.147 198264848 221478720 245189792 267459632 285777824 297576800 
1605.040 300962592 295104896 280545664 258926032 232642608 204247888 
1607.933 175937728 149487760 125990136 105922528 89355320 76040176 65576688 
1611.308 57495676 51344252 46708408 43221028 40595960 38603676 37063004 
1614.684 35844936 34850736 34016052 33319070 32771294 32405380 32247610 
1618.059 32299540 32531638 32896082 33337642 33809516 34281584 34739524 
1621.434 35185080 35628180 36079296 36542308 37013892 37490288 37972524 
1624.809 38469268 38992392 39550004 40141588 40756172 41381180 42008768 
1628.185 42645236 43309648 44027772 44817980 45682504 46605664 47561740 
1631.560 48527140 49484632 50430176 51369052 52306264 53240184 54160428 
1634.935 55054828 55920772 56777040 57659332 58593092 59581384 60598028 
1638.310 61600064 62540508 63383832 64121128 64767480 65356360 65922052 
1641.686 66486284 67049584 67596888 68106632 68563344 68962744 69310824 
1645.061 69618920 69899672 70174144 70477240 70865496 71410216 72165744 
1648.436 73152000 74343576 75683480 77089688 78471016 79752656 80877640 
1651.811 81842336 82715848 83656112 84837632 86338632 88136744 90148944 
1655.187 92303632 94567760 96936352 99415200 102002216 104690920 107473296 
1658.562 110343928 113313440 116404320 119644640 123061584 126674664 
1661.455 130499080 134548800 138844464 143410800 148255840 153372160 
1664.348 158726560 164275136 169974064 175801168 181773376 187933504 
1667.241 194357856 201141472 208381264 216153712 224495424 233406000 
1670.134 242829648 252679472 262864288 273316576 284017440 295010336 
1673.027 306416448 318384160 331025120 344319936 358023488 371672544 
1675.920 384728640 396762912 407563296 417095616 425380512 432405600 
1678.813 438113088 442434912 445386368 447092320 447749248 447484448 
1681.706 446239680 443712736 439451072 433100512 424796416 415361952 
1684.599 406063104 397934400 391290144 385787872 380772832 375650464 
1687.492 370007904 363689984 356738688 349313376 341585056 333677824 
1690.385 325687872 317712064 309868832 302286304 295012192 287944416 
1693.279 280790336 273106720 264432944 254537136 243673744 232618448 
1696.172 222350000 213507776 206133840 199695840 193379824 186288848 
1699.065 177751680 167634128 156530096 145586000 135854784 127781376 
1701.958 121142616 115409080 110045984 104701840 99229408 93663240 88146240 
1705.333 82858616 77955072 73520592 69583760 66143124 63183508 60673196 
1708.708 58549564 56720216 55075404 53524564 52027912 50601432 49298156 
1712.083 48166192 47219796 46421636 45701976 44989532 44254192 43521224 
1715.459 42860180 42341988 41998880 41802852 41688240 41596560 41520868 
1718.834 41506756 41616836 41884324 42288592 42763644 43223004 43600600 
1722.209 43867812 44047244 44193400 44365444 44591228 44858464 45127996 
1725.584 45366392 45571796 45781492 46055284 46447704 46984964 47653908 
1728.960 48416336 49233468 50093296 51017024 52047744 53226700 54575160 
1732.335 56087796 57746860 59542088 61491788 63628628 65985880 68559120 
1735.710 71304584 74172800 77137136 80217920 83481880 87038000 91005136 
1739.085 95472096 100459384 105922480 111798880 118066048 124780256 
1741.979 132075280 140108864 149015024 158851792 169594736 181147200 
1744.872 193382416 206193360 219463040 233039504 246701360 260074640 
1747.765 272651072 283844992 293015616 299589952 303141760 303465856 
1750.658 300655072 295112384 287498272 278532192 268841760 258860384 
1753.551 248780224 238635152 228379968 217963920 207417808 196893104 
1756.444 186633552 176935184 168042144 160068544 152991824 146677232 
1759.337 140943088 135611840 130565760 125773280 121292072 117239448 
1762.230 113734776 110847192 108562592 106792672 105399976 104240688 
1765.123 103178816 102094720 100896504 99513728 97905592 96065376 94017872 
1768.498 91803472 89451800 86961288 84286640 81352624 78080936 74443232 
1771.874 70502184 66420988 62411112 58648268 55213392 52083008 49171976 
1775.249 46384176 43658412 40982568 38389484 35925476 33626140 31497028 
1778.624 29515530 27648282 25875640 24205166 22668670 21302406 20122764 
1781.999 19115220 18237846 17443356 16694183 15978955 15310103 14712437 
1785.375 14203740 13782983 13430909 13122147 12838416 12576220 12344861 
1788.750 12156525 12015615 11912448 11824287 11726784 11607827 11476417 
1792.125 11360726 11291040 11285430 11338143 11427463 11527725 11624503 
1795.500 11719499 11826740 11962479 12134718 12337566 12554016 12765422 
1798.875 12960305 13141545 13322930 13519670 13736812 13964089 14179468 
1802.251 14360876 14494258 14579878 14627442 14647867 14644302 14608354 
1805.626 14523619 14374335 14154512 13872501 13546845 13197524 12838074 
1809.001 12469135 12082418 11668578 11228235 10775498 10335855 9932827 
1812.376 9579388 9271253 8992461 8723651 8454197 8187138 7937385 7722651 
1816.234 7552591 7423211 7318704 7221936 7122563 7024223 6940955 6888773 
1820.091 6874600 6891937 6923347 6950584 6964186 6967654 6974254 6999877 
1823.949 7052511 7127481 7210752 7287805 7354391 7419166 7499358 7609270 
1827.806 7753007 7920412 8092304 8249945 8387138 8514103 8653408 8825149 
1831.664 9035829 9275383 9523502 9760511 9975273 10170400 10357810 10549850 
1835.521 10749617 10947470 11123929 11261048 11350352 11398073 11420557 
1838.896 11435900 11453453 11469238 11468932 11436648 11363788 11253023 
1842.271 11117505 10973670 10834909 10705600 10583291 10465801 10358048 
1845.647 10273255 10227320 10229424 10277089 10355401 10444689 10527648 
1849.022 10598196 10661759 10731004 10815410 10912812 11008332 11079536 
1852.397 11108428 11087965 11025903 10938466 10841126 10738680 10623253 
1855.772 10479344 10295037 10069468 9816361 9556863 9309809 9082688 8869415 
1859.630 8655706 8429940 8191966 7954765 7738166 7557311 7414852 7298048 
1863.487 7187675 7065914 6927454 6780220 6640304 6520848 6423721 6336970 
1867.345 6242908 6128300 5995548 5863642 5759609 5704212 5699545 5728787 
1871.202 5765485 5787680 5786975 5770119 5752390 5748697 5763101 5787680 
1875.060 5806988 5809238 5793657 5772906 5766257 5788150 5841006 5912913 
1878.917 5985301 6042112 6079912 6108642 6146246 6206976 6293298 6393961 
1882.774 6491486 6570867 6628562 6674219 6723919 6789745 6871739 6955634 
1886.632 7020317 7049311 7037356 6994894 6941022 6895371 6866724 6850903 
1890.489 6835250 6807886 6765951 6715943 6668230 6629639 6597073 6558690 
1894.347 6500130 6413666 6304022 6187852 6085725 6009591 5958494 5917750 
1898.204 5869351 5800172 5711262 5615523 5531753 5472257 5436456 5411058 
1902.062 5378315 5326925 5258603 5187207 5131044 5101641 5096344 5099395 
1905.919 5089438 5053166 4990317 4915648 4848463 4802964 4779647 4766281 
1909.776 4744707 4702803 4642383 4577350 4525752 4498634 4493947 4497429 
1913.634 4491670 4465658 4421572 4373173 4338299 4326954 4335789 4348272 
1917.491 4345963 4319223 4275219 4233159 4215025 4231587 4276189 4327958 
1921.349 4362864 4366211 4340407 4303762 4279836 4285525 4322168 4376251 
1925.206 4429170 4469441 4499069 4531980 4584148 4663281 4761859 4861196 
1929.063 4941285 4992328 5021690 5050250 5100937 5184893 5294490 5406060 
1932.921 5494370 5543062 5554842 5548633 5548835 5570347 5611596 5655031 
1936.778 5679336 5673327 5642208 5605018 5583872 5590820 5619283 5647412 
1940.636 5650164 5613711 5543733 5464305 5401531 5371506 5368151 5368956 
1944.493 5346112 5284159 5188012 5080219 4988508 4929790 4902780 4889443 
1948.351 4867294 4822664 4759548 4695703 4652062 4637259 4641043 4638532 
1952.208 4605512 4531109 4426727 4319558 4239918 4203884 4205657 4221616 
1956.065 4224527 4203047 4166348 4143064 4163236 4242996 4372637 4522974 
1959.923 4658559 4760117 4832515 4901306 4995647 5131949 5304015 5488699 
1963.780 5660134 5806283 5935384 6072721 6242774 6451868 6681789 6894698 
1967.638 7053655 7137586 7151699 7118623 7064095 6997925 6908264 6766994 
1971.495 6548733 6247782 5884968 5500208 5133793 4810503 4528866 4271438 
1975.353 4020682 3777993 3567275 3424215 3372721 3407684 3490412 3568645 
1979.210 3596274 3557420 3469303 3371051 3299431 3270486 3273123 3278231 
1983.067 3258401 3202654 3123485 3049436 3008596 3010999 3045899 3087344 
1986.925 3112639 3115776 3112339 3128658 3187767 3293021 3426820 3557654 
1990.782 3659322 3726825 3779831 3852835 3974534 4154773 4376352 4606450 
1994.640 4812714 4979927 5114482 5236972 5366775 5506148 5635562 5723650 
1998.497 5740673 5674871 5538934 5362884 5179428 5007244 4845313 4677516 
2002.354 4488691 4275252 4053189 3848890 3687926 3578333 3508516 3452336 
2006.212 3387214 3308679 3233664 3189603 3197981 3258468 3346442 3424082 
2010.069 3458247 3437908 3378264 3311083 3265244 3253293 3265111 3276428 
2013.927 3264577 3222982 3164002 3113106 3091548 3103362 3133497 3156826 
2017.784 3155358 3129192 3099424 3094885 3137903 3228624 3346442 3459951 
2021.642 3547766 3609437 3668277 3757070 3901912 4104998 4345126 4585721 
2025.499 4793919 4956869 5082164 5190627 5300594 5415856 5523262 5605018 
2029.356 5649996 5665505 5676314 5713377 5794598 5916439 6053771 6173501 
2033.214 6252791 6290205 6303686 6320328 6357815 6414137 6467607 6490645 
2037.071 6466867 6399812 6312797 6234135 6184727 6165267 6158378 6139760 
2040.929 6094663 6027027 5959199 5919395 5924702 5973309 6044867 6111969 
2044.786 6154513 6172258 6182643 6211245 6275817 6376981 6496833 6610429 
2048.644 6695754 6745220 6766321 6773153 6776485 6777124 6767230 6738086 
2052.501 6688990 6631186 6584659 6568412 6590714 6643164 6704267 6749259 
2056.358 6762989 6746566 6715337 6688048 6677281 6681924 6687678 6676372 
2060.216 6636502 6569353 6488795 6413968 6356739 6317335 6284154 6241833 
2064.073 6180021 6100544 6014932 5938541 5879796 5835667 5793187 5738322 
2067.931 5664666 5578737 5497088 5437798 5411193 5414514 5433302 5449743 
2071.788 5453836 5447226 5442193 5453601 5489638 5545747 5608105 5659261 
2075.646 5689508 5701358 5708274 5726740 5766929 5827943 5897966 5962559 
2079.503 6012144 6047690 6079777 6121781 6181164 6255648 6333809 6402031 
2083.360 6452036 6485600 6512675 6546412 6594752 6655444 6717861 6769047 
2087.218 6801289 6816031 6823234 6834645 6857904 6890994 6924357 6945500 
2091.075 6947857 6933144 6911867 6896179 6894226 6904999 6920148 6928093 
2094.933 6921933 6902541 6877697 6857062 6845854 6841343 6835250 6819700 
2098.790 6792134 6758042 6728361 6712780 6713655 6723952 6729740 6718703 
2102.647 6686568 6639631 6591421 6555158 6536758 6530300 6521387 6493706 
2106.505 6438618 6357882 6263514 6169670 6086666 6015369 5949190 5878452 
2110.362 5798123 5710523 5624821 5550445 5492155 5446253 5403510 5353994 
2114.220 5293316 5225503 5160282 5107642 5071905 5048507 5026014 4993971 
2118.077 4946647 4887567 4827020 4776733 4742965 4724408 4713020 4699990 
2121.935 4681870 4662612 4650990 4655411 4678118 4712584 4746650 4768291 
2125.792 4771976 4761524 4747153 4739616 4743435 4754790 4764304 4762931 
2129.649 4748459 4727691 4714058 4720255 4750469 4798710 4851144 4894369 
2133.507 4922082 4939341 4958478 4991993 5044518 5108648 5168664 5210747 
2137.364 5228588 5228755 5225704 5233953 5259374 5296871 5331117 5347353 
2141.222 5339504 5312803 5280705 5256691 5245322 5239621 5225871 5190627 
2145.079 5130709 5055680 4983614 4930360 4901071 4886092 4865619 4821894 
2148.937 4746416 4644761 4532717 4427564 4336124 4253469 4166381 4061851 
2152.794 3937586 3803329 3676063 3570649 3490378 3425885 3360767 3285342 
2156.651 3204957 3144311 3133764 3194910 3325073 3495188 3663532 3792399 
2160.509 3868145 3901310 3918628 3945143 3991522 4050647 4106704 4145540 
2164.366 4166348 4183309 4217367 4283818 4382745 4496893 4599551 4669745 
2168.224 4698583 4693693 4672056 4650119 4633341 4615424 4584851 4534023 
2172.081 4469575 4411396 4385356 4412133 4495620 4621954 4764472 4895810 
2175.938 5000440 5077973 5139762 5197099 5256121 5312132 5354330 5373317 
2179.796 5369728 5352988 5339504 5342153 5363454 5395224 5423874 5439140 
2183.653 5440348 5436691 5441824 5464808 5505678 5553197 5593237 5617638 
2187.511 5628278 5637845 5662215 5711262 5782375 5862231 5931756 5977239 
2191.368 5997462 6003509 6013555 6042616 6097317 6172526 6258270 6345005 
2195.226 6430144 6518494 6618133 6731692 6854437 6973075 7073020 7145265 
2199.083 7191078 7221465 7251416 7291275 7342090 7395574 7440503 7469491 
2202.940 7484424 7495380 7514023 7547568 7592917 7638843 7670745 7680964 
2206.798 7671926 7656615 7651928 7669869 7712296 7770581 7830325 7879382 
2210.655 7915350 7944236 7977477 8023883 8084979 8154084 8220735 8275948 
2214.513 8317759 8350691 8383220 8420852 8463995 8506804 8541981 8565669 
2218.370 8580403 8593821 8614470 8646141 8685688 8724429 8753402 8768853 
2222.228 8775885 8786028 8810644 8855516 8916695 8982381 9037928 9074060 
2226.085 9090436 9095274 9101365 9117234 9145184 9179736 9211616 9232837 
2229.942 9241332 9239572 9232904 9224544 9212597 9191479 9155742 9104106 
2233.800 9041851 8978795 8925117 8886391 8861570 8843681 8824981 8801717 
2237.657 8775649 8753977 8743699 8748432 8764897 8786265 8804997 8818083 
2241.515 8828126 8843173 8870091 8911384 8962795 9015329 9059850 9091755 
2245.372 9113478 9132224 9156114 9188873 9228064 9266887 9298537 9320439 
2249.229 9335808 9352296 9377552 9414662 9460680 9508024 9549852 9583521 
2253.087 9612280 9643684 9683832 9733538 9786334 9830934 9856389 9858151 
2256.944 9840018 9812802 9788469 9775761 9776540 9786232 9797755 9805956 
2260.802 9810837 9816937 9829544 9851948 9882658 9916149 9947066 9971985 
2264.659 9992531 10013416 10039458 10072181 10109079 10144182 10172673 
2268.034 10194246 10213853 10239431 10279125 10336194 10407560 10485250 
2271.410 10560000 10625800 10681693 10731446 10780083 10831377 10885461 
2274.785 10939145 10988962 11033719 11075390 11118694 11167919 11224494 
2278.160 11285939 11347223 11403379 11452025 11495163 11536741 11581453 
2281.535 11631479 11685324 11739379 11790751 11837907 11882856 11928761 
2284.911 11978180 12030330 12081635 12125995 12159183 12179253 12189237 
2288.286 12193872 12198268 12204947 12213024 12219192 12220113 12214557 
2291.661 12204232 12192577 12183069 12176833 12172813 12168076 12160341 
2295.036 12149369 12137545 12128482 12125177 12127903 12134819 12142418 
2298.412 12148040 12151856 12156525 12165861 12182286 12205936 12232756 
2301.787 12257056 12274064 12282039 12282790 12280404 12279585 12282687 
2305.162 12289061 12296287 12301331 12303173 12303547 12305251 12311353 
2308.537 12322943 12338691 12355736 12370872 12383555 12394737 12407182 
2311.913 12423377 12444277 12468044 12492153 12514558 12535020 12555005 
2315.288 12577414 12604462 12636151 12670367 12704108 12735156 12763033 
2318.663 12789888 12818178 12850122 12885481 12921867 12955662 12983894 
2322.038 13005641 13021518 13032853 13040023 13041832 13036165 13021450 
2325.414 12998609 12971467 12946172 12929171 12923880 12930333 12943987 
2328.789 12959792 12972867 12981982 12989971 13001340 13020288 13047910 
2332.164 13082193 13118835 13154216 13187243 13219452 13254534 13295257 
2335.539 13341961 13392020 13441024 13485285 13523976 13559323 13595287 
2338.915 13635937 13683294 13736607 13793723 13852214 13911090 13971103 
2342.290 14033143 14096870 14159475 14217195 14266772 14308274 14346834 
2345.665 14390673 14449724 14530813 14635701 14760323 14897188 15037184 
2349.040 15171460 15294040 15400588 15488070 15554928 15600023 15623653 
2352.416 15627809 15616921 15597103 15574263 15553212 15535319 15519523 
2355.791 15503761 15486902 15470008 15456618 15450643 15454283 15465992 
2359.166 15481305 15494490 15500602 15498473 15490988 15483811 15482747 
2362.541 15491675 15512827 15545588 15589684 15645429 15713962 15796663 
2365.917 15893573 16001884 16117683 16236126 16354535 16472252 16591344 
2369.292 16714463 16843990 16980100 17121458 17266172 17413280 17562748 
2372.667 17715652 17872026 18030874 18188850 18341902 18486540 18621196 
2376.042 18746622 18865336 18979582 19090396 19196772 19296280 19387250 
2379.417 19469614 19545788 19619930 19696376 19777998 19864910 19955342 
2382.793 20046800 20137444 20227172 20317470 20410324 20507264 20607974 
2386.168 20711490 20816038 20920994 21027052 21135468 21247286 21361638 
2389.543 21475848 21585838 21687392 21778310 21858828 21930996 21997810 
2392.918 22060588 22119472 22172750 22218222 22255294 22284976 22309878 
2396.294 22333040 22356098 22379122 22400228 22417882 22431384 22442410 
2399.669 22454028 22469592 22491262 22518550 22549052 22579554 22607828 
2403.044 22633134 22656800 22680748 22706340 22733256 22760142 22784864 
2406.419 22806270 22824812 22842100 22859946 22879188 22899622 22919880 
2409.795 22938568 22955580 22972138 22989954 23010462 23033382 23056582 
2413.170 23076918 23092152 23102112 23109486 23118186 23132760 23155580 
2416.545 23186790 23223876 23264144 23305292 23347070 23390114 23435574 
2419.920 23483662 23533014 23581464 23627224 23670294 23712808 23757954 
2423.296 23808772 23866494 23929856 23995542 24060434 24122216 24180818 
2426.671 24238028 24295736 24354678 24414364 24472586 24527276 24577166 
2430.046 24622648 24665150 24705904 24745082 24781810 24814366 24842256 
2433.421 24866922 24891940 24921694 24959946 25007536 25062538 25120846 
2436.797 25178532 25233100 25285146 25337372 25392732 25453578 25519636 
2440.172 25589112 25659512 25729048 25797888 25867620 25940246 26016722 
2443.547 26096656 26178296 26259670 26339896 26419362 26500040 26583588 
2446.922 26671028 26761796 26854452 26947586 27040810 27134726 27231728 
2450.298 27333166 27439638 27550196 27663114 27776024 27888576 28001016 
2453.673 28115004 28231568 28351170 28472716 28594580 28714954 28833556 
2457.048 28950634 29067670 29185236 29303506 29421276 29537270 29650526 
2460.423 29761330 29870388 29979294 30088086 30195982 30300884 30401228 
2463.799 30496654 30589222 30682164 30779074 30881914 30990432 31101436 
2467.174 31211080 31316262 31415808 31511384 31606342 31703998 31806484 
2470.549 31913914 32025404 32139454 32255356 32373536 32494608 32618746 
2473.924 32744996 32871562 32996100 33117306 33235508 33352382 33470218 
2477.300 33590412 33713256 33837168 33960548 34082560 34204324 34327952 
2480.675 34456524 34591812 34733456 34878848 35025040 35169268 35311108 
2484.050 35452052 35594592 35741492 35894096 36051860 36213072 36375964 
2487.425 36539640 36704528 36871176 37040304 37211304 37382660 37552564 
2490.801 37719756 37884516 38048360 38212920 38379820 38549104 38719684 
2494.176 38890332 39059924 39228784 39398252 39569420 39742728 39917300 
2497.551 40091072 40262224 40430276 40596212 40762724 40932720 41108028 
2500.926 41288688 41472708 41657640 41841892 42024576 42207008 42390464 
2504.302 42576300 42763936 42952092 43138756 43323412 43506172 43688972 
2507.677 43873748 44061508 44251876 44442592 44631216 44815700 44995228 
2511.052 45170492 45342332 45511152 45676208 45835880 45988460 46133984 
2514.427 46274392 46413196 46554656 46702064 46856648 47018044 47184192 
2517.802 47353356 47524916 47698656 47875308 48054700 48235944 48417224 
2521.178 48596324 48772080 48944204 49113836 49282048 49449432 49615248 
2524.553 49777860 49935588 50087944 50235628 50380796 50525564 50671128 
2527.928 50817000 50961916 51104196 51243728 51382628 51524004 51672548 
2531.303 51831900 52003448 52186796 52379860 52580500 52786836 52998364 
2534.679 53215540 53438628 53667760 53902452 54142000 54385956 54634640 
2538.054 54888388 55147624 55411312 55677380 55942744 56204048 56458300 
2541.429 56703864 56939332 57163364 57373860 57567660 57740656 57889792 
2544.804 58012472 58108484 58178140 58222548 58241300 58232660 58193260 
2548.180 58119392 58008304 57859620 57675224 57459632 57218284 56956788 
2551.555 56680268 56393440 56100048 55804032 55508516 55215648 54926024 
2554.930 54639072 54352724 54064984 53774928 53482364 53188948 52896668 
2558.305 52607536 52323420 52045240 51774296 51512324 51261956 51026228 
2561.681 50807912 50608728 50429320 50269332 50128404 50006740 49906036 
2565.056 49827916 49774256 49745908 49742044 49760880 49800120 49858280 
2568.431 49934400 50028008 50138704 50265016 50404908 50555456 50714432 
2571.806 50880844 51055336 51239772 51436228 51645640 51867780 52101800 
2575.182 52345772 52599084 52862084 53136520 53424468 53727416 54045436 
2578.557 54377620 54721636 55074764 55434012 55796644 56159248 56518604 
2581.932 56870740 57211784 57538192 57847204 58136208 58402812 58643264 
2585.307 58852996 59026124 59156456 59238284 59268024 59243184 59163252 
2588.683 59028400 58838960 58594912 58296736 57945676 57544544 57098284 
2592.058 56613300 56096956 55556072 54997060 54425016 53844688 53261012 
2595.433 52678568 52102356 51536648 50984308 50447184 49926444 49422924 
2598.808 48938568 48476312 48039304 47630872 47253048 46906036 46588184 
2602.184 46297136 46030232 45785472 45561676 45357856 45173544 45007800 
2605.559 44860044 44729528 44616232 44520408 44442184 44381040 44335424 
2608.934 44303172 44281560 44268280 44262116 44262704 44270444 44285888 
2612.309 44308712 44338068 44372524 44410808 44452280 44496696 44544272 
2615.685 44595012 44648620 44704220 44760968 44818716 44878084 44940144 
2619.060 45006400 45077376 45152772 45230940 45310116 45388608 45465676 
2622.435 45541880 45618424 45696860 45778440 45864196 45954680 46050384 
2625.810 46152036 46260240 46375216 46495940 46620864 46747520 46873924 
2629.186 46999028 47122880 47247172 47373716 47504140 47638972 47777688 
2632.561 47919076 48062068 48205992 48351108 48497688 48645648 48794140 
2635.936 48941684 49086196 49226488 49362004 49493584 49622272 49749436 
2639.311 49875560 50000384 50123308 50243516 50361000 50476620 50591604 
2642.687 50707284 50824484 50943284 51063312 51184224 51305660 51428056 
2646.062 51551276 51675536 51800164 51923864 52044832 52161612 52273000 
2649.437 52378740 52479120 52574776 52665924 52752900 52835516 52913772 
2652.812 52987768 53057816 53123676 53185468 53242472 53294160 53339716 
2656.188 53379056 53412512 53441068 53465760 53487124 53504924 53518568 
2659.563 53527076 53530148 53528240 53522804 53515760 53509200 53504176 
2662.938 53501364 53500392 53500240 53499792 53498216 53494808 53489148 
2666.313 53480788 53468948 53452948 53431924 53404608 53369536 53324840 
2669.688 53267980 53195728 53105252 52993760 52859316 52701536 52520848 
2673.064 52319196 52099220 51864344 51618588 51366928 51115412 50870528 
2676.439 50639332 50428764 50244368 50090884 49971016 49886636 49837876 
2679.814 49824348 49844564 49896076 49975288 50077904 50198916 50333356 
2683.189 50477144 50626636 50779124 50932556 51085148 51235376 51382216 
2686.565 51525304 51665200 51803304 51941188 52080468 52221580 52364052 
2689.940 52506416 52647220 52784888 52918708 53048416 53174084 53295320 
2693.315 53411236 53519992 53619548 53707804 53783104 53844160 53890260 
2696.690 53920384 53934076 53930024 53907704 53866556 53806280 53726968 
2700.066 53628544 53510172 53370512 53207672 53019256 52802960 52556824 
2703.441 52278980 51967744 51621644 51238956 50818492 50360184 49865228 
2706.816 49336316 48777720 48194400 47591496 46974440 46348416 45718504 
2710.191 45089988 44469092 43861432 43273224 42709060 42172828 41667016 
2713.567 41192868 40751116 40341736 39963904 39616460 39296932 39002540 
2716.942 38730120 38476908 38241032 38021560 37818180 37630536 37457672 
2720.317 37298128 37149544 37010068 36878604 36755152 36640932 36537224 
2723.692 36445112 36364616 36294764 36233604 36179328 36130176 36085492 
2727.068 36045168 36009600 35979612 35955820 35938760 35928896 35926668 
2730.443 35932388 35945708 35966080 35992356 36023276 36057660 36094924 
2733.818 36134784 36177596 36223300 36271564 36321672 36372436 36422912 
2737.193 36471992 36519312 36564688 36608016 36649620 36689492 36728220 
2740.569 36767056 36808060 36853212 36904868 36964536 37032764 37109336 
2743.944 37193472 37284336 37381612 37485412 37596244 37714844 37840912 
2747.319 37973900 38112600 38255940 38402808 38552292 38704108 38857032 
2750.694 39010080 39161876 39310752 39455760 39596644 39733540 39867248 
2754.070 39998016 40126104 40250772 40371256 40486724 40596760 40701328 
2757.445 40800720 40895148 40984604 41068836 41147328 41220048 41287124 
2760.820 41349108 41406368 41459256 41507160 41549560 41585548 41615120 
2764.195 41638536 41657024 41671684 41684012 41694880 41704692 41713844 
2767.571 41722600 41731864 41743136 41757144 41775384 41798180 41826056 
2770.946 41858932 41897716 41943076 41996324 42058116 42128576 42206676 
2774.321 42290560 42378480 42469196 42562084 42657916 42758084 42863948 
2777.696 42976088 43094408 43218356 43347172 43480496 43618368 43761156 
2781.072 43909056 44062024 44219080 44379168 44541444 44705288 44870920 
2784.447 45038892 45209912 45384340 45562044 45742616 45925440 46109884 
2787.822 46295700 46482628 46670556 46859156 47048100 47237200 47426636 
2791.197 47616788 47808536 48002744 48199732 48399520 48601916 48806192 
2794.573 49012044 49219144 49427492 49636720 49846088 50054888 50261852 
2797.948 50466532 50668748 50869408 51069944 51271464 51475132 51680760 
2801.323 51887792 52094964 52301256 52505668 52708080 52908384 53106976 
2804.698 53304088 53500016 53695092 53890072 54085364 54281344 54477752 
2808.073 54673268 54866052 55053436 55233372 55404912 55567972 55723560 
2811.449 55873704 56019940 56163432 56304676 56443508 56579556 56712888 
2814.824 56843848 56972616 57099760 57225692 57350000 57473056 57595128 
2818.199 57716928 57839404 57964000 58091552 58222280 58356044 58492008 
2821.574 58629232 58767028 58904676 59041764 59177680 59311740 59442608 
2824.950 59569336 59690744 59806252 59915552 60018412 60114828 60204680 
2828.325 60287240 60361788 60427356 60482992 60527824 60561112 60582180 
2831.700 60590104 60584316 60563860 60528700 60478576 60413876 60335132 
2835.075 60243392 60139296 60023588 59896612 59757960 59607232 59443028 
2838.451 59264568 59071036 58862824 58641404 58409524 58171516 57931440 
2841.826 57693540 57461520 57237752 57023960 56821488 56631608 56455544 
2845.201 56294376 56148688 56018732 55904040 55803768 55717420 55645328 
2848.576 55588384 55547904 55524744 55519060 55529640 55554532 55591508 
2851.952 55638548 55695008 55760704 55835948 55920620 56013756 56113736 
2855.327 56218340 56325988 56436000 56548644 56665128 56786408 56912700 
2858.702 57043268 57176100 57308900 57439208 57565128 57685668 57800416 
2862.077 57909556 58013644 58113592 58210576 58305640 58399556 58492580 
2865.453 58583652 58670684 58751096 58822116 58881304 58927256 58959744 
2868.828 58979096 58985628 58979592 58960580 58928320 58882288 58822760 
2872.203 58750032 58664808 58567572 58458648 58338232 58206784 58065604 
2875.578 57917204 57764728 57611732 57461480 57316464 57177916 57046480 
2878.954 56922296 56805816 56697108 56596768 56504600 56419848 56341756 
2882.329 56268768 56199712 56134320 56072604 56015376 55962872 55915156 
2885.704 55871480 55831160 55793444 55757504 55723260 55690528 55658544 
2889.079 55626084 55591056 55551896 55507240 55456972 55401712 55342920 
2892.455 55281952 55219412 55155300 55088792 55018796 54944412 54864776 
2895.830 54779740 54689052 54592332 54489508 54380588 54266176 54147588 
2899.205 54026600 53905228 53784716 53666000 53548664 53432072 53315140 
2902.580 53197452 53078744 52958872 52838024 52716124 52593324 52469400 
2905.956 52345100 52221248 52098732 51978312 51860012 51743164 51626836 
2909.331 51510608 51394600 51279856 51167264 51057384 50949172 50840056 
2912.706 50726052 50603404 50469624 50324648 50170056 50008712 49843820 
2916.081 49677100 49508960 49338692 49165520 48989376 48811604 48634828 
2919.457 48461972 48295524 48137208 47987308 47845604 47712188 47587096 
2922.832 47471248 47365400 47270336 47186372 47113164 47050684 46998880 
2926.207 46957752 46927332 46907436 46896844 46893964 46896880 46904448 
2929.582 46916260 46933092 46956536 46988948 47032004 47087240 47156008 
2932.958 47239080 47337764 47453208 47586136 47736304 47902688 48082940 
2936.333 48274304 48473976 48679748 48889840 49102816 49316976 49529532 
2939.708 49736580 49933876 50116836 50281608 50425600 50547416 50646704 
2943.083 50723816 50779868 50816144 50834992 50839388 50832756 50819088 
2946.458 50802212 50785116 50770144 50759048 50752868 50752680 50759232 
2949.834 50773052 50794504 50822996 50857452 50896528 50939000 50983824 
2953.209 51030444 51078704 51127936 51177888 51227620 51276348 51323296 
2956.584 51368008 51410452 51450180 51487068 51520384 51549224 51572916 
2959.959 51591236 51604372 51613140 51618548 51621272 51621796 51620304 
2963.335 51616868 51611832 51605564 51598696 51591312 51583136 51573472 
2966.710 51561012 51544932 51524600 51500276 51472596 51442156 51409260 
2970.085 51373752 51335120 51293088 51247752 51199696 51150044 51099796 
2973.460 51049444 50999176 50948464 50897200 50845608 50794692 50745452 
2976.836 50699204 50656008 50615540 50576788 50538592 50500552 50463332 
2980.211 50428168 50396872 50371084 50351660 50338940 50332912 50333428 
2983.586 50340424 50354228 50374360 50399920 50429540 50461104 50493108 
2986.961 50524932 50556724 50589740 50624920 50662640 50702072 50741172 
2990.337 50777448 50808880 50834320 50853876 50868104 50877976 50883936 
2993.712 50885616 50882968 50875556 50863932 50849260 50832868 50815436 
2997.087 50796816 50775660 50750000 50717784 50677904 50630320 50575892 
3000.462 50516372 50453360 50388092 50321004 50252440 50182700 50112152 
3003.838 50041468 49971200 49901728 49832860 49764336 49695564 49626544 
3007.213 49557608 49489572 49423296 49359516 49298896 49241484 49187376 
3010.588 49136616 49089276 49045648 49005548 48968720 48934340 48901296 
3013.963 48868592 48835296 48800996 48765596 48729448 48692756 48656024 
3017.339 48619296 48582684 48546112 48509024 48470976 48431336 48389336 
3020.714 48344812 48297744 48248756 48198508 48147792 48096416 48043672 
3024.089 47987900 47927108 47859588 47784124 47700356 47608724 47509984 
3027.464 47404536 47292576 47173628 47046768 46911832 46768960 46619684 
3030.840 46466216 46311368 46157896 46008424 45864636 45727340 45596564 
3034.215 45471488 45350980 45233552 45118180 45004344 44892340 44783340 
3037.590 44678880 44580620 44489868 44407244 44332196 44263876 44200516 
3040.965 44140104 44080248 44018128 43950260 43873568 43784724 43681348 
3044.341 43562764 43429520 43283952 43129496 42969760 42808508 42649036 
3047.716 42493968 42345860 42206676 42078268 41961940 41858272 41767248 
3051.091 41688132 41620008 41561884 41513212 41473328 41441580 41416828 
3054.466 41397180 41380600 41364820 41348088 41329136 41307420 41282568 
3057.842 41253744 41220116 41180404 41133452 41078924 41017600 40950960 
3061.217 40880948 40809784 40738376 40667344 40596144 40524512 40452132 
3064.592 40379256 40306212 40233396 40160844 40087984 40014008 39938116 
3067.967 39860128 39780492 39699996 39619944 39541548 39465992 39394260 
3071.343 39327876 39267916 39215764 39172032 39136168 39105860 39077760 
3074.718 39046872 39008052 38956256 38887504 38798988 38689076 38557468 
3078.093 38405232 38234704 38049120 37852808 37650480 37446404 37244444 
3081.468 37047448 36857472 36676008 36504932 36346096 36201440 36072780 
3084.844 35961040 35865700 35785676 35718720 35662388 35614696 35573912 
3088.219 35537696 35503464 35467296 35423976 35367896 35293100 35194816 
3091.594 35069580 34915900 34733816 34525220 34293240 34042316 33777892 
3094.969 33506650 33235330 32970466 32717664 32480360 32260210 32056722 
3098.344 31867914 31691450 31524568 31365198 31211826 31063958 30921510 
3101.720 30785050 30655460 30533124 30418216 30309482 30204648 30100300 
3105.095 29992750 29878586 29755510 29622892 29481628 29333778 29181868 
3108.470 29028382 28875378 28724264 28575896 28431008 28290092 28153714 
3111.845 28021866 27894688 27771644 27652166 27535368 27420298 27305854 
3115.221 27191124 27075582 26958974 26841728 26725078 26610362 26498810 
3118.596 26390912 26286104 26182766 26078782 25972256 25862732 25750880 
3121.971 25638812 25528878 25423506 25323286 25228464 25137840 25050288 
3125.346 24965246 24882780 24802998 24726002 24651508 24578008 24504032 
3128.722 24428456 24350648 24271280 24191398 24112058 24033818 23956362 
3132.097 23878780 23800336 23720578 23640412 23560892 23483348 23408716 
3135.472 23337316 23268760 23202274 23137336 23073108 23008786 22942900 
3138.847 22873672 22798622 22715730 22623918 22523750 22416940 22306496 
3142.223 22195240 22085306 21977594 21871998 21768068 21665554 21564702 
3145.598 21466342 21370966 21278952 21189774 21102944 21017836 20934692 
3148.973 20854068 20777038 20703670 20633234 20563608 20492500 20417548 
3152.348 20337506 20252998 20165662 20077512 19990036 19904036 19819234 
3155.724 19735002 19650992 19567764 19486350 19407520 19332098 19259458 
3159.099 19188286 19116986 19044626 18970442 18894820 18818588 18741780 
3162.474 18664120 18584536 18501858 18415530 18325728 18233284 18139408 
3165.849 18045278 17951306 17857526 17763628 17669474 17575548 17482402 
3169.225 17390552 17300100 17210356 17120320 17028890 16935758 16841646 
3172.600 16747935 16656205 16568074 16483851 16403394 16325841 16250366 
3175.975 16176557 16104065 16032446 15961355 15889827 15816558 15740864 
3179.350 15662707 15582816 15502560 15423143 15345491 15269535 15194518 
3182.726 15119481 15043804 14967764 14892010 14817471 14744863 14673742 
3186.101 14603145 14531909 14458734 14383514 14306664 14228905 14151397 
3189.476 14074828 13999367 13925049 13851838 13779837 13709112 13639869 
3192.851 13572176 13505792 13440102 13375139 13310391 13246336 13183041 
3196.227 13120918 13059554 12998506 12937023 12874729 12811899 12749214 
3199.602 12687971 12628817 12572775 12519673 12469613 12422490 12378441 
3202.977 12338147 12301707 12269224 12239334 12210434 12180241 12147086 
3206.352 12109436 12067326 12020861 11970381 11915854 11856806 11792419 
3209.728 11722154 11646217 11566038 11483493 11401203 11321138 11245065 
3213.103 11173767 11107511 11046159 10989437 10936631 10887058 10839360 
3216.478 10792210 10744250 10694427 10642573 10588757 10533622 10477613 
3219.853 10421033 10364122 10306743 10249473 10193025 10138144 10085475 
3223.229 10035084 9986529 9938726 9890962 9842797 9794739 9747533 9701721 
3227.086 9657879 9615431 9573359 9530749 9487094 9443003 9399729 9358627 
3230.943 9320540 9284793 9250166 9214086 9174659 9130668 9082315 9030654 
3234.801 8977577 8924711 8873135 8823493 8775717 8729736 8684979 8640901 
3238.658 8596863 8552185 8505419 8456022 8403827 8348901 8292294 8234884 
3242.516 8177651 8121505 8067189 8015682 7967960 7925002 7887108 7853740 
3246.373 7822498 7790383 7753851 7710408 7659279 7601953 7541634 7482671 
3250.230 7428065 7380172 7338956 7303271 7270789 7239388 7207383 7173628 
3254.088 7137080 7097000 7052544 7003716 6950921 6895876 6840300 6786716 
3257.945 6736471 6690168 6647201 6606425 6566326 6525961 6484793 6443158 
3261.803 6400720 6357546 6313335 6268254 6222505 6177232 6133845 6093487 
3265.660 6056996 6024305 5994506 5966624 5939885 5913988 5888730 5864078 
3269.518 5839260 5812764 5782946 5748697 5709751 5667351 5623646 5581322 
3273.375 5541787 5505846 5472525 5440415 5408173 5375263 5341885 5309013 
3277.232 5277217 5246463 5215610 5183217 5148010 5109587 5068989 5027657 
3281.090 4987502 4949797 4914810 4881903 4850105 4818342 4786147 4753484 
3284.947 4720858 4688468 4656750 4625839 4596236 4568678 4544134 4523442 
3288.805 4506869 4493779 4482464 4470646 4455816 4436334 4411631 4382544 
3292.662 4350548 4317751 4285826 4255577 4227136 4199534 4171466 4141425 
3296.520 4108544 4072822 4035163 3997441 3962329 3932170 3909167 3893921 
3300.377 3886131 3884326 3886599 3890812 3895091 3898434 3899939 3898735 
3304.234 3893921 3884660 3870018 3849726 3823819 3792365 3755767 3713758 
3308.092 3665804 3611442 3550639 3484400 3414631 3344706 3277229 3214704 
3311.949 3158095 3107133 3060348 3016003 2972998 2930464 2888301 2846343 
3315.807 2804555 2762604 2720191 2677148 2634143 2592009 2551545 2513051 
3319.664 2476094 2439740 2402922 2365341 2327930 2291988 2259046 2229870 
3323.521 2203394 2177152 2147815 2112454 2069704 2020534 1967376 1914057 
3327.379 1863640 1817987 1777097 1739869 1704009 1667819 1630268 1591391 
3331.236 1551685 1512449 1475011 1440935 1411548 1388346 1372225 1363184 
3335.094 1360259 1360790 1361555 1358630 1348592 1329448 1300567 1262982 
3338.951 1219087 1172106 1124765 1080053 1039298 1003130 970619 940201 
3342.809 909653 876915 840794 801257 759499 718011 678850 644537 616332 
3347.148 594566 578839 567459 558369 548781 535610 515639 486249 445947 
3351.488 395004 336042 272911 210518 153503 104683 65378 35222 13320 -1491 
3356.310 -9542 -10768 -5599 4439 16865 27866 33201 30351 18290 -1292 -25048 
3361.614 -48604 -67853 -80044 -83456 -77957 -64242 -43635 -17693 11431 41021 
3366.435 68162 89769 103191 106572 98949 79827 49604 8747 -41216 -98463 
3371.257 -159742 -220815 -277408 -325420 -362004 -386402 -399810 -404676 
3375.115 -404411 -402127 -400008 -399644 -401730 -406430 -413713 -423445 
3378.972 -435328 -448635 -462801 -477166 -491199 -504735 -517411 -528629 
3382.829 -537896 -544547 -548121 -549412 -549213 -549743 -552225 -557122 
3386.687 -563277 -567711 -567248 -559207 -543058 -520919 -497189 -477397 
3390.544 -466045 -466210 -477993 -499374 -526445 -555633 -583495 -608113 
3394.402 -628363 -643450 -652713 -655558 -651357 -639777 -621811 -598915 
3398.259 -574032 -550239 -530847 -518701 -515855 -523401 -541106 -567149 
3402.116 -599312 -634153 -668957 -701212 -729826 -754138 -774380 -790157 
3405.974 -801468 -807553 -807917 -802691 -793365 -781921 -771238 -763465 
3409.831 -760323 -761613 -766674 -774016 -782814 -792373 -803287 -815920 
3413.689 -830604 -846742 -862946 -877992 -889995 -898096 -901965 -901899 
3417.546 -898592 -893037 -886556 -880406 -876537 -876272 -880307 -888904 
3421.404 -900708 -913802 -925870 -935293 -941245 -944319 -945609 -946799 
3425.261 -948783 -952320 -957048 -962239 -967561 -972487 -976355 -978835 
3429.118 -979033 -976521 -971099 -963330 -955131 -948617 -946039 -949014 
3432.976 -957775 -971661 -989215 -1009414 -1031528 -1056055 -1082960 
3436.351 -1112540 -1143539 -1174304 -1202491 -1225983 -1244452 -1258164 
3439.726 -1268537 -1277193 -1285056 -1291861 -1296982 -1299492 -1298733 
3443.102 -1295627 -1291663 -1289020 -1289416 -1294636 -1305075 -1320932 
3446.477 -1341346 -1365293 -1390891 -1415661 -1436632 -1451394 -1457932 
3449.852 -1455918 -1447035 -1434155 -1420615 -1409485 -1402252 -1399148 
3453.227 -1399247 -1401228 -1404069 -1407404 -1411896 -1417874 -1425536 
3456.603 -1434386 -1443633 -1452517 -1460574 -1468500 -1476821 -1486100 
3459.978 -1496204 -1506110 -1514629 -1520573 -1523148 -1522223 -1518294 
3463.353 -1511426 -1501785 -1489039 -1472958 -1453871 -1433330 -1413514 
3466.728 -1397199 -1386663 -1382997 -1386102 -1394656 -1407107 -1421176 
3470.104 -1435542 -1448917 -1459881 -1467212 -1469788 -1466650 -1457833 
3473.479 -1443897 -1425932 -1405390 -1382237 -1356078 -1325886 -1290507 
3476.854 -1249937 -1205762 -1159864 -1115085 -1073143 -1034140 -996455 
3480.229 -957544 -914563 -865294 -808810 -745042 -674118 -597029 -514101 
3484.087 -426292 -335617 -244824 -157523 -77394 -7455 50963 97425 132622 
3488.426 156918 170010 170706 157614 130136 88642 34759 -29455 -102140 
3492.766 -182298 -269792 -365083 -467567 -575521 -686160 -795779 -901800 
3496.623 -1002141 -1096444 -1185110 -1268372 -1345574 -1415529 -1476524 
3499.999 -1528035 -1570856 -1608227 -1643482 -1680120 -1719660 -1761539 
3503.374 -1802226 -1838257 -1866862 -1886755 -1899490 -1907473 -1913609 
3506.749 -1920206 -1928321 -1937690 -1947618 -1957052 -1964903 -1970873 
3510.124 -1974270 -1974996 -1973215 -1969653 -1965463 -1963055 -1963979 
3513.500 -1969586 -1979679 -1993004 -2007352 -2021269 -2033637 -2044982 
3516.875 -2056590 -2069715 -2085015 -2101470 -2117231 -2130156 -2138399 
3520.250 -2141499 -2140345 -2137048 -2133651 -2131904 -2132893 -2137048 
3523.625 -2144367 -2155280 -2170084 -2189073 -2212480 -2240071 -2270429 
3527.000 -2301873 -2332820 -2360833 -2384427 -2402024 -2412964 -2416852 
3530.376 -2414710 -2408054 -2399717 -2391743 -2385976 -2383307 -2382813 
3533.751 -2382944 -2381297 -2377738 -2372696 -2368610 -2368247 -2374344 
3537.126 -2387657 -2406834 -2428647 -2448977 -2464231 -2472204 -2472040 
3540.501 -2464890 -2452370 -2436424 -2418763 -2401266 -2385317 -2372993 
3543.877 -2366567 -2367753 -2378100 -2397608 -2424529 -2455896 -2487919 
3547.252 -2516613 -2538915 -2553343 -2559338 -2558316 -2552354 -2544152 
3550.627 -2536510 -2531931 -2531931 -2536642 -2545700 -2557230 -2569186 
3554.002 -2579628 -2586973 -2589773 -2587335 -2579529 -2566617 -2550049 
3557.378 -2531865 -2514933 -2502382 -2496715 -2498923 -2508443 -2522905 
3560.753 -2538717 -2552651 -2562039 -2565662 -2564081 -2559239 -2553211 
3564.128 -2548896 -2549060 -2555681 -2570866 -2595569 -2628867 -2668551 
3567.503 -2710174 -2748434 -2778757 -2798181 -2806016 -2803942 -2794757 
3570.879 -2781588 -2766971 -2752879 -2740005 -2728909 -2719854 -2713466 
3574.254 -2710009 -2710075 -2712939 -2717582 -2722423 -2726176 -2727823 
3577.629 -2727526 -2725551 -2723279 -2721139 -2719064 -2716463 -2712841 
3581.004 -2707177 -2699406 -2689396 -2677179 -2662886 -2646980 -2630217 
3584.380 -2614508 -2602782 -2599291 -2607723 -2630975 -2668650 -2717220 
3587.755 -2770098 -2819184 -2857797 -2882023 -2891601 -2887849 -2874486 
3591.130 -2854835 -2831628 -2807366 -2784156 -2763514 -2747051 -2735593 
3594.505 -2728942 -2726341 -2725814 -2725880 -2724629 -2721896 -2717879 
3597.881 -2713927 -2711458 -2711919 -2716133 -2724530 -2736581 -2750969 
3601.256 -2766148 -2779580 -2788469 -2791037 -2785802 -2772831 -2753801 
3604.631 -2732103 -2711721 -2696706 -2690153 -2693347 -2705399 -2723411 
3608.006 -2743002 -2760221 -2771481 -2775728 -2773851 -2768781 -2764040 
3611.382 -2762921 -2767728 -2778132 -2791959 -2804897 -2811843 -2808946 
3614.757 -2794658 -2770197 -2740071 -2710075 -2686366 -2673952 -2675400 
3618.132 -2690219 -2714652 -2743298 -2770691 -2792189 -2806214 -2812765 
3621.507 -2813522 -2810395 -2804272 -2794790 -2781029 -2760847 -2732663 
3624.883 -2696706 -2655641 -2615331 -2584206 -2572744 -2590365 -2642469 
3628.258 -2725353 -2824583 -2920203 -2990991 -3025640 -3024521 -2996486 
3631.633 -2953838 -2908322 -2868462 -2837685 -2816057 -2800189 -2786527 
3635.008 -2772370 -2757390 -2742738 -2730193 -2720941 -2714191 -2708527 
3638.384 -2702337 -2694236 -2684292 -2674314 -2666180 -2661306 -2660055 
3641.759 -2661174 -2662327 -2661701 -2657222 -2648891 -2637529 -2624948 
3645.134 -2613849 -2606603 -2606076 -2615199 -2636277 -2671053 -2719525 
3648.509 -2779778 -2846276 -2910889 -2964764 -2999086 -3007608 -2989346 
3651.885 -2946992 -2887882 -2820633 -2756270 -2703950 -2671218 -2662261 
3655.260 -2675433 -2704148 -2736449 -2760748 -2768814 -2759036 -2735067 
3658.635 -2704872 -2676224 -2654719 -2642864 -2640097 -2642732 -2647902 
3662.010 -2652941 -2656827 -2659593 -2662261 -2664434 -2665356 -2663545 
3665.385 -2657585 -2647211 -2633972 -2621358 -2614474 -2619250 -2640262 
3668.761 -2679714 -2734968 -2797786 -2855394 -2894630 -2906808 -2890680 
3672.136 -2852827 -2805917 -2765522 -2746492 -2760188 -2809308 -2884953 
3675.511 -2965915 -3027713 -3053871 -3041039 -2998493 -2941134 -2882945 
3678.886 -2833010 -2794428 -2765423 -2741388 -2718043 -2693611 -2668090 
3682.262 -2643193 -2620172 -2597842 -2573600 -2544515 -2509794 -2471644 
3685.637 -2436852 -2413161 -2409141 -2429010 -2471677 -2528472 -2588060 
3689.012 -2638714 -2673589 -2692721 -2699373 -2698122 -2691338 -2678693 
3692.387 -2658474 -2630250 -2595438 -2558481 -2525178 -2501229 -2489501 
3695.763 -2490324 -2499746 -2512396 -2523696 -2530482 -2533348 -2535258 
3699.138 -2540628 -2552980 -2574424 -2603902 -2637792 -2671053 -2698748 
3702.513 -2716924 -2724727 -2723707 -2716101 -2705597 -2695455 -2687288 
3705.888 -2681427 -2677179 -2672470 -2665818 -2656662 -2646223 -2637924 
3709.264 -2637331 -2649187 -2677607 -2722423 -2779317 -2839759 -2893511 
3712.639 -2931393 -2947947 -2942879 -2919676 -2884459 -2844499 -2805457 
3716.014 -2772271 -2747578 -2731840 -2723871 -2721698 -2722620 -2724629 
3719.389 -2725748 -2725649 -2723806 -2719986 -2713730 -2704708 -2692721 
3722.765 -2678529 -2663973 -2652151 -2646717 -2650834 -2665818 -2690120 
3726.140 -2718932 -2744911 -2760090 -2758213 -2737602 -2700756 -2654357 
3729.515 -2607887 -2571459 -2552387 -2553837 -2574127 -2606372 -2641678 
3732.890 -2672832 -2698385 -2722093 -2751430 -2792420 -2846507 -2907499 
3736.266 -2963447 -3001389 -3012840 -2996552 -2957425 -2903780 -2843050 
3739.641 -2780502 -2718043 -2656366 -2596854 -2544745 -2508740 -2500767 
3743.016 -2531602 -2604133 -2705860 -2811152 -2887224 -2912929 -2886664 
3746.391 -2823661 -2745405 -2673227 -2623367 -2603902 -2615660 -2652612 
3749.767 -2705070 -2764600 -2825768 -2885216 -2940871 -2987601 -3017776 
3753.142 -3025147 -3006588 -2964632 -2906808 -2843610 -2783531 -2733585 
3756.517 -2696377 -2670955 -2654489 -2644576 -2639768 -2640394 -2646355 
3759.892 -2655905 -2665093 -2669111 -2664138 -2649549 -2629098 -2608447 
3763.268 -2593890 -2590168 -2597282 -2612004 -2628143 -2640097 -2645433 
3766.643 -2646322 -2647441 -2655082 -2672832 -2701118 -2736054 -2771843 
3770.018 -2801967 -2822048 -2831266 -2831364 -2825406 -2816419 -2806477 
3773.393 -2795975 -2784979 -2772568 -2757719 -2740005 -2719657 -2697826 
3776.769 -2677179 -2661042 -2652809 -2655543 -2669012 -2690779 -2714817 
3780.144 -2734704 -2744812 -2742936 -2730819 -2712215 -2692524 -2676224 
3783.519 -2665455 -2660219 -2659034 -2659297 -2658770 -2656827 -2653172 
3786.894 -2647804 -2641382 -2633511 -2623729 -2612466 -2600510 -2589245 
3790.270 -2580155 -2574028 -2570932 -2570273 -2571294 -2574391 -2580813 
3793.645 -2593165 -2613750 -2643654 -2681097 -2720875 -2755875 -2777605 
3797.020 -2780238 -2762394 -2728119 -2685016 -2644049 -2616879 -2612861 
3800.395 -2636376 -2684357 -2744121 -2797259 -2826229 -2822279 -2787185 
3803.771 -2732235 -2673392 -2628241 -2610094 -2625672 -2671482 -2734671 
3807.146 -2795877 -2837290 -2849436 -2833636 -2798609 -2755283 -2712182 
3810.521 -2673425 -2638550 -2604627 -2568923 -2532162 -2498659 -2476388 
3813.896 -2473489 -2496353 -2544383 -2609798 -2676487 -2726538 -2747380 
3817.271 -2735165 -2696245 -2643424 -2593000 -2559338 -2554100 -2581933 
3820.647 -2638253 -2708725 -2773457 -2815366 -2825209 -2805358 -2764798 
3824.022 -2716759 -2673128 -2641579 -2624289 -2618723 -2617570 -2613421 
3827.397 -2600872 -2579068 -2551202 -2523267 -2500471 -2486766 -2483274 
3830.772 -2488150 -2497901 -2508279 -2516119 -2518689 -2515493 -2506796 
3834.148 -2494278 -2480869 -2470491 -2467625 -2476257 -2497934 -2530943 
3837.523 -2569845 -2606702 -2633544 -2646881 -2646486 -2636541 -2623005 
3840.898 -2611774 -2606372 -2608612 -2617439 -2630580 -2644873 -2656761 
3844.273 -2663249 -2662063 -2651459 -2631403 -2603079 -2568956 -2531305 
3847.649 -2492268 -2452502 -2411151 -2366830 -2319407 -2271253 -2229259 
3851.024 -2204798 -2210502 -2258365 -2352100 -2481429 -2621523 -2741717 
3854.399 -2819118 -2846178 -2831068 -2788436 -2733124 -2675137 -2620008 
3857.774 -2569944 -2525541 -2486832 -2454380 -2428845 -2410426 -2397707 
3861.150 -2389304 -2383307 -2379517 -2379517 -2386438 -2402650 -2427000 
3864.525 -2454018 -2474148 -2478134 -2460047 -2421069 -2369961 -2320429 
3867.900 -2286943 -2280812 -2306257 -2357241 -2418565 -2471183 -2501492 
3871.275 -2504721 -2487194 -2459026 -2432503 -2415665 -2410888 -2414611 
3874.651 -2419586 -2418268 -2405286 -2380407 -2347156 -2312288 -2283185 
3878.026 -2266441 -2266342 -2283746 -2315782 -2354934 -2391776 -2416917 
3881.401 -2423903 -2411678 -2384427 -2350650 -2320626 -2304806 -2310442 
3884.776 -2339214 -2385152 -2436325 -2477772 -2497374 -2490127 -2459487 
3888.152 -2414973 -2368247 -2331041 -2312387 -2315946 -2339873 -2376354 
3891.527 -2414973 -2445781 -2462617 -2463902 -2452436 -2432140 -2406933 
3894.902 -2379583 -2352133 -2325109 -2299961 -2278439 -2262650 -2254509 
3898.277 -2255234 -2263672 -2277351 -2292612 -2306422 -2317430 -2326789 
3901.653 -2336643 -2350716 -2370323 -2395038 -2422025 -2446736 -2464429 
3905.028 -2471117 -2465780 -2448516 -2421300 -2386800 -2347618 -2306158 
3908.403 -2264793 -2225567 -2189601 -2157621 -2128673 -2101206 -2072946 
3911.778 -2042211 -2008077 -1971763 -1936337 -1905691 -1883720 -1873658 
3915.154 -1876495 -1890945 -1914236 -1942802 -1972852 -2002470 -2030405 
3918.529 -2057084 -2083070 -2108197 -2131640 -2152148 -2167809 -2178227 
3921.904 -2184392 -2188051 -2191909 -2198963 -2210271 -2225501 -2243070 
3925.279 -2259453 -2271484 -2277219 -2275769 -2268056 -2255794 -2241258 
3928.655 -2226523 -2213337 -2203348 -2197744 -2197216 -2202590 -2212941 
3932.030 -2227446 -2243730 -2258926 -2271023 -2278966 -2282361 -2282658 
3935.405 -2281636 -2280153 -2278768 -2276659 -2271913 -2263606 -2251476 
3938.780 -2235951 -2219567 -2205425 -2195634 -2192007 -2194711 -2201864 
3942.156 -2210963 -2218710 -2222270 -2220095 -2211589 -2197777 -2181425 
3945.531 -2165864 -2154720 -2151324 -2157654 -2173314 -2196128 -2221908 
3948.906 -2245708 -2263244 -2272539 -2272934 -2266243 -2254904 -2241455 
3952.281 -2227347 -2213304 -2199557 -2185842 -2172754 -2161050 -2151621 
3955.656 -2144895 -2140213 -2136322 -2131970 -2125936 -2118056 -2109384 
3959.032 -2101338 -2095699 -2093061 -2093358 -2095370 -2097744 -2098997 
3962.407 -2098535 -2096293 -2093589 -2090588 -2088049 -2086401 -2085081 
3965.782 -2084191 -2083631 -2083532 -2083696 -2084653 -2086367 -2088676 
3969.157 -2091940 -2096194 -2101569 -2107999 -2115154 -2122276 -2128673 
3972.533 -2133157 -2135036 -2134443 -2131739 -2127881 -2124057 -2121386 
3975.908 -2120825 -2122738 -2127354 -2134311 -2142620 -2151324 -2158445 
3979.283 -2163325 -2165270 -2164215 -2161743 -2159270 -2158182 -2159632 
3982.658 -2163127 -2167776 -2172029 -2174831 -2175589 -2174864 -2173743 
3986.034 -2172952 -2173051 -2173941 -2174303 -2173644 -2171106 -2166787 
3989.409 -2160687 -2153500 -2144565 -2133915 -2121023 -2105889 -2089401 
3992.784 -2073441 -2059756 -2050390 -2046004 -2046169 -2049566 -2054512 
3996.159 -2059558 -2064109 -2068330 -2072551 -2077332 -2082542 -2087950 
3999.535 -2092995 -2097942 -2103119 
##END=
