
##TITLE=Z140a_3_d
##JCAMP-DX=5.01  $$ Nicolet v. 1
##DATATYPE=INFRARED SPECTRUM
##ORIGIN=UniL
##OWNER=Nicolet
##LONGDATE=2011/09/20
##TIME=11:24:48
##SPECTROMETER/DATA SYSTEM=Nicolet iS5
##DATA PROCESSING=
Ratio against background
%Transmittance->Absorbance
Truncated
ElementMultiply or ElementDivide
##COMMENTS=
Number of sample scans: 32
Collection length: 51.18 sec
Sample gain: 2.0
Background collected on: Mar Sep 20 11:15:18 2011 (GMT+02:00);
Number of background scans: 32
Background gain: 2.0
Sample spacing:  1.000
Number of scan points: 12415
Resolution points: 8192
Number of FFT points: 65536
Apodization: N-B fort;
Phase correction: Mertz;
Laser frequency: 15798.0 cm-1
Number of rejected sample scans: 0
Number of rejected background scans: 0
Bench serial number: ASB1000141;
##RESOLUTION=4.000
##XUNITS=1/CM
##YUNITS=ABSORBANCE
##FIRSTX=649.893372
##LASTX=4000.122314
##FIRSTY=0.081218
##MAXX=4000.122314
##MINX=649.893372
##MAXY=0.562824
##MINY=-0.002755
##XFACTOR=1.000000
##YFACTOR=1.000000E-009
##NPOINTS=6950
##DELTAX=0.482117
##ZPD=6100
##XYDATA=(X++(Y..Y))
649.893 81217664 77275072 74237656 72083000 70737024 70084504 69975920 
653.268 70266176 70843424 71645904 72666456 73928240 75455128 77248072 
656.643 79286496 81550072 84046768 86832784 90009632 93688072 97974752 
660.018 102951920 108686192 115269496 122830440 131510080 141412192 
662.911 152509184 164596176 177242384 189870032 201794256 212120368 
665.803 219779456 223451136 221734800 213825744 200240480 183034800 
668.696 164838496 147738752 132694856 119744296 108556800 98782096 90198040 
672.071 82748520 76450904 71297672 67213136 64038300 61584484 59670900 
675.446 58172424 57017084 56157172 55547112 55130964 54845304 54643508 
678.820 54506636 54445072 54481432 54631292 54886996 55219560 55591436 
682.195 55976212 56369824 56789128 57257636 57788948 58378632 59007032 
685.570 59653792 60312024 60995852 61735060 62563500 63501248 64547256 
688.945 65683404 66887876 68149192 69474328 70887376 72420784 74106152 
692.320 75966880 78023624 80302984 82843056 85700400 88943472 92638328 
695.694 96846728 101619360 107001992 113054112 119864528 127563088 136340752 
699.069 146434336 158105840 171610800 187113296 204591488 223670576 
701.962 243551648 262868848 279658400 291758944 297097280 294303744 
704.855 283221472 264945024 241558400 215448160 188951408 163896912 
707.747 141400000 122066912 106011248 93027952 82752040 74749752 68597376 
711.122 63892484 60298588 57543336 55403520 53722580 52391600 51336348 
714.497 50509860 49874336 49393444 49033108 48760552 48550336 48388704 
717.872 48269712 48192328 48155160 48153164 48179112 48227576 48297744 
721.247 48395188 48528772 48706356 48929964 49195688 49494772 49818772 
724.621 50163028 50527316 50913332 51321580 51748132 52185336 52624816 
727.996 53062344 53500688 53949456 54421676 54927680 55472220 56053864 
731.371 56666944 57307236 57974984 58675840 59419128 60213736 61064564 
734.746 61973160 62938348 63960204 65042504 66193252 67423448 68745240 
738.121 70168224 71700776 73350064 75124080 77032992 79089872 81309232 
741.496 83708976 86309648 89135488 92218888 95601376 99332768 103477336 
744.870 108110024 113315168 119194432 125858368 133427176 142033680 
747.763 151811728 162894272 175404400 189436224 205023872 222078480 
750.656 240351968 259322432 278125888 295640288 310458944 321132800 
753.548 326498144 325831392 319058624 306713024 289811328 269611456 
756.441 247373824 224300944 201374432 179344432 158807760 140161568 
759.334 123660760 109452840 97544992 87835680 80122872 74143280 69600128 
762.709 66199696 63698800 61890964 60613568 59745604 59182160 58835924 
766.083 58640876 58545736 58520252 58550700 58631128 58756444 58919364 
769.458 59110324 59323056 59559836 59832492 60158248 60553384 61026964 
772.833 61577304 62195216 62869296 63592872 64365996 65194704 66085404 
776.208 67042396 68065896 69154752 70311096 71543808 72867480 74300360 
779.583 75858640 77552384 79388512 81373800 83522440 85862160 88434568 
782.958 91294352 94510048 98154488 102307440 107050872 112453032 118553568 
786.332 125332640 132692832 140426256 148214944 155683808 162403744 
789.225 167977264 172112992 174644896 175571264 175031312 173281232 
792.118 170626928 167371680 163810864 160190656 156719136 153586592 
795.010 150950624 148951344 147716224 147349184 147946176 149599232 
797.903 152391008 156400640 161687968 168274576 176112256 185040624 
800.796 194769712 204792960 214387424 222673520 228595680 231145792 
803.689 229560832 223446208 212944240 198699344 181771568 163372816 
806.581 144690656 126766280 110307960 95749840 83277248 72864816 64370840 
809.956 57583584 52274124 48208248 45166340 42963800 41435344 40446604 
813.331 39896596 39699956 39788912 40107424 40602724 41230064 41954752 
816.706 42751544 43606904 44515272 45473736 46478312 47521552 48594916 
820.081 49691180 50809328 51954524 53135696 54362788 55642540 56976052 
823.455 58361536 59796744 61282532 62824116 64430328 66110140 67872088 
826.830 69723400 71672632 73734536 75933456 78303128 80889528 83743168 
830.205 86918096 90471656 94460960 98947888 104003224 109703576 116138464 
833.580 123408784 131617472 140866352 151232112 162739152 175306656 
836.473 188696064 202489488 215996224 228299600 238348240 244991920 
839.365 247265216 244583648 236881008 224680224 208976192 191071936 
842.258 172247360 153645728 136177504 120410864 106674264 95075536 85542376 
845.633 77893384 71876288 67226512 63678652 60999968 59007756 57549124 
849.008 56507356 55794124 55333812 55067540 54950616 54948136 55036512 
852.382 55199884 55425016 55701072 56018056 56368236 56748760 57161324 
855.757 57610864 58102196 58636284 59208056 59807884 60423396 61043324 
859.132 61661044 62273948 62881248 63482224 64073204 64648336 65201328 
862.507 65728112 66229180 66709036 67174760 67632392 68085160 68533120 
865.882 68974208 69407296 69833592 70256560 70681544 71112992 71552872 
869.256 72001064 72456800 72919840 73393144 73881848 74391744 74927992 
872.631 75493448 76088896 76714256 77371080 78062568 78795008 79574968 
876.006 80409032 81303120 82263032 83296632 84416360 85639136 86987880 
879.381 88487936 90162192 92027096 94085472 96321576 98692880 101125592 
882.756 103523552 105762032 107710120 109254520 110307240 110830728 
885.648 110840600 110403144 109617416 108595256 107449496 106270168 
888.541 105126416 104071688 103147088 102392744 101851424 101561416 
891.434 101554688 101847944 102439056 103309096 104427456 105762000 
894.327 107281912 108963488 110791080 112753400 114843136 117054896 
897.219 119385872 121836608 124412224 127123072 129982232 133004040 
900.112 136202032 139586784 143164976 146941632 150920512 155106880 
903.005 159508688 164137792 169011344 174152784 179591824 185368656 
905.897 191534480 198150240 205290688 213038208 221476400 230690960 
908.790 240760464 251754640 263731120 276731328 290769952 305808288 
911.683 321738752 338341024 355228800 371873280 387562496 401430016 
914.575 412592224 420177536 423466784 422033920 415783808 405013984 
917.468 390360160 372746016 353233472 332848608 312563616 293157376 
920.361 275186432 259056624 244981456 233027344 223154704 215226032 
923.254 209039328 204343504 200879744 198387152 196614608 195352480 
926.146 194413792 193639840 192908656 192115472 191178240 190040240 
929.039 188662096 187023424 185120128 182956240 180540672 177883120 
931.932 174995104 171891440 168591456 165121504 161510864 157789120 
934.824 153983744 150117152 146209024 142278960 138346160 134431968 
937.717 130557208 126738864 122990016 119320360 115736032 112244496 
940.610 108854576 105574816 102414224 99378336 96469144 93686304 91028104 
943.985 88493224 86081784 83794240 81630440 79588416 77665096 75856744 
947.359 74160624 72575056 71099288 69731416 68467984 67303072 66229680 
950.734 65242140 64336716 63512520 62770240 62109652 61528248 61021248 
954.109 60582296 60206584 59892388 59641704 59459476 59351128 59321844 
957.484 59375176 59514652 59746136 60079096 60527744 61112200 61854896 
960.859 62783792 63932216 65338032 67049004 69120720 71608784 74567288 
964.233 78034536 82023232 86508720 91421560 96650280 102027368 107350584 
967.608 112400144 116938336 120752680 123666664 125543296 126301752 
970.501 125909192 124378472 121763584 118160640 113710880 108586200 
973.394 103000144 97195104 91406840 85871168 80788512 76296128 72477200 
976.768 69348912 66877284 64991816 63605456 62631668 61985736 61597044 
980.143 61407396 61367208 61439836 61598384 61824828 62109192 62445808 
983.518 62830240 63257208 63720284 64212432 64728864 65267132 65827808 
986.893 66412576 67022868 67658296 68317304 68998288 69701848 70430944 
990.268 71192184 71992616 72839000 73737208 74692248 75710104 76800056 
993.643 77975608 79255352 80664016 82228512 83979096 85945024 88147536 
997.017 90592304 93256744 96085968 98981432 101810664 104435128 106721200 
1000.392 108582624 110002528 111044696 111845520 112585088 113471832 
1003.285 114691832 116390544 118670040 121581312 125140456 129340456 
1006.178 134164288 139587552 145573936 152074112 159004864 166235328 
1009.070 173591808 180829584 187641360 193691024 198597920 201991520 
1011.963 203565680 203094544 200496368 195849680 189400608 181521840 
1014.856 172653488 163275568 153813504 144620960 135979520 128068432 
1017.748 120993000 114796560 109468440 104963944 101215472 98149048 95688264 
1021.123 93762408 92312648 91286544 90639776 90336728 90345984 90641328 
1024.498 91201792 92006216 93032264 94254008 95635064 97131576 98692800 
1027.873 100259664 101776112 103191632 104466520 105581072 106537040 
1030.766 107360768 108098632 108817072 109594904 110507912 111626576 
1033.659 113000560 114648128 116550800 118648096 120844880 123004752 
1036.552 124970112 126581400 127679600 128139224 127880024 126871776 
1039.446 125139536 122755448 119830384 116486504 112848040 109028312 
1042.339 105113624 101172600 97259472 93417728 89691568 86125824 82761104 
1045.714 79635216 76776208 74199528 71910184 69902360 68161904 66665768 
1049.089 65385596 64290112 63345372 62522100 61797020 61153012 60580620 
1052.464 60074188 59628932 59239504 58899364 58601548 58340960 58115072 
1055.840 57923300 57765560 57640528 57544508 57472412 57418672 57380136 
1059.215 57356464 57350492 57366296 57407100 57474532 57568908 57689644 
1062.590 57837776 58016488 58230916 58487272 58790816 59145480 59554020 
1065.965 60018984 60543668 61132988 61792208 62526004 63337484 64226724 
1069.341 65191700 66229528 67337384 68513488 69756624 71066272 72441184 
1072.716 73880664 75384056 76952872 78591144 80306808 82112288 84022600 
1076.091 86056944 88238752 90593240 93150456 95944776 99011560 102388936 
1079.466 106113488 110213568 114705080 119580144 124801760 130288824 
1082.359 135915632 141522624 146907888 151862112 156191280 159726240 
1085.252 162360256 164059280 164874368 164936720 164451184 163688560 
1088.146 162931824 162472800 162584320 163476992 165305024 168140320 
1091.039 171960928 176632208 181889824 187360160 192516656 196735824 
1093.932 199390720 199876928 197776256 192943120 185535792 175999840 
1096.825 164969712 153199088 141383952 130105656 119801392 110705264 
1099.718 102899304 96342424 90915544 86459592 82803440 79793744 77286904 
1103.093 75157400 73305344 71645200 70113976 68671424 67293672 65971152 
1106.468 64702600 63491388 62343056 61266392 60274224 59382620 58607352 
1109.844 57961464 57450440 57071268 56814084 56667320 56620360 56666072 
1113.219 56800116 57017764 57311472 57670724 58083520 58539820 59035312 
1116.594 59570440 60149232 60775248 61448956 62166728 62923872 63718132 
1119.969 64551792 65432476 66370448 67374416 68448704 69592544 70802232 
1123.344 72073736 73405264 74797808 76254384 77780768 79386168 81089168 
1126.720 82923856 84940680 87215408 89846480 92947096 96658688 101139352 
1130.095 106553592 113067872 120799584 129763784 139784864 150447152 
1132.988 161053536 170605328 178023728 182303248 182770144 179318288 
1135.881 172442592 163152880 152640688 142128896 132620840 124739672 
1138.774 118806056 114835752 112637352 111878704 112164136 113102648 
1141.667 114298064 115412712 116189120 116451712 116143184 115316512 
1144.560 114122952 112761048 111439424 110340896 109581472 109218424 
1147.453 109257840 109675592 110435528 111500968 112842112 114430304 
1150.346 116238224 118242544 120424160 122773952 125292656 127985224 
1153.240 130852368 133882376 137044304 140293376 143578960 146851856 
1156.133 150077792 153238976 156330672 159355728 162318320 165221024 
1159.026 168066880 170863216 173625104 176374016 179134880 181930512 
1161.919 184776832 187685248 190668016 193742944 196941680 200307008 
1164.812 203886640 207730032 211878304 216363840 221216000 226465200 
1167.705 232148928 238313840 245008336 252277200 260152816 268653120 
1170.598 277782304 287535680 297909344 308896448 320482656 332641376 
1173.491 345315136 358414784 371835008 385454528 399165408 412889536 
1176.384 426571584 440173568 453654944 466952896 479980416 492632512 
1179.277 504792288 516341216 527146528 537034176 545776192 553073536 
1182.170 558570752 561923648 562823808 561044544 556472832 549084992 
1185.063 538952128 526241472 511225152 494287520 475892672 456569216 
1187.956 436829120 417104288 397749536 379005152 361018528 343883552 
1190.849 327642208 312303232 297849664 284234496 271391168 259242272 
1193.742 247715744 236753824 226317728 216384000 206937424 197963072 
1196.635 189444064 181366400 173728128 166542544 159847136 153697184 
1199.529 148155152 143291984 139172896 135852464 133380056 131789160 
1202.422 131096888 131299328 132368952 134252064 136866224 140114176 
1205.315 143881312 148040848 152473552 157058272 161681424 166248592 
1208.208 170677616 174911376 178925616 182733104 186388080 189976496 
1211.101 193616768 197436800 201555248 206077520 211073360 216569904 
1213.994 222541296 228904736 235514400 242150416 248551456 254415808 
1216.887 259425936 263306880 265829808 266833120 266230112 263985248 
1219.780 260104352 254627024 247626992 239219264 229557872 218839744 
1222.673 207286096 195121552 182580320 169885328 157244880 144867472 
1225.566 132935312 121603096 111000544 101211664 92287408 84252600 77103856 
1228.941 70820600 65364376 60681424 56703036 53350392 50546264 48215100 
1232.317 46290872 44722256 43464788 42481400 41740512 41211520 40868100 
1235.692 40689504 40659232 40765236 40997316 41342512 41784904 42304876 
1239.067 42880404 43491852 44122572 44759316 45392140 46011260 46605740 
1242.442 47164652 47677796 48139316 48549520 48915464 49249388 49565296 
1245.818 49878424 50203676 50556724 50958748 51437084 52024736 52763300 
1249.193 53696144 54867408 56323912 58110604 60271104 62844412 65852716 
1252.568 69288240 73093104 77154664 81285896 85234544 88729624 91492688 
1255.943 93306352 94063952 93785720 92622904 90811592 88649560 86420208 
1259.319 84349200 82598168 81241192 80287160 79703848 79449144 79492744 
1262.694 79829144 80476584 81468520 82840328 84614280 86794584 89362600 
1266.069 92282408 95497408 98935120 102514064 106136080 109695856 113092368 
1269.444 116226096 119016800 121412520 123392144 124970984 126197040 
1272.337 127150552 127928824 128641856 129411504 130353856 131582576 
1275.230 133203816 135301088 137937600 141150080 144948832 149320432 
1278.124 154232496 159643616 165499824 171740448 178302336 185107504 
1281.017 192067664 199085856 206046320 212829392 219318416 225398832 
1283.910 230974384 235969216 240330144 244036272 247105792 249607712 
1286.803 251655696 253411024 255067232 256806736 258794512 261148128 
1289.696 263920368 267102272 270621312 274358080 278140256 281764768 
1292.589 285024608 287710656 289660672 290786656 291092416 290681632 
1295.482 289739488 288519552 287286880 286299840 285798720 285969664 
1298.375 286953824 288835072 291627904 295269984 299612960 304448256 
1301.268 309497568 314452352 319026912 322954336 326024896 328096352 
1304.161 329074848 328918144 327626944 325242048 321836256 317502400 
1307.054 312341824 306442208 299871328 292678400 284901216 276579328 
1309.947 267762000 258506976 248878784 238944192 228767552 218420784 
1312.840 207987568 197559120 187237712 177121200 167286336 157793808 
1315.733 148683136 139979552 131710752 123907240 116601896 109828832 
1318.626 103610912 97956072 92857056 88293320 84235464 80647424 77489880 
1322.002 74717400 72277648 70117216 68179112 66408476 64758212 63184740 
1325.377 61648828 60116768 58555856 56939900 55253540 53494808 51677700 
1328.752 49827360 47977136 46158228 44394804 42704528 41098120 39583396 
1332.127 38168348 36858984 35658432 34563752 33565784 32651036 31806484 
1335.503 31023564 30299818 29637614 29039930 28507212 28035014 27616468 
1338.878 27244888 26918642 26641716 26421616 26264458 26170764 26134132 
1342.253 26143562 26188044 26259670 26356548 26481376 26638298 26829498 
1345.628 27053540 27305960 27583312 27884832 28215268 28582512 28996360 
1349.004 29464074 29989910 30575390 31222366 31935562 32723986 33599576 
1352.379 34574980 35661380 36866776 38197036 39658860 41262016 43021672 
1355.754 44959436 47099908 49469928 52096232 55001684 58205080 61718868 
1359.129 65549172 69691384 74127016 78822384 83714720 88710120 93689096 
1362.505 98506864 103023664 107130672 110764824 113914168 116600552 
1365.398 118859504 120719944 122196536 123293152 124012904 124368416 
1368.291 124386456 124101208 123546992 122746960 121707536 120418216 
1371.184 118853712 116978328 114745560 112105072 109017192 105465736 
1374.077 101478624 97131688 92539904 87827928 83101840 78442072 73898968 
1377.452 69509672 65318964 61378084 57743456 54462800 51555456 49010856 
1380.827 46793720 44862764 43182124 41730188 40497344 39475136 38646448 
1384.203 37983916 37451100 37013708 36650012 36353844 36133632 36003224 
1387.578 35972196 36039372 36195212 36428388 36733264 37111324 37568136 
1390.953 38107900 38728960 39423140 40181348 40998004 41875748 42825036 
1394.328 43858540 44982404 46190656 47468696 48801740 50184300 51624744 
1397.704 53143376 54763280 56500980 58357484 60318232 62362108 64472952 
1401.079 66647804 68897040 71238952 73690800 76259200 78937248 81702376 
1404.454 84519192 87346296 90139440 92854184 95449728 97887776 100137800 
1407.829 102182872 104021880 105674424 107178376 108589688 109972776 
1410.722 111389872 112901152 114554424 116386472 118427176 120697680 
1413.615 123209008 125956832 128919720 132051616 135276464 138497472 
1416.509 141575728 144321824 146509088 147867472 148145600 147196336 
1419.402 145029936 141815776 137798960 133215440 128229856 122937992 
1422.295 117420816 111781184 106172760 100818392 95943328 91722992 88238272 
1425.670 85459264 83282344 81575696 80229520 79168552 78352768 77765832 
1429.045 77394168 77217992 77213960 77360232 77645800 78068240 78625136 
1432.420 79301088 80062592 80852176 81599608 82231640 82674200 82869360 
1435.796 82784960 82424880 81829608 81060416 80175832 79212088 78184504 
1439.171 77097360 75956264 74778720 73598936 72462160 71428384 70565488 
1442.546 69940464 69624792 69684464 70171376 71125240 72568672 74515368 
1445.921 76978120 79975224 83526656 87640856 92304248 97485680 103164904 
1449.297 109364936 116177992 123756672 132257744 141773024 152246352 
1452.190 163470528 175075536 186618640 197708736 207960064 216979088 
1455.083 224293072 229273600 231286400 229995168 225703248 219300192 
1457.976 211817472 203993376 196089232 188050128 179715456 170979840 
1460.869 161831360 152326112 142500752 132356600 121869424 111042512 
1463.762 100012008 89095752 78727248 69346344 61236480 54457052 48885056 
1467.137 44306108 40510328 37330372 34655000 32408704 30526122 28939618 
1470.512 27581230 26393588 25354020 24480368 23819586 23416444 23287322 
1473.888 23414766 23768802 24330674 25110384 26143878 27486442 29198240 
1477.263 31330294 33932780 37052608 40728988 44974396 49738288 54877936 
1480.638 60113380 65068364 69342072 72574576 74560640 75266264 74810048 
1484.013 73394512 71251952 68603392 65610208 62386780 59000960 55481784 
1487.389 51838920 48073428 44192744 40224164 36231980 32321922 28633154 
1490.764 25304952 22435014 20060786 18152606 16635822 15416140 14405778 
1494.139 13538129 12772041 12093491 11505370 11015061 10624509 10324013 
1497.514 10097446 9930590 9815955 9751701 9737367 9769254 9838696 9935675 
1501.372 10052513 10187733 10345797 10533894 10757802 11018120 11308384 
1504.747 11617662 11934347 12251467 12569467 12893877 13228061 13566057 
1508.122 13895456 14204288 14486755 14743561 14979595 15200352 15408929 
1511.498 15603904 15782610 15942896 16086942 16220476 16350681 16480993 
1514.873 16608316 16722417 16811096 16867274 16895210 16909852 16928938 
1518.248 16963114 17007528 17041022 17031958 16952124 16791430 16570518 
1521.623 16334511 16134154 15998824 15926672 15893606 15868450 15829308 
1524.999 15767010 15687166 15602392 15524674 15457339 15396811 15336876 
1528.374 15276811 15223446 15188754 15182509 15205568 15246576 15285940 
1531.749 15301934 15280551 15224339 15154579 15103837 15098622 15150153 
1535.124 15251998 15389602 15547957 15716814 15890719 16062152 16218035 
1538.500 16338674 16402705 16402636 16356496 16308468 16305270 16374525 
1541.875 16514584 16701000 16903272 17098436 17280790 17460602 17656776 
1545.250 17884248 18147942 18439902 18747556 19060516 19376788 19703066 
1548.625 20050410 20426544 20831158 21255496 21688088 22123412 22565280 
1552.000 23026010 23520282 24057140 24634744 25240754 25858124 26475566 
1555.376 27090498 27707150 28328678 28945038 29525708 30025200 30401512 
1558.751 30653824 30837054 31042816 31335388 31722032 32171566 32640324 
1562.126 33095208 33519682 33917732 34308408 34717844 35168084 35669940 
1565.501 36223516 36824648 37473924 38183324 38973616 39870264 40893692 
1568.877 42051840 43340952 44750576 46268940 47889772 49604292 51394004 
1572.252 53220448 55025264 56738640 58268280 59516172 60385280 60788052 
1575.627 60678264 60072632 59058316 57758104 56289660 54737536 53146816 
1579.002 51540980 49939788 48366148 46856908 45459240 44217284 43169312 
1582.378 42337168 41724352 41318972 41097900 41034020 41098664 41269340 
1585.753 41532536 41882356 42317884 42838528 43439592 44113368 44853432 
1589.128 45661116 46549600 47544584 48679188 49983692 51482964 53192692 
1592.503 55122384 57277708 59660028 62260260 65047428 67964096 70937976 
1595.879 73899016 76821688 79753888 82843096 86322184 90479200 95652328 
1599.254 102174944 110371656 120561768 133027344 147987776 165505648 
1602.147 185393232 207015216 229116032 249931968 267189568 278562496 
1605.040 282313824 277624256 264881200 245469360 221499456 195290528 
1607.933 168894912 144018576 121749152 102597312 86681544 73805888 63618228 
1611.308 55693728 49615548 44999676 41502640 38854496 36836224 35272472 
1614.684 34036368 33028166 32180596 31467992 30897674 30499854 30300918 
1618.059 30304364 30484142 30795792 31187012 31613044 32044702 32467150 
1621.434 32880538 33292600 33710964 34137760 34569316 35002988 35441804 
1624.809 35896544 36380540 36902376 37461248 38045248 38640292 39236652 
1628.185 39838520 40463588 41136804 41876808 42687012 43554152 44454960 
1631.560 45367676 46277048 47180092 48082160 48987820 49894068 50788136 
1634.935 51653592 52483420 53292440 54114976 54978292 55889416 56827264 
1638.310 57753520 58624720 59407772 60094356 60698536 61252048 61786936 
1641.686 62323552 62862216 63388660 63882776 64330800 64729364 65084608 
1645.061 65405816 65702328 65988928 66293248 66664180 67168232 67859296 
1648.436 68760888 69854368 71090432 72395144 73685104 74891576 75961944 
1651.811 76891408 77739752 78645384 79761728 81157504 82814824 84663800 
1655.187 86644968 88733288 90926984 93232256 95645968 98159888 100763608 
1658.562 103449544 106226032 109114256 112141616 115334488 118712240 
1661.455 122288432 126074376 130086976 134346640 138860016 143619776 
1664.348 148596352 153749856 159040800 164449088 169991072 175706512 
1667.241 181665776 187955776 194662912 201852672 209551936 217753456 
1670.134 226400960 235413680 244711248 254237648 263983312 273996416 
1673.027 284395168 295321344 306880800 319055296 331616064 344132672 
1675.920 356108352 367152832 377082720 385882976 393592512 400217984 
1678.813 405716160 410020864 413128000 415127424 416177888 416392224 
1681.706 415732928 413953056 410663328 405536160 398644160 390654688 
1684.599 382648192 375545824 369663168 364740352 360228640 355615296 
1687.492 350537376 344852416 338590272 331883904 324878464 317679136 
1690.385 310369440 303037344 295795104 288766912 282004480 275420832 
1693.279 268750176 261581600 253480768 244218704 234017952 223594272 
1696.172 213867760 205452928 198409392 192253232 186227440 179488480 
1699.065 171395840 161808320 151269616 140854496 131564096 123833064 
1701.958 117463376 111960808 106820304 101705792 96472696 91147592 85861232 
1705.333 80782448 76059640 71777608 67969176 64637608 61771312 59341252 
1708.708 57286896 55518608 53930176 52433548 50990160 49615288 48360108 
1712.083 47271184 46363016 45600500 44916956 44244100 43552248 42864604 
1715.459 42246076 41763164 41445112 41263912 41156256 41066656 40990068 
1718.834 40972408 41075576 41332932 41725812 42190864 42644648 43022440 
1722.209 43294820 43481708 43633828 43807296 44029424 44289596 44551760 
1725.584 44784844 44987144 45193876 45461188 45840444 46356192 46996076 
1728.960 47724172 48504172 49325736 50209556 51197460 52328432 53621572 
1732.335 55069156 56650296 58349488 60179372 62169632 64355276 66738436 
1735.710 69283848 71948424 74707400 77577936 80619016 83928288 87612608 
1739.085 91750952 96360008 101397480 106805592 112564128 118726048 125415728 
1742.461 132778880 140940096 149954688 159803712 170404832 181651344 
1745.354 193456432 205725312 218329904 231075344 243623024 255507376 
1748.247 266190080 275078272 281637056 285457856 286321952 284273184 
1751.140 279637792 272987040 264968096 256164336 246995696 237663872 
1754.033 228221696 218642144 208885616 198983104 189076176 179394112 
1756.926 170218864 161787456 154216432 147493360 141497056 136059232 
1759.819 131012512 126243528 121719512 117491472 113667488 110359008 
1762.712 107631280 105472200 103799848 102486208 101396936 100404352 
1765.605 99394792 98279864 96989336 95480400 93743208 91799208 89687624 
1768.980 87439328 85056736 82499880 79698072 76574992 73098984 69324696 
1772.356 65403432 61535960 57892104 54553484 51501656 48658100 45932508 
1775.731 43266816 40650392 38115348 35706632 33459160 31378162 29440636 
1779.106 27613218 25874900 24232038 22714928 21359550 20183642 19175230 
1782.481 18295314 17499030 16749691 16035816 15368696 14771875 14262527 
1785.857 13840310 13487301 13179592 12899850 12644918 12423411 12247071 
1789.232 12119760 12031216 11958528 11876147 11770426 11647612 11533032 
1792.607 11455699 11433825 11464068 11527690 11602212 11675249 11749456 
1795.982 11839031 11960095 12120305 12313943 12523902 12730686 12921423 
1799.358 13096433 13266730 13445263 13636518 13831724 14011652 14158004 
1802.733 14260130 14320568 14349746 14358410 14348890 14311973 14230376 
1806.108 14088382 13879753 13612689 13305540 12977920 12643144 12301468 
1809.483 11944258 11561546 11152825 10730699 10318720 9939065 9603811 
1812.859 9309132 9039551 8777001 8512008 8248121 8000629 7787516 7618813 
1816.716 7491335 7390653 7300137 7209640 7122193 7050389 7008430 7001696 
1820.573 7023314 7056148 7083157 7096360 7100267 7108720 7136946 7191751 
1824.431 7267049 7347583 7418425 7475997 7530171 7600234 7702212 7841863 
1828.288 8009337 8185011 8347820 8488930 8615552 8748398 8907563 9101162 
1832.146 9321623 9551105 9771660 9972663 10156290 10333344 10515155 10704243 
1836.003 10891033 11056831 11184476 11266318 11308827 11328653 11344095 
1839.378 11365011 11388141 11400148 11385555 11335728 11251867 11145108 
1842.754 11029301 10914986 10804302 10693782 10581763 10474558 10387096 
1846.129 10336840 10334329 10377593 10451986 10537459 10616191 10681218 
1849.504 10737321 10796557 10868643 10952397 11034162 11093439 11113766 
1852.879 11089325 11028588 10947742 10861713 10774615 10677177 10552464 
1856.255 10386621 10177489 9937744 9688236 9448862 9228674 9023380 8819706 
1860.112 8606393 8382004 8157831 7952031 7778981 7641845 7529598 7424829 
1863.969 7311931 7186665 7057360 6939877 6846526 6778538 6723010 6660491 
1867.827 6575610 6467338 6351830 6253934 6194507 6177467 6189633 6208220 
1871.684 6214337 6201128 6175988 6154109 6150077 6167889 6199750 6229967 
1875.542 6246202 6245799 6238975 6242135 6267884 6318277 6382798 6445243 
1879.399 6492562 6523438 6549036 6587283 6651238 6741990 6846964 6947452 
1883.257 7027961 7084538 7127010 7171607 7232010 7309572 7392473 7460828 
1887.114 7498886 7500673 7474143 7435581 7401270 7377981 7361198 7339698 
1890.971 7304349 7254819 7199971 7150857 7114514 7086694 7054228 7001628 
1894.829 6920350 6814954 6702382 6603801 6532049 6486475 6452339 6411144 
1898.686 6348838 6265665 6174274 6093353 6036232 6003241 5981875 5954363 
1902.544 5908580 5844499 5774383 5715627 5679772 5665874 5660772 5646069 
1906.401 5610556 5555345 5494068 5444374 5417634 5411428 5411226 5397370 
1910.259 5357617 5294490 5223926 5166217 5134699 5129334 5137281 5141204 
1914.116 5129401 5103251 5074956 5060709 5069223 5095070 5119913 5123869 
1917.973 5095842 5043143 4986664 4951674 4952579 4986128 5033288 5070162 
1921.831 5080621 5064429 5037512 5022394 5036573 5082867 5149787 5219667 
1925.688 5280235 5331453 5384320 5452494 5542123 5646236 5747488 5827707 
1929.546 5878587 5908076 5937063 5988325 6072822 6183281 6295988 6385320 
1933.403 6433944 6443528 6432195 6424595 6437239 6470298 6508841 6532688 
1937.260 6530637 6505982 6475914 6461016 6472349 6503964 6535480 6542914 
1941.118 6513112 6451464 6381016 6327690 6307787 6316260 6332229 6328329 
1944.975 6289163 6218068 6135122 6065766 6025078 6010665 6004753 5985100 
1948.833 5939482 5873549 5808029 5767063 5762866 5787613 5816894 5823342 
1952.690 5791139 5724423 5644391 5577965 5541552 5533129 5534672 5525108 
1956.548 5496450 5459205 5441254 5470747 5561587 5702802 5864213 6009658 
1960.405 6119059 6196725 6268388 6364674 6504839 6685626 6885810 7077937 
1964.262 7246362 7393316 7538263 7702616 7893621 8097772 8285167 8425616 
1968.120 8503223 8524070 8509304 8479808 8441190 8377950 8259502 8059730 
1971.977 7774090 7425672 7058673 6717996 6432699 6202708 6008280 5824114 
1975.835 5640866 5471217 5343495 5280403 5283053 5323436 5360234 5354732 
1979.692 5292310 5187509 5073246 4981703 4927009 4899362 4872990 4822966 
1983.550 4739850 4635785 4538576 4475969 4459365 4480723 4516579 4544770 
1987.407 4556624 4562449 4583076 4638063 4729935 4843906 4953551 5037143 
1991.264 5091349 5135336 5200318 5311864 5478028 5682760 5895581 6086968 
1995.122 6242942 6370088 6487483 6611841 6745591 6870224 6956947 6978900 
1998.979 6926040 6810915 6661770 6508841 6368070 6236790 6097284 5933872 
2002.837 5741344 5534471 5338195 5178053 5064028 4987669 4926774 4862067 
2006.694 4790301 4727657 4699588 4726418 4807253 4919334 5026115 5095473 
2010.552 5114918 5096043 5064664 5045188 5046395 5058094 5058295 5029165 
2014.409 4968666 4893967 4833319 4810101 4828260 4871516 4911559 4927142 
2018.266 4914341 4891889 4888270 4928785 5018573 5141908 5270341 5381804 
2022.124 5470479 5552157 5652145 5791474 5972334 6177602 6377283 6545807 
2025.981 6674926 6774600 6865444 6964287 7073660 7179759 7263208 7310987 
2029.839 7328072 7335553 7361468 7423178 7519417 7628930 7722954 7782085 
2033.696 7804551 7807284 7813829 7839975 7883161 7923753 7936610 7907758 
2037.553 7841256 7758505 7684809 7637191 7613654 7594940 7556604 7483784 
2041.411 7382295 7276450 7197310 7167059 7189023 7247743 7317693 7377711 
2045.268 7422234 7461300 7512236 7586544 7682313 7782793 7866864 7917206 
2049.126 7930063 7914912 7886839 7857079 7827424 7791429 7742855 7682414 
2052.983 7621814 7579834 7573428 7608326 7673882 7747611 7804450 7828942 
2056.841 7822296 7798378 7775068 7763532 7762317 7757629 7732297 7676209 
2060.698 7591905 7493492 7399989 7323253 7263916 7210752 7149981 7072717 
2064.555 6982065 6890321 6813305 6759052 6724053 6694172 6654132 6595626 
2068.413 6523741 6453213 6401998 6380209 6386160 6406134 6422880 6426108 
2072.270 6415718 6402670 6400182 6416390 6448034 6483010 6506487 6510556 
2076.128 6499188 6486441 6489468 6518864 6574534 6644980 6715304 6773994 
2079.985 6819161 6858308 6902306 6958226 7024897 7093328 7152743 7196401 
2083.843 7225777 7248956 7276517 7314087 7358974 7401910 7432210 7445053 
2087.700 7443704 7437974 7439019 7452772 7476132 7499189 7510449 7504685 
2091.557 7484761 7461300 7446131 7445828 7457929 7473570 7481357 7475053 
2095.415 7456884 7435446 7421290 7418931 7425099 7430492 7426211 7409190 
2099.272 7384620 7363793 7357053 7367837 7389440 7407875 7409965 7389473 
2103.130 7350380 7304046 7263073 7234570 7215299 7194851 7161164 7108417 
2106.987 7038973 6963917 6894395 6837405 6790216 6744211 6688048 6616215 
2110.844 6530603 6440367 6355293 6281095 6215480 6151287 6080752 6001494 
2114.702 5918623 5842853 5784356 5747623 5728485 5716164 5700486 5675341 
2118.559 5642947 5611361 5589410 5580785 5582262 5585114 5580852 5566857 
2122.417 5547459 5532088 5529639 5542827 5566320 5589947 5603709 5604481 
2126.274 5597365 5592700 5600453 5623780 5657616 5691824 5717070 5730869 
2130.132 5739598 5755412 5788855 5842215 5908311 5973342 6025851 6062339 
2133.989 6090631 6124805 6177467 6250371 6333271 6406941 6454895 6471407 
2137.846 6464950 6453818 6456913 6484322 6533092 6588965 6635930 6665134 
2141.704 6678425 6686298 6699657 6721563 6745153 6756864 6744379 6705142 
2145.561 6648984 6594079 6556369 6541097 6539920 6535278 6511935 6463571 
2149.419 6396987 6327152 6268724 6224690 6185970 6135458 6059651 5956680 
2153.276 5840469 5732850 5653991 5610623 5595150 5588907 5578435 5563433 
2157.134 5562527 5601896 5700720 5855178 6036266 6201397 6312393 6353680 
2160.991 6336095 6287785 6237967 6204052 6186273 6175047 6159319 6138583 
2164.848 6123663 6130921 6170678 6239412 6318647 6383335 6414910 6408353 
2168.706 6374391 6332666 6300190 6281364 6267749 6243446 6197297 6131829 
2172.563 6064422 6020039 6020005 6070806 6161167 6267279 6363430 6435255 
2176.421 6482371 6516106 6548363 6585736 6624222 6654165 6666043 6659818 
2180.278 6644543 6635392 6644307 6673041 6711939 6746129 6763292 6760802 
2184.135 6746936 6735024 6736201 6752691 6776518 6795601 6802063 6797150 
2187.993 6791664 6800010 6831144 6883420 6945399 7000080 7035302 7050254 
2191.850 7055070 7066924 7098515 7155539 7231808 7317356 7402078 7483548 
2195.708 7566516 7659279 7765420 7881541 7996140 8095612 8170526 8221073 
2199.565 8255855 8287566 8325122 8369742 8414130 8449738 8470347 8478760 
2203.423 8483862 8495721 8519475 8550969 8579357 8592672 8585980 8564656 
2207.280 8543164 8537723 8557863 8601459 8656483 8705802 8736769 8748432 
2211.137 8750055 8756715 8780213 8823290 8878850 8934451 8978356 9006635 
2214.995 9023854 9040025 9064282 9100722 9146267 9194863 9240215 9281002 
2218.852 9319694 9359743 9401422 9440565 9469620 9482285 9477917 9464235 
2222.710 9454652 9461424 9491327 9540876 9599442 9653509 9694199 9720933 
2226.567 9740213 9761799 9790706 9825816 9858862 9880047 9882149 9865269 
2230.425 9835239 9800974 9768441 9737739 9703991 9661539 9607877 9547007 
2234.282 9487433 9438059 9403488 9381954 9366108 9347420 9321928 9291327 
2238.139 9262588 9242720 9235240 9237168 9242110 9242821 9237406 9229790 
2241.997 9229722 9245123 9279851 9329512 9384628 9434436 9473074 9501725 
2245.854 9527599 9559032 9600695 9650527 9701416 9745127 9776676 9797348 
2249.712 9813718 9833273 9860829 9895606 9933133 9967713 9997515 10024538 
2253.569 10054615 10091749 10135261 10178099 10208832 10216906 10198011 
2256.944 10156120 10102398 10049190 10006534 9977816 9960695 9949812 9941235 
2260.802 9934964 9934625 9943676 9963475 9990395 10017994 10040171 10054107 
2264.659 10062314 10070588 10085034 10108536 10139094 10171113 10199741 
2268.034 10223792 10247132 10276444 10318414 10374913 10442143 10511998 
2271.410 10575583 10628414 10671335 10710253 10751756 10800634 10856380 
2274.785 10914409 10968369 11014313 11052005 11085484 11119850 11159047 
2278.160 11203448 11251186 11299169 11345421 11390964 11438144 11489719 
2281.535 11546167 11604968 11662145 11714359 11760043 11801068 11840530 
2284.911 11881460 11923925 11965817 12002842 12031523 12050497 12061978 
2288.286 12069030 12074923 12080613 12084428 12083304 12075094 12059968 
2291.661 12041061 12022700 12008530 11999332 11993236 11986628 11976750 
2295.036 11963194 11948515 11936595 11930805 11931656 11937616 11945415 
2298.412 11953078 11960606 11970858 11987445 12012379 12044434 12078603 
2301.787 12107937 12126846 12132980 12128346 12117681 12106609 12098942 
2305.162 12095570 12094956 12094820 12094343 12094785 12098056 12106404 
2308.537 12119760 12136046 12152334 12165623 12175777 12184365 12194724 
2311.913 12209377 12229314 12252557 12276211 12298060 12317830 12337293 
2315.288 12359350 12386452 12418263 12452734 12486560 12517558 12545490 
2318.663 12572604 12601767 12634889 12671118 12707519 12739489 12763750 
2322.038 12779207 12787363 12790537 12790024 12785281 12773782 12753274 
2325.414 12723726 12688175 12652764 12624655 12608521 12605826 12613194 
2328.789 12625849 12638675 12649694 12660576 12675109 12696806 12726967 
2332.164 12763477 12801832 12838279 12871419 12902786 12936067 12974745 
2335.539 13020118 13070071 13120337 13167126 13208522 13245824 13282445 
2338.915 13321905 13366836 13416795 13470417 13525378 13580928 13637442 
2342.290 13695365 13754220 13811407 13863264 13906711 13942019 13973909 
2345.665 14010215 14060351 14130756 14223255 14334164 14456541 14582003 
2349.040 14702840 14813733 14911384 14993555 15058897 15106135 15134473 
2352.416 15144732 15139963 15125278 15106684 15089771 15077662 15070629 
2355.791 15067267 15065552 15065003 15066204 15070903 15079617 15091349 
2359.166 15102979 15110903 15112551 15107919 15100063 15093682 15093271 
2362.541 15101813 15120785 15150153 15190401 15242835 15309210 15390632 
2365.917 15486936 15595008 15710389 15828483 15946401 16063835 16182506 
2369.292 16304478 16430888 16560812 16692219 16822842 16952158 17081410 
2372.667 17213286 17349340 17489818 17632274 17772638 17907210 18033742 
2376.042 18152262 18264938 18373564 18479072 18580352 18675222 18761948 
2379.417 18840454 18912954 18983460 19056258 19134126 19216858 19302686 
2382.793 19388636 19472940 19555146 19636882 19720264 19807268 19898174 
2386.168 19992326 20088442 20186176 20285702 20388134 20493854 20601616 
2389.543 20708430 20810476 20903956 20987546 21062282 21131014 21197114 
2392.918 21262282 21326000 21386004 21439400 21484620 21522152 21554254 
2396.294 21583818 21612304 21639816 21664370 21684258 21698922 21709964 
2399.669 21720762 21734764 21754516 21779878 21808794 21838200 21866248 
2403.044 21892488 21918380 21945878 21975954 22007778 22039044 22067002 
2406.419 22090048 22108838 22125922 22144228 22165776 22190882 22217874 
2409.795 22244412 22268514 22289892 22309356 22328436 22348110 22367784 
2413.170 22386100 22401974 22415196 22427408 22441118 22458950 22482224 
2416.545 22510244 22541094 22572820 22603952 22635578 22668984 22706094 
2419.920 22747608 22792650 22839514 22886456 22933188 22981188 23032508 
2423.296 23089184 23151036 23216080 23280680 23341792 23397946 23449878 
2426.671 23500310 23551904 23605812 23661372 23716238 23767962 23814932 
2430.046 23857530 23897440 23936474 23975444 24013998 24050766 24084914 
2433.421 24117486 24150798 24188106 24232072 24282666 24337892 24393580 
2436.797 24446402 24494742 24539968 24585478 24634710 24689876 24750800 
2440.172 24814996 24879518 24942576 25004060 25065872 25130746 25200092 
2443.547 25274608 25352862 25433728 25516122 25600430 25687706 25778762 
2446.922 25873212 25969406 26064286 26155880 26243584 26328806 26414820 
2450.298 26504760 26600568 26702420 26808950 26917868 27027940 27138674 
2453.673 27250816 27365030 27481182 27598388 27714850 27829012 27940692 
2457.048 28050602 28160008 28270076 28380598 28490442 28597906 28701750 
2460.423 28802186 28900094 28997388 29095092 29193138 29290176 29384756 
2463.799 29476236 29565538 29654996 29746818 29842134 29940244 30038622 
2467.174 30134394 30226104 30314456 30403004 30496014 30597256 30707876 
2470.549 30826488 30949404 31072606 31193278 31310458 31425032 31538106 
2473.924 31650640 31762492 31873480 31983174 32092646 32203610 32318458 
2477.300 32437872 32561850 32687940 32813922 32937686 33059842 33181890 
2480.675 33306766 33436720 33572084 33710964 33850852 33989356 34126144 
2484.050 34262620 34401468 34545312 34695664 34851812 35011644 35172972 
2487.425 35334252 35495196 35656704 35819316 35983176 36147100 36309820 
2490.801 36470048 36628240 36785232 36943104 37103312 37266068 37430440 
2494.176 37595020 37758320 37920128 38081420 38243168 38405776 38568984 
2497.551 38731168 38891092 39048580 39204740 39362484 39524744 39693600 
2500.926 39868920 40048668 40229796 40409440 40586028 40759776 40931740 
2504.302 41103476 41275648 41448064 41620192 41792016 41964132 42138176 
2507.677 42315616 42497040 42681568 42867092 43051048 43231716 43408612 
2511.052 43582432 43754268 43924744 44092792 44256172 44412600 44561124 
2514.427 44702608 44840280 44978732 45121820 45272164 45430360 45595128 
2517.802 45764632 45937264 46111728 46287480 46463708 46639196 46812396 
2521.178 46981640 47146184 47306060 47463004 47618672 47774396 47930508 
2524.553 48086384 48240796 48392964 48542628 48690232 48836408 48981512 
2527.928 49124744 49265528 49403580 49539856 49677212 49818660 49967816 
2531.303 50126952 50296004 50473944 50658544 50848180 51042180 51241412 
2534.679 51447156 51660308 51881444 52109456 52343120 52581508 52824032 
2538.054 53070656 53321396 53574828 53828636 54079472 54323772 54558856 
2541.429 54783276 54996908 55199660 55391360 55570456 55734296 55879656 
2544.804 56003688 56104420 56180588 56231424 56255600 56251036 56215244 
2548.180 56145524 56040408 55900268 55727292 55525044 55298136 55050540 
2551.555 54786432 54509756 54224204 53934036 53643352 53354928 53070320 
2554.930 52789568 52510864 52232680 51953552 51673780 51394712 51118208 
2558.305 50846168 50579652 50318812 50064072 49815988 49576732 49348936 
2561.681 49135912 48940088 48763260 48605920 48468312 48350516 48253568 
2565.056 48178184 48125728 48096416 48089752 48104372 48138684 48191552 
2568.431 48262492 48351000 48456272 48576832 48710248 48853648 49004884 
2571.806 49163068 49328628 49503128 49688616 49885780 50094600 50314196 
2575.182 50543432 50781912 51030256 51289848 51562656 51849744 52151112 
2578.557 52466108 52793124 53130420 53475768 53827132 54181184 54534288 
2581.932 54881660 55218096 55539316 55841484 56121728 56377748 56606504 
2585.307 56804344 56966796 57088460 57164916 57192920 57170432 57096584 
2588.683 56971220 56794112 56564872 56283892 55952356 55573584 55152444 
2592.058 54695216 54208476 53698056 53169028 52625228 52070644 51509788 
2595.433 50948016 50391028 49844564 49312560 48797440 48300596 47822260 
2598.808 47363484 46926008 46511908 46123556 45762460 45428372 45119872 
2602.184 44834768 44570964 44326768 44101448 43894500 43706044 43535324 
2605.559 43382688 43247672 43131036 43033340 42954836 42894924 42851440 
2608.934 42821124 42800760 42787336 42779656 42777608 42782216 42795016 
2612.309 42816188 42845296 42880916 42921476 42965880 43013512 43064256 
2615.685 43117712 43173156 43229228 43284608 43338532 43391880 43446184 
2619.060 43503752 43566500 43634968 43708316 43784684 43862092 43938968 
2622.435 44014976 44090556 44166880 44244872 44325408 44409008 44496216 
2625.810 44588184 44685860 44790208 44901452 45018676 45139760 45262896 
2629.186 45386216 45509460 45633180 45759036 45888316 46021684 46158636 
2632.561 46297948 46438596 46579256 46719956 46860524 47001060 47141048 
2635.936 47279312 47414256 47544876 47671104 47793924 47914820 48035604 
2639.311 48157272 48279560 48402000 48523212 48642796 48760812 48878232 
2642.687 48996536 49116580 49238844 49363004 49488420 49614172 49739776 
2646.062 49864856 49989416 50112972 50234696 50353896 50469404 50580472 
2649.437 50686652 50787948 50884348 50975888 51062416 51143744 51219568 
2652.812 51290484 51356824 51419032 51477480 51531948 51582356 51627768 
2656.188 51667808 51702332 51731780 51756600 51777396 51794268 51807108 
2659.563 51815772 51820252 51821108 51819356 51816184 51812972 51810544 
2662.938 51809204 51808564 51808304 51807748 51806216 51803192 51798112 
2666.313 51790388 51778848 51762988 51741860 51714424 51679604 51635864 
2669.688 51581012 51512288 51426716 51321544 51194776 51045608 50874364 
2673.064 50682968 50473908 50250992 50018376 49781020 49545204 49316788 
2676.439 49102368 48907788 48737496 48595320 48483164 48402412 48353556 
2679.814 48336628 48351220 48395852 48467864 48563344 48677372 48804820 
2683.189 48941052 49081892 49224744 49367940 49510072 49650352 49788340 
2686.565 49924212 50058236 50191440 50324984 50459836 50596108 50733200 
2689.940 50869892 51004840 51136660 51264756 51388892 51509228 51625492 
2693.315 51736672 51841344 51937756 52023728 52097764 52158472 52205104 
2696.690 52236604 52252072 52250540 52231336 52194344 52139608 52067616 
2700.066 51978572 51871812 51745856 51598064 51425112 51223776 50991168 
2703.441 50725272 50424780 50088876 49717408 49310256 48868184 48392812 
2706.816 47886484 47352544 46795200 46218704 45627772 45027060 44421668 
2710.191 43816756 43218248 42631928 42063632 41518132 40999208 40509528 
2713.567 40050484 39622744 39226172 38860400 38523868 38214656 37929928 
2716.942 37666704 37422208 37194444 36981924 36784112 36600588 36430624 
2720.317 36273152 36126500 35989260 35860552 35739872 35627572 35524072 
2723.692 35429580 35343848 35266616 35197224 35135284 35081004 35034592 
2727.068 34996452 34966212 34943300 34926820 34915580 34909044 34907392 
2730.443 34911200 34921148 34937448 34959928 34987616 35019292 35053920 
2733.818 35090812 35130000 35171320 35214940 35260108 35306468 35353196 
2737.193 35399532 35445184 35490164 35534356 35577936 35620844 35663144 
2740.569 35705300 35748400 35793732 35843068 35898052 35959780 36028712 
2743.944 36105076 36188656 36279492 36377804 36483920 36597492 36718408 
2747.319 36845456 36977416 37112948 37251192 37391508 37533784 37677292 
2750.694 37821720 37965980 38108876 38249032 38386008 38519448 38649452 
2754.070 38775944 38899140 39018344 39133416 39243908 39349568 39450716 
2757.445 39547680 39640456 39729148 39813096 39891840 39964812 40031916 
2760.820 40093432 40149872 40201772 40249356 40292760 40331516 40365620 
2764.195 40394856 40419404 40439440 40455552 40468392 40478392 40486576 
2767.571 40494032 40502072 40512148 40525532 40542704 40564492 40591268 
2770.946 40623500 40662108 40708028 40762180 40824636 40895112 40972044 
2774.321 41053540 41138444 41226056 41316712 41411472 41511752 41618112 
2777.696 41730440 41847728 41968620 42092360 42218688 42348160 42482132 
2781.072 42621548 42766788 42917784 43073368 43232556 43394332 43558184 
2784.447 43724076 43891932 44061840 44233828 44407796 44583628 44761484 
2787.822 44941468 45123472 45307136 45491504 45675952 45859664 46042796 
2791.197 46225816 46410132 46596852 46786968 46980752 47177984 47378152 
2794.573 47580516 47784680 47990420 48197288 48404520 48611332 48816608 
2797.948 49019460 49219960 49418504 49616144 49814128 50012948 50212380 
2801.323 50411756 50610032 50806460 51000368 51191904 51381884 51570752 
2804.698 51759328 51947876 52136652 52326040 52516140 52706888 52897492 
2808.073 53087168 53273596 53454896 53629448 53796228 53955908 54109456 
2811.449 54258556 54404736 54548524 54689840 54828308 54963136 55094284 
2814.824 55222312 55347588 55471396 55594148 55716328 55837980 55959176 
2818.199 56080408 56202200 56325532 56451168 56579556 56710512 56843736 
2821.574 56978396 57113820 57249280 57384144 57517840 57649608 57778388 
2824.950 57903272 58023036 58136776 58243916 58343688 58435868 58520252 
2828.325 58596508 58664388 58723556 58773704 58814220 58844384 58863660 
2831.700 58870984 58865784 58847572 58816268 58771844 58714604 58644324 
2835.075 58561164 58465056 58355816 58233608 58098216 57949840 57788380 
2838.451 57613964 57426652 57227052 57016252 56796184 56569892 56340736 
2841.826 56111848 55886816 55668152 55458028 55258508 55071752 54899444 
2845.201 54743096 54603340 54479968 54371500 54276388 54192936 54120604 
2848.576 54060148 54013012 53980972 53965516 53966752 53983636 54014404 
2851.952 54056880 54109796 54172364 54244552 54326364 54417504 54517192 
2855.327 54623928 54736068 54852444 54972312 55095112 55220804 55348644 
2858.702 55477684 55606724 55734412 55859684 55981828 56100768 56216644 
2862.077 56329608 56439696 56546832 56651200 56752912 56851852 56948172 
2865.453 57041376 57130296 57213220 57288296 57353252 57406152 57445560 
2868.828 57470596 57480772 57476232 57457472 57425328 57380972 57325312 
2872.203 57259148 57182340 57094168 56993736 56880216 56753744 56616168 
2875.578 56470788 56321876 56173616 56029852 55892656 55762664 55639752 
2878.954 55523240 55413344 55309952 55214144 55126336 55046476 54973968 
2882.329 54907528 54845644 54787148 54731480 54678832 54629340 54583164 
2885.704 54540072 54499536 54461000 54423776 54387344 54351600 54315960 
2889.079 54279768 54241960 54201980 54158852 54112312 54062396 54009300 
2892.455 53953400 53894576 53832796 53767428 53698356 53624948 53546752 
2895.830 53463324 53374108 53278428 53176256 53068036 52954904 52838548 
2899.205 52720876 52603348 52487012 52371976 52257904 52144200 52030600 
2902.580 51917368 51804496 51691996 51579556 51466440 51351972 51235448 
2905.956 51117204 50997872 50878088 50758376 50638512 50517600 50394976 
2909.331 50270708 50145916 50022544 49902508 49786928 49674612 49562772 
2912.706 49446688 49322172 49186412 49039084 48882128 48718704 48552448 
2916.081 48385596 48218840 48052072 47884556 47716516 47548872 47383768 
2919.457 47223344 47069184 46922164 46782356 46649712 46524484 46407256 
2922.832 46299388 46201676 46114600 46038044 45971184 45913508 45865044 
2926.207 45826156 45797288 45778696 45769676 45768644 45773652 45783044 
2929.582 45796368 45814372 45839008 45873068 45918880 45978180 46052080 
2932.958 46141096 46245460 46365260 46500404 46650412 46814204 46990092 
2936.333 47176288 47370612 47571644 47777504 47986460 48196364 48403780 
2939.708 48604292 48793396 48966308 49119364 49250280 49358440 49444384 
2943.083 49509776 49556976 49588172 49606116 49613208 49611760 49604068 
2946.458 49592260 49577960 49563288 49550328 49541192 49538148 49543088 
2949.834 49557160 49580708 49612688 49651728 49696120 49744048 49794064 
2953.209 49845160 49896264 49946068 49993468 50037264 50076972 50112932 
2956.584 50145844 50177196 50207844 50238492 50268512 50296820 50322268 
2959.959 50343736 50360592 50373128 50381728 50387120 50389576 50389612 
2963.335 50387828 50384780 50381392 50378268 50375292 50371868 50366580 
2966.710 50357912 50344928 50327072 50304968 50279600 50251884 50222052 
2970.085 50189992 50154844 50116016 50073368 50027224 49978712 49928784 
2973.460 49878088 49826876 49775224 49723576 49672752 49624240 49579408 
2976.836 49539224 49503276 49470300 49438444 49405920 49371952 49337428 
2980.211 49304056 49274292 49250128 49232908 49222628 49218992 49221404 
2983.586 49229236 49242524 49260892 49283568 49309552 49337352 49365752 
2986.961 49394300 49423632 49454596 49488272 49525000 49563476 49601916 
2990.337 49637760 49668664 49693484 49711984 49724804 49732640 49736136 
2993.712 49735540 49731152 49723204 49712656 49700616 49688208 49675836 
2997.087 49662912 49647416 49627284 49600168 49564848 49521136 49470040 
3000.462 49413232 49352756 49290176 49226564 49162628 49098660 49034408 
3003.838 48969904 48904596 48837888 48769560 48699500 48628156 48556784 
3007.213 48486572 48419152 48355036 48294520 48237388 48183296 48132356 
3010.588 48084792 48041528 48003332 47970140 47941280 47914932 47888960 
3013.963 47861216 47830140 47795072 47756236 47714816 47672068 47629768 
3017.339 47589392 47552016 47518520 47488620 47461268 47434548 47405976 
3020.714 47373272 47334992 47290692 47241296 47188696 47134328 47078972 
3024.089 47022216 46962588 46898096 46826828 46747780 46660708 46566344 
3027.464 46465516 46358588 46245572 46125764 45998552 45863756 45722224 
3030.840 45575624 45426240 45276836 45129724 44986556 44848324 44715276 
3034.215 44587336 44464064 44345224 44230968 44121876 44018680 43922180 
3037.590 43832844 43750532 43674312 43602800 43534264 43467168 43400304 
3040.965 43332824 43263780 43192040 43115740 43032864 42940572 42836956 
3044.341 42721236 42593732 42456516 42312364 42164172 42014900 41866920 
3047.716 41722348 41583104 41451308 41329136 41218224 41119760 41034056 
3051.091 40960392 40897804 40844800 40800248 40762944 40731972 40706388 
3054.466 40684448 40664832 40645988 40626592 40606112 40584136 40560236 
3057.842 40533680 40503200 40467484 40425148 40375764 40320172 40259716 
3061.217 40196356 40131844 40067056 40002196 39936480 39869356 39800500 
3064.592 39730164 39658968 39587424 39515816 39443712 39370572 39295992 
3067.967 39220080 39143312 39066812 38991592 38918852 38849060 38782792 
3071.343 38720844 38663976 38613200 38569164 38531616 38498992 38468256 
3074.718 38435348 38395640 38344388 38278160 38194144 38090864 37968116 
3078.093 37826564 37668256 37495816 37312968 37123740 36931776 36740624 
3081.468 36553012 36370848 36196108 36030480 35875848 35734116 35606708 
3084.844 35494660 35397444 35314376 35243580 35183140 35131332 35086356 
3088.219 35046020 35007624 34967540 34921040 34863444 34789740 34695772 
3091.594 34578392 34435756 34267172 34073672 33857552 33622704 33374492 
3094.969 33119596 32864488 32615318 32376892 32151692 31940662 31742990 
3098.344 31557314 31382612 31217630 31061894 30914894 30775872 30644188 
3101.720 30518656 30398598 30283262 30172042 30064082 29957992 29851754 
3105.095 29742878 29628496 29506770 29376674 29238216 29092754 28942274 
3108.470 28789016 28635490 28483686 28335326 28191934 28054524 27923344 
3111.845 27798242 27678298 27562270 27448850 27336766 27225132 27113176 
3115.221 27000294 26886458 26771768 26656934 26543010 26431370 26323174 
3118.596 26218840 26117838 26018762 25919742 25818916 25715864 25611324 
3121.971 25506846 25404852 25307026 25213786 25124814 25038704 24954262 
3125.346 24870992 24789070 24709026 24631380 24556444 24483384 24411386 
3128.722 24339784 24268056 24196584 24125578 24055390 23985318 23914452 
3132.097 23841708 23766108 23688350 23609520 23531370 23455438 23382562 
3135.472 23312842 23245686 23180396 23116718 23054556 22993518 22932526 
3138.847 22869306 22801102 22724878 22638964 22543258 22439444 22330528 
3142.223 22219932 22110234 22002654 21897368 21794232 21693104 21594578 
3145.598 21499242 21407584 21319666 21234516 21151192 21068926 20987930 
3148.973 20909416 20834810 20764804 20698908 20635006 20569966 20500836 
3152.348 20425848 20345040 20260116 20173540 20087296 20002700 19919680 
3155.724 19837788 19756672 19676854 19599340 19525408 19455926 19390610 
3159.099 19328218 19266768 19204562 19140012 19072704 19002602 18929636 
3162.474 18853674 18774264 18691306 18605044 18516276 18426592 18336892 
3165.849 18248110 18160414 18073152 17986046 17898958 17812508 17727560 
3169.225 17644662 17563438 17482782 17400864 17316100 17227696 17136382 
3172.600 17043812 16952262 16863554 16778412 16696868 16618025 16540984 
3175.975 16465576 16391832 16320165 16250882 16183641 16117064 16050393 
3179.350 15982358 15912166 15840098 15766185 15690912 15614208 15536418 
3182.726 15457854 15379372 15302174 15227702 15156638 15088947 15023292 
3186.101 14957784 14890433 14819973 14746268 14670417 14593722 14517555 
3189.476 14442977 14370088 14298755 14228938 14160880 14094782 14030885 
3192.851 13969426 13909619 13850538 13791328 13731135 13670027 13608312 
3196.227 13546879 13485866 13425475 13365469 13305334 13245004 13184510 
3199.602 13124504 13065325 13007690 12951633 12897564 12846027 12798078 
3202.977 12754810 12716868 12684593 12656857 12631751 12606543 12578914 
3206.352 12546718 12509101 12465623 12416625 12362214 12302695 12238414 
3209.728 12169916 12098329 12025221 11951887 11879825 11809273 11740230 
3213.103 11672322 11605411 11539973 11476927 11417360 11362053 11310731 
3216.478 11262815 11216538 11170877 11124541 11077463 11029437 10980669 
3219.853 10930718 10879584 10826926 10772815 10718132 10663932 10611369 
3223.229 10561222 10513254 10466920 10421067 10375150 10329137 10283603 
3226.604 10238922 10195196 10151982 10108231 10063128 10016875 9970697 
3229.979 9927064 9888217 9855676 9828901 9805651 9781962 9754038 9719137 
3233.836 9676276 9626441 9572376 9516728 9461865 9409447 9359845 9312856 
3237.694 9267835 9224206 9181563 9139500 9097339 9054674 9010762 8964791 
3241.551 8916424 8865018 8810644 8753774 8695728 8638434 8584290 8535661 
3245.409 8494100 8459602 8430446 8403387 8374708 8341335 8301784 8256260 
3249.266 8206789 8156109 8106212 8058919 8014399 7972144 7931548 7892035 
3253.124 7853470 7815853 7778509 7740359 7699885 7655806 7607787 7556536 
3256.981 7503370 7450682 7400158 7352874 7308932 7268127 7229415 7192526 
3260.838 7156718 7121654 7086458 7049884 7010686 6968125 6922168 6874095 
3264.696 6825960 6779480 6736302 6696965 6660962 6627586 6596131 6566460 
3268.553 6538642 6512709 6487854 6462428 6434683 6403006 6366893 6327623 
3272.411 6287079 6248219 6212488 6180559 6151354 6123091 6094092 6063313 
3276.268 6030958 5998000 5965213 5932965 5900519 5866664 5830260 5791072 
3280.125 5749738 5707703 5666747 5628010 5592264 5559272 5528766 5500544 
3283.983 5474203 5449944 5427296 5405422 5382912 5358523 5331621 5302539 
3287.840 5273058 5245255 5221076 5201526 5185866 5172285 5157935 5140332 
3291.698 5117868 5090411 5059100 5025780 4992563 4960924 4931432 4903819 
3295.555 4876978 4849435 4820051 4788458 4754958 4720992 4688602 4659966 
3299.413 4636991 4620816 4611138 4607186 4607454 4610133 4613716 4616764 
3303.270 4618137 4616295 4609731 4597374 4578020 4552070 4520496 4484405 
3307.127 4445439 4403932 4359785 4311894 4259425 4201810 4140054 4076267 
3310.985 4013091 3952699 3896863 3845647 3798649 3754463 3712220 3671051 
3314.842 3630921 3591162 3551240 3510486 3468334 3424750 3381003 3338228 
3318.700 3298396 3262073 3229224 3198047 3166806 3133597 3097622 3059480 
3322.557 3020308 2981205 2942673 2903845 2863252 2819595 2772441 2722958 
3326.415 2673247 2625909 2582642 2543946 2508386 2473895 2438040 2399257 
3330.272 2357312 2313273 2268605 2225307 2185044 2149380 2119246 2095906 
3334.129 2080191 2072301 2071702 2076030 2082322 2086517 2084620 2073699 
3337.987 2052226 2020468 1980423 1935191 1888266 1842843 1800952 1763523 
3341.844 1729523 1696990 1663395 1626311 1584374 1538019 1489142 1441367 
3345.702 1398085 1362419 1336527 1320342 1312731 1310770 1311036 1308976 
3349.559 1300501 1281259 1248627 1201377 1140910 1070886 996787 924694 
3353.417 860282 807033 766403 737858 719538 709813 707192 711008 720201 
3357.756 733278 747484 759466 765474 763515 752960 735402 713962 692191 
3362.096 673308 659138 650809 648785 653165 664082 681107 703441 729030 
3366.435 754587 776593 791331 795979 788842 769291 737692 694945 642778 
3370.775 583385 520317 458021 400941 353319 318070 295391 284051 280901 
3375.115 282625 285941 288892 290251 289654 286770 281133 272016 259318 
3379.454 243205 224474 204617 185093 167093 151283 138290 128247 121254 
3383.794 117144 115122 114493 113565 111311 107433 102893 100341 102760 
3388.133 112968 131661 157481 186021 212076 230309 237171 231469 214728 
3392.473 190264 161856 133152 106804 83969 65610 52653 45230 44169 49770 
3397.295 61832 79065 99446 120160 138058 150023 153238 145946 127220 98220 
3402.116 61169 19648 -22663 -62221 -96906 -125327 -147322 -163419 -173753 
3406.456 -178622 -177992 -172527 -163452 -152919 -143479 -137120 -135463 
3410.313 -138146 -144374 -152489 -161332 -170341 -180145 -191505 -204753 
3414.171 -219821 -235287 -249328 -259925 -265819 -266580 -262938 -255951 
3418.028 -246877 -237572 -229392 -223795 -222140 -225253 -233234 -245420 
3421.886 -259660 -274031 -286150 -294726 -299594 -301680 -302772 -304097 
3425.743 -307010 -311513 -316977 -322307 -326545 -328730 -328730 -326413 
3429.601 -322042 -316579 -310719 -305752 -302905 -303170 -307044 -314824 
3433.458 -326082 -340683 -358329 -378954 -402921 -429701 -458597 -487691 
3437.315 -514928 -538293 -556494 -570061 -580087 -588823 -598187 -609073 
3441.173 -621381 -633987 -645534 -654798 -661646 -666939 -672034 -678617 
3445.030 -688244 -701675 -719141 -739915 -763002 -786320 -807619 -824321 
3448.888 -834275 -836722 -831629 -821146 -807718 -794126 -782153 -772594 
3452.745 -765185 -759099 -753609 -748846 -745505 -744413 -746596 -751889 
3456.603 -759397 -767765 -776398 -784501 -793034 -802691 -813771 -826073 
3460.460 -838243 -848892 -856597 -860830 -862020 -860995 -858614 -855109 
3464.317 -849884 -842344 -831629 -818037 -802691 -787610 -775009 -766541 
3468.175 -763068 -764921 -771635 -782153 -795482 -810199 -824188 -835432 
3472.032 -841914 -842245 -836094 -824717 -809736 -792902 -774942 -755461 
3475.890 -732737 -705082 -671207 -631770 -588459 -543985 -500664 -459855 
3479.747 -421062 -382794 -342636 -298368 -248500 -191969 -128209 -57351 
3483.604 20145 103125 189568 276027 358625 433742 498688 552397 594865 
3487.944 627382 650543 664414 667965 659735 638697 604453 557771 499783 
3492.284 431619 353783 266645 170508 67035 -40885 -149276 -253798 -351443 
3496.623 -440657 -521647 -596069 -665120 -729164 -787941 -839599 -883977 
3500.481 -921241 -954040 -985909 -1020521 -1060087 -1104608 -1151734 
3503.856 -1197898 -1239563 -1273955 -1300384 -1319214 -1331965 -1340256 
3507.231 -1345706 -1349504 -1352774 -1356078 -1359414 -1362320 -1363642 
3510.606 -1362221 -1357399 -1349868 -1341676 -1335631 -1335103 -1342039 
3513.982 -1356210 -1375929 -1397959 -1419129 -1437028 -1451691 -1463810 
3517.357 -1475269 -1487190 -1499473 -1510865 -1519846 -1524700 -1524733 
3520.732 -1520738 -1514365 -1507563 -1501983 -1498912 -1498681 -1501884 
3524.107 -1509115 -1520936 -1537709 -1559202 -1585052 -1613641 -1643185 
3527.483 -1672232 -1699098 -1722960 -1742827 -1758437 -1769426 -1775828 
3530.858 -1778071 -1777411 -1774739 -1771439 -1768040 -1764872 -1761440 
3534.233 -1757117 -1752101 -1747448 -1745236 -1746887 -1754114 -1766687 
3537.608 -1783153 -1800477 -1815787 -1826247 -1830470 -1828062 -1819846 
3540.984 -1806647 -1790050 -1771274 -1751837 -1733587 -1719033 -1710386 
3544.359 -1709825 -1718736 -1736689 -1762463 -1793152 -1825158 -1855578 
3547.734 -1881246 -1900875 -1913147 -1918887 -1918821 -1915357 -1910673 
3551.109 -1907374 -1907341 -1911860 -1920833 -1933632 -1948476 -1963880 
3554.485 -1977997 -1989080 -1995709 -1996764 -1991916 -1981658 -1967739 
3557.860 -1953061 -1940691 -1933731 -1933302 -1939504 -1949499 -1959856 
3561.235 -1967179 -1969059 -1964804 -1955403 -1943165 -1930433 -1919448 
3564.610 -1912058 -1909584 -1913840 -1925946 -1946563 -1975556 -2010815 
3567.986 -2048807 -2084851 -2115583 -2138432 -2153335 -2161676 -2165534 
3571.361 -2167281 -2168732 -2170644 -2173381 -2176611 -2180469 -2184557 
3574.736 -2189073 -2193919 -2198601 -2202590 -2205161 -2205886 -2204733 
3578.111 -2201700 -2197084 -2190985 -2183205 -2173677 -2162402 -2149642 
3581.487 -2135828 -2121287 -2106152 -2089434 -2070803 -2049368 -2026184 
3584.862 -2003394 -1985319 -1976810 -1982582 -2005241 -2043992 -2094281 
3588.237 -2148752 -2200018 -2241719 -2270462 -2284899 -2286217 -2276692 
3591.612 -2258662 -2235192 -2208985 -2183304 -2160951 -2144169 -2133915 
3594.988 -2130189 -2131970 -2137773 -2145554 -2153994 -2162138 -2169622 
3598.363 -2176513 -2183172 -2190491 -2198930 -2209084 -2220655 -2232819 
3601.738 -2243730 -2251213 -2253124 -2248213 -2236511 -2219468 -2199590 
3605.113 -2180007 -2163753 -2153137 -2149840 -2154159 -2166061 -2184260 
3608.489 -2206710 -2230182 -2251773 -2267990 -2277022 -2278439 -2273660 
3611.864 -2265353 -2256289 -2248378 -2242082 -2235456 -2226061 -2211194 
3615.239 -2190491 -2165633 -2140674 -2120759 -2111197 -2115319 -2134278 
3618.614 -2165699 -2205326 -2247751 -2287569 -2321516 -2347618 -2365216 
3621.990 -2374739 -2376387 -2370257 -2356417 -2334270 -2303389 -2264232 
3625.365 -2218446 -2169985 -2124749 -2092138 -2082806 -2105361 -2163160 
3628.740 -2249136 -2347354 -2436489 -2500405 -2532129 -2534270 -2515592 
3632.115 -2486569 -2457181 -2433557 -2417939 -2409405 -2404825 -2400837 
3635.490 -2395499 -2388546 -2380671 -2372597 -2364392 -2355527 -2345179 
3638.866 -2333249 -2320462 -2309256 -2301412 -2298446 -2300291 -2304774 
3642.241 -2308729 -2309025 -2303225 -2290700 -2272275 -2249927 -2226424 
3645.616 -2204436 -2186370 -2174600 -2171205 -2178062 -2196656 -2227611 
3648.991 -2269704 -2319704 -2372136 -2420147 -2456390 -2475696 -2475202 
3652.367 -2455665 -2421069 -2378232 -2334798 -2299467 -2279428 -2278867 
3655.742 -2297028 -2327416 -2361096 -2388942 -2405022 -2408218 -2401628 
3659.117 -2390260 -2378562 -2369961 -2365842 -2365545 -2368247 -2372927 
3662.492 -2379386 -2387426 -2397081 -2407230 -2415567 -2419554 -2416357 
3665.868 -2404133 -2383175 -2355791 -2326559 -2301741 -2288129 -2291953 
3669.243 -2315782 -2356779 -2405549 -2449141 -2474675 -2474313 -2447560 
3672.618 -2401562 -2349265 -2305861 -2287668 -2305630 -2360635 -2440147 
3675.993 -2522708 -2587434 -2622280 -2627846 -2612400 -2587302 -2561577 
3679.369 -2539804 -2522543 -2507356 -2490950 -2471908 -2450328 -2428022 
3682.744 -2406373 -2384955 -2361294 -2332227 -2295809 -2252861 -2207930 
3686.119 -2167545 -2139850 -2129959 -2139520 -2163951 -2195469 -2225303 
3689.494 -2248312 -2263408 -2273363 -2281241 -2288492 -2293601 -2293337 
3692.870 -2285196 -2268551 -2246004 -2222007 -2202128 -2190623 -2189700 
3696.245 -2198139 -2212480 -2228797 -2243796 -2256091 -2266342 -2277318 
3699.620 -2291326 -2310673 -2335984 -2366138 -2398432 -2429438 -2455270 
3702.995 -2473753 -2483735 -2485448 -2480375 -2470985 -2458960 -2446044 
3706.371 -2432964 -2419422 -2405319 -2390589 -2376486 -2365545 -2361624 
3709.746 -2368709 -2389667 -2424331 -2469470 -2518623 -2563455 -2597282 
3713.121 -2615298 -2616879 -2604265 -2581472 -2553672 -2524980 -2498725 
3716.496 -2477772 -2462946 -2454611 -2451909 -2453721 -2459026 -2466373 
3719.872 -2474972 -2483274 -2489896 -2492861 -2490324 -2480704 -2464034 
3723.247 -2442091 -2418367 -2398004 -2386075 -2385976 -2399091 -2422881 
3726.622 -2451415 -2476685 -2491345 -2490851 -2473753 -2443475 -2406044 
3729.997 -2369500 -2341027 -2325372 -2324087 -2334435 -2351210 -2369137 
3733.373 -2386800 -2405780 -2431481 -2468811 -2519315 -2578738 -2637726 
3736.748 -2684555 -2710832 -2713763 -2696278 -2664731 -2625310 -2583119 
3740.123 -2539639 -2494245 -2446835 -2399157 -2357043 -2329788 -2328437 
3743.498 -2360009 -2421300 -2496650 -2561149 -2593824 -2587039 -2546524 
3746.874 -2486404 -2422782 -2370356 -2338950 -2333183 -2351836 -2389733 
3750.249 -2440344 -2498297 -2559963 -2621786 -2678693 -2723740 -2750443 
3753.624 -2754723 -2736877 -2701777 -2656959 -2609633 -2566090 -2530054 
3756.999 -2502777 -2483933 -2473489 -2472402 -2481198 -2499779 -2525343 
3760.375 -2551267 -2570273 -2575214 -2562961 -2535258 -2498198 -2459948 
3763.750 -2428549 -2409306 -2404363 -2411052 -2425056 -2441794 -2458960 
3767.125 -2476718 -2497210 -2522180 -2552552 -2586314 -2620238 -2649977 
3770.500 -2671943 -2684357 -2687749 -2683831 -2675236 -2664533 -2653534 
3773.875 -2643490 -2634499 -2625672 -2615298 -2601597 -2584009 -2563257 
3777.251 -2542374 -2525376 -2516514 -2517503 -2527748 -2541814 -2552914 
3780.626 -2555220 -2545766 -2525738 -2499746 -2474016 -2454248 -2443573 
3784.001 -2442288 -2448318 -2458103 -2468547 -2477970 -2486041 -2493059 
3787.376 -2499219 -2503930 -2505874 -2504391 -2499186 -2491543 -2483208 
3790.752 -2476026 -2470985 -2467921 -2465516 -2463243 -2460739 -2459454 
3794.127 -2461793 -2470129 -2485317 -2505577 -2526726 -2542505 -2547348 
3797.502 -2538091 -2515394 -2483373 -2449240 -2422124 -2410031 -2418565 
3800.877 -2447955 -2491148 -2535094 -2565827 -2573962 -2557427 -2522049 
3804.253 -2478365 -2439718 -2418137 -2421893 -2452370 -2502975 -2560062 
3807.628 -2608184 -2636442 -2641678 -2627122 -2599653 -2565925 -2530943 
3811.003 -2495694 -2459751 -2422058 -2383340 -2346629 -2318319 -2304872 
3814.378 -2312486 -2342411 -2389897 -2442717 -2485811 -2506533 -2499219 
3817.754 -2467197 -2420048 -2371806 -2336446 -2326328 -2348211 -2400739 
3821.129 -2472501 -2545338 -2602222 -2632127 -2634729 -2616319 -2587599 
3824.504 -2558844 -2536708 -2523564 -2517041 -2511639 -2501229 -2482022 
3827.879 -2454150 -2421300 -2389107 -2362579 -2345245 -2337995 -2338687 
3831.255 -2344058 -2349826 -2352495 -2349562 -2339873 -2324087 -2303521 
3834.630 -2281702 -2262782 -2252300 -2254641 -2272539 -2304675 -2346102 
3838.005 -2388448 -2423705 -2447033 -2457444 -2458466 -2455072 -2452272 
3841.380 -2453095 -2458663 -2467822 -2478497 -2489039 -2497572 -2503205 
3844.756 -2504622 -2500669 -2490225 -2472633 -2447922 -2416654 -2380143 
3848.131 -2339115 -2293732 -2243532 -2188579 -2130651 -2074760 -2029877 
3851.506 -2007780 -2021434 -2078981 -2177864 -2301115 -2422717 -2518326 
3854.881 -2574621 -2592342 -2581011 -2552816 -2517239 -2480605 -2446275 
3858.257 -2414710 -2385812 -2359416 -2335193 -2313211 -2293172 -2274648 
3861.632 -2257343 -2241983 -2230445 -2225336 -2228995 -2240697 -2256355 
3865.007 -2268517 -2269177 -2252498 -2218347 -2172556 -2125969 -2091215 
3868.382 -2079772 -2097843 -2143345 -2204634 -2264793 -2309849 -2331173 
3871.758 -2331140 -2316803 -2298577 -2285196 -2281010 -2285492 -2293502 
3875.133 -2298083 -2293040 -2275308 -2245806 -2208721 -2170116 -2137113 
3878.508 -2116143 -2111362 -2124189 -2150961 -2184820 -2216271 -2236742 
3881.883 -2241060 -2229160 -2205886 -2179315 -2159764 -2156467 -2174567 
3885.259 -2212875 -2263408 -2313508 -2349859 -2364458 -2355988 -2329624 
3888.634 -2294425 -2260574 -2237697 -2231896 -2244653 -2271385 -2304081 
3892.009 -2333513 -2351935 -2355758 -2345443 -2324021 -2294919 -2262189 
3895.384 -2228402 -2195436 -2164479 -2136949 -2113703 -2095732 -2083631 
3898.760 -2077398 -2075749 -2077134 -2080234 -2084191 -2089335 -2096820 
3902.135 -2108757 -2125936 -2148456 -2174666 -2201667 -2225929 -2244092 
3905.510 -2254344 -2255695 -2248312 -2233445 -2212150 -2185546 -2154885 
3908.885 -2121353 -2086269 -2050720 -2015663 -1981856 -1949631 -1918986 
3912.260 -1889560 -1861352 -1834693 -1810310 -1789753 -1775003 -1767479 
3915.636 -1768238 -1777708 -1795395 -1819087 -1847066 -1876858 -1906648 
3919.011 -1935216 -1961241 -1983670 -2001448 -2013849 -2020709 -2023083 
3922.386 -2023083 -2023611 -2027734 -2037034 -2051577 -2069781 -2088016 
3925.761 -2102492 -2111131 -2112846 -2108757 -2101206 -2092633 -2084851 
3929.137 -2078585 -2073639 -2070143 -2067901 -2068528 -2073573 -2084620 
3932.512 -2101767 -2123496 -2146741 -2167776 -2183106 -2191414 -2192535 
3935.887 -2187952 -2179875 -2170018 -2158907 -2146807 -2133454 -2118418 
3939.262 -2102426 -2087291 -2074397 -2065691 -2061899 -2062856 -2066780 
3942.638 -2071264 -2074034 -2073540 -2068791 -2060118 -2049203 -2037990 
3946.013 -2028954 -2024534 -2026744 -2036176 -2052501 -2073804 -2096985 
3949.388 -2118649 -2135926 -2146675 -2150500 -2147928 -2140312 -2129233 
3952.763 -2116143 -2102228 -2088049 -2074397 -2061767 -2050588 -2040826 
3956.139 -2032054 -2023809 -2015234 -2005769 -1995610 -1985056 -1975194 
3959.514 -1967080 -1960977 -1957118 -1954710 -1953292 -1952071 -1951082 
3962.889 -1950587 -1951445 -1954084 -1958504 -1964705 -1971433 -1977667 
3966.264 -1982516 -1985517 -1986606 -1986606 -1986441 -1987101 -1989541 
3969.640 -1993928 -2000096 -2007352 -2014904 -2021698 -2027272 -2031493 
3973.015 -2034725 -2037462 -2040332 -2043893 -2047884 -2052039 -2055765 
3976.390 -2058700 -2060448 -2060811 -2059723 -2057414 -2053490 -2048444 
3979.765 -2042706 -2036935 -2032252 -2029481 -2028954 -2030669 -2033637 
3983.141 -2036473 -2038122 -2038188 -2036737 -2034989 -2033967 -2034560 
3986.516 -2036935 -2040694 -2044520 -2047917 -2050093 -2050852 -2049862 
3989.891 -2046894 -2041156 -2031988 -2018895 -2002569 -1984627 -1967541 
3993.266 -1953754 -1945639 -1943528 -1946398 -1952566 -1959757 -1965991 
3996.642 -1970675 -1974369 -1977898 -1982153 -1987562 -1994027 -2000887 
4000.017 -2006989 -2011804 
##END=
