
##TITLE=Z140a_2_b
##JCAMP-DX=5.01  $$ Nicolet v. 1
##DATATYPE=INFRARED SPECTRUM
##ORIGIN=UniL
##OWNER=Nicolet
##LONGDATE=2011/09/20
##TIME=09:50:04
##SPECTROMETER/DATA SYSTEM=Nicolet iS5
##DATA PROCESSING=
Ratio against background
%Transmittance->Absorbance
Truncated
ElementMultiply or ElementDivide
##COMMENTS=
Number of sample scans: 32
Collection length: 51.14 sec
Sample gain: 2.0
Background collected on: Mar Sep 20 09:46:26 2011 (GMT+02:00);
Number of background scans: 32
Background gain: 2.0
Sample spacing:  1.000
Number of scan points: 12415
Resolution points: 8192
Number of FFT points: 65536
Apodization: N-B fort;
Phase correction: Mertz;
Laser frequency: 15798.0 cm-1
Number of rejected sample scans: 0
Number of rejected background scans: 0
Bench serial number: ASB1000141;
##RESOLUTION=4.000
##XUNITS=1/CM
##YUNITS=ABSORBANCE
##FIRSTX=649.893372
##LASTX=4000.122314
##FIRSTY=0.097491
##MAXX=4000.122314
##MINX=649.893372
##MAXY=0.595800
##MINY=-0.000366
##XFACTOR=1.000000
##YFACTOR=1.000000E-009
##NPOINTS=6950
##DELTAX=0.482117
##ZPD=6100
##XYDATA=(X++(Y..Y))
649.893 97491032 93827416 91108160 89300736 88318824 88036616 88299048 
653.268 88962952 89925984 91140728 92616832 94393456 96506672 98961664 
656.643 101729160 104764336 108035448 111544488 115333576 119464560 
659.536 124014224 129066024 134717232 141113360 148446864 156918544 
662.428 166687200 177766592 189974752 202878256 215860016 228154384 
665.321 238745264 246432400 249803104 247466224 238749168 224329952 
668.214 206328256 187342368 169450352 153677120 140147856 128599168 
671.107 118701312 110215744 103041008 97138320 92450576 88862312 86193464 
674.481 84247456 82840808 81845456 81184744 80805320 80658912 80689632 
677.856 80834728 81044040 81289728 81565264 81875296 82220104 82583856 
681.231 82938824 83256376 83521232 83740880 83942472 84159488 84415392 
684.606 84716920 85055288 85418320 85803416 86225224 86711520 87295816 
687.981 88001440 88835160 89790496 90856240 92026696 93309560 94723464 
691.355 96292128 98038744 99980816 102136296 104530584 107199752 110194696 
694.730 113574776 117393984 121700128 126530272 131917312 137909568 
697.623 144587728 152079008 160584016 170365152 181728768 194997552 
700.516 210414208 228036800 247557760 268206208 288579488 306583744 
703.408 319843040 326007328 323451232 311891776 292462560 267432384 
706.301 239428848 211021296 184210368 160205024 139654496 122668288 
709.194 109009136 98264192 89947704 83589192 78746384 75056808 72231520 
712.569 70037856 68312880 66941216 65840764 64957336 64247616 63673204 
715.943 63202404 62809064 62475840 62196784 61972320 61804240 61690760 
719.318 61624312 61593076 61587080 61601592 61638324 61703856 61804580 
722.693 61941864 62112292 62308600 62525624 62763772 63030012 63334756 
726.068 63686788 64089448 64538380 65024452 65536916 66068976 66618912 
729.443 67189224 67783344 68403632 69050024 69720752 70415352 71135816 
732.817 71886416 72673200 73500544 74369960 75280448 76229424 77216328 
736.192 78243176 79315288 80439976 81624720 82876056 84199872 85602896 
739.567 87093792 88685368 90395064 92244256 94260592 96477536 98932784 
742.942 101673504 104753032 108229040 112169584 116649960 121753760 
745.835 127583128 134253056 141891472 150642288 160650016 172056816 
748.727 184992784 199558800 215799040 233643200 252869728 272988736 
751.620 293161856 312269408 328862656 341393664 348558912 349472640 
754.513 343929728 332398816 315906176 295779392 273376160 249997904 
757.405 226704192 204294352 183390848 164395728 147556736 133007544 
760.298 120740208 110638448 102488888 96021072 90935896 86943480 83810000 
763.673 81344632 79405384 77892032 76720304 75818232 75127504 74596840 
767.048 74187744 73874504 73635680 73453328 73311656 73198072 73109808 
770.423 73055696 73056640 73137528 73319504 73612672 74014080 74511352 
773.797 75090792 75745296 76477104 77295736 78210960 79228944 80348704 
777.172 81565384 82874848 84279152 85787592 87415544 89179104 91091848 
780.547 93165696 95413528 97853576 100515680 103439368 106673240 110276224 
783.922 114309568 118840824 123940688 129668816 136058832 143087184 
786.815 150654416 158551344 166458576 173999680 180744320 186295872 
789.707 190367440 192801728 193610448 192947200 191083200 188334832 
792.600 185010128 181402880 177753472 174262208 171112384 168458656 
795.493 166442832 165199936 164843968 165484544 167227888 170171712 
798.385 174411408 180025488 187056256 195478016 205150496 215795280 
801.278 226897504 237694960 247232672 254333584 257841952 256853136 
804.171 250863696 239982048 224899600 206789552 187006208 166877264 
807.063 147561584 129842640 114194872 100815464 89668720 80591376 73344104 
810.438 67671728 63314596 60030396 57616012 55889152 54702696 53947584 
813.813 53535620 53401272 53495332 53773352 54198940 54742232 55379428 
817.188 56094812 56877460 57717832 58605644 59528368 60473856 61433996 
820.563 62408660 63406064 64439780 65525396 66674844 67893040 69179744 
823.938 70531808 71947408 73427792 74977536 76602776 78309320 80102632 
827.312 81989736 83984088 86108536 88397360 90898760 93667272 96763008 
830.687 100251192 104195912 108665680 113737224 119492000 126025480 
833.580 133446408 141868320 151408016 162161616 174175056 187391072 
836.473 201591728 216371248 231034624 244636320 256067184 264084672 
839.365 267612752 265959584 258976816 247156912 231516048 213419504 
842.258 194224688 175150864 157172064 140898816 126687136 114660296 
845.151 104752984 96786112 90506664 85647448 81938680 79142512 77072000 
848.525 75571280 74522208 73835584 73432928 73247880 73222584 73302600 
851.900 73443096 73608984 73774512 73927528 74067792 74206408 74362528 
855.275 74559224 74818160 75152288 75564696 76045984 76580048 77146240 
858.650 77726000 78307256 78882816 79450184 80007696 80552360 81079304 
862.025 81583896 82062376 82515504 82947240 83363632 83770096 84168256 
865.400 84555144 84923720 85264872 85569608 85832248 86051128 86229544 
868.774 86375376 86500672 86620056 86749064 86902480 87091896 87323448 
872.149 87598096 87912712 88262832 88645544 89062112 89517712 90021328 
875.524 90582424 91209512 91910152 92691320 93561136 94532248 95620448 
878.899 96846152 98232416 99800616 101568912 103546264 105726832 108081296 
882.274 110550056 113045816 115446768 117615296 119422944 120758664 
885.166 121559176 121816392 121577192 120929400 119982400 118854936 
888.059 117648352 116446768 115319704 114321296 113501744 112909576 
890.952 112584616 112557088 112839968 113427352 114296040 115412624 
893.844 116743208 118255464 119925800 121739336 123686528 125762744 
896.737 127966136 130297944 132763264 135371136 138135584 141073008 
899.630 144200816 147535568 151090144 154874784 158896688 163162032 
902.523 167677808 172454320 177506096 182854864 188530880 194572720 
905.415 201032208 207973952 215471616 223610224 232475712 242145664 
908.308 252684864 264136224 276522272 289842144 304082016 319213120 
911.201 335171552 351847424 369037984 386384000 403375968 419300160 
914.093 433253920 444286400 451435264 453895616 451196064 443254400 
916.986 430448064 413540256 393605504 371845760 349392192 327290080 
919.879 306354048 287147328 270066048 255299568 242882528 232738320 
922.771 224691248 218501392 213881856 210543888 208201088 206582640 
925.664 205465520 204653904 203983920 203330480 202587632 201671824 
928.557 200524576 199104128 197388688 195372848 193061600 190466848 
931.450 187602880 184487088 181139728 177584464 173850480 169968128 
934.342 165967456 161877296 157722384 153526576 149314688 145111104 
937.235 140941120 136828544 132791160 128842504 124991888 121245944 
940.128 117612216 114099032 110714032 107463624 104349848 101371656 98525400 
943.502 95807632 93216576 90752504 88416288 86207440 84123496 82160168 
946.877 80312992 78578720 76956440 75446616 74048696 72760080 71575024 
950.252 70485080 69482920 68562528 67721264 66958496 66274068 65667020 
953.627 65134764 64674332 64284468 63966424 63724540 63564300 63490160 
957.002 63504392 63606956 63797304 64077848 64455928 64945640 65568320 
960.377 66349180 67319248 68515120 69977400 71755688 73907144 76489160 
963.751 79559008 83160184 87312024 91998224 97156432 102679272 108397680 
967.126 114100024 119551032 124490504 128682312 131929696 134079632 
970.019 135043616 134786768 133323792 130711328 127047152 122472936 
972.912 117161760 111331344 105232968 99115664 93233288 87805824 82987392 
976.286 78875064 75494992 72815992 70766664 69255784 68191448 67483008 
979.661 67053952 66841804 66792616 66866660 67034968 67277536 67582800 
983.036 67943832 68354216 68807200 69294536 69808064 70342536 70896080 
986.411 71470328 72068528 72694040 73348104 74030424 74740776 75480248 
989.786 76251896 77060720 77911856 78809072 79754760 80751280 81802536 
993.160 82916920 84108088 85395768 86805752 88367632 90115216 92084280 
996.535 94304352 96791080 99531352 102475176 105522304 108529184 111338232 
999.910 113790360 115773664 117251816 118278176 118991088 119582016 
1002.803 120279328 121290016 122778744 124864032 127608432 131036832 
1005.695 135151296 139945248 145407984 151521696 158257344 165554928 
1008.588 173304256 181345520 189435264 197247296 204405264 210459568 
1011.481 214948816 217469248 217696640 215475360 210849152 204072128 
1014.374 195567008 185851168 175498048 165020192 154844160 145307312 
1017.266 136620992 128905176 122203160 116494168 111717456 107786808 
1020.159 104611016 102098152 100163968 98740584 97768120 97197544 96991280 
1023.534 97116824 97548928 98267976 99255520 100492584 101955872 103612296 
1026.909 105419656 107325768 109265376 111170848 112973312 114608392 
1029.802 116030592 117217136 118176600 118949256 119608816 120255336 
1032.695 120993704 121929968 123147232 124688624 126550448 128673408 
1035.588 130951848 133228136 135317968 137034048 138190592 138642480 
1038.481 138299024 137129216 135168256 132506952 129281016 125638248 
1041.374 121726616 117678032 113589880 109534824 105565480 101719736 
1044.267 98033920 94544160 91282248 88275744 85541520 83083224 80892728 
1047.643 78951792 77236640 75717168 74362928 73144032 72031648 71003096 
1051.018 70042800 69142048 68298688 67514784 66792532 66133060 65534956 
1054.393 64995356 64511432 64081036 63702828 63375244 63095032 62856548 
1057.768 62653176 62477792 62325580 62194868 62086868 62004268 61949732 
1061.144 61924856 61930132 61965896 62033852 62137408 62281176 62470564 
1064.519 62709868 63002244 63350088 63755892 64222916 64755596 65358484 
1067.894 66035108 66786968 67613920 68514424 69486768 70530128 71644264 
1071.269 72828688 74082328 75402664 76786808 78233888 79745688 81328528 
1074.645 82993168 84754776 86630496 88639448 90803512 93146320 95696104 
1078.020 98486944 101555056 104940696 108682272 112808904 117335032 
1080.913 122249744 127511008 133032528 138684752 144306032 149696448 
1083.806 154651968 158988848 162552384 165252320 167072144 168078928 
1086.699 168415104 168290544 167973808 167738544 167861472 168595856 
1089.592 170132000 172603184 176061744 180470784 185683312 191426544 
1092.485 197322160 202839216 207351328 210227808 210861568 208834000 
1095.378 204002480 196533552 186883504 175699904 163748544 151735648 
1098.271 140249856 129733664 120425168 112409880 105650752 100032120 
1101.164 95398544 91581456 88428840 85797032 83559904 81616400 79880360 
1104.540 78288248 76800328 75393440 74059224 72797928 71615744 70522760 
1107.915 69533160 68667616 67949912 67402936 67045176 66883700 66913620 
1111.290 67118376 67475112 67956928 68534248 69176552 69848072 70507528 
1114.665 71114776 71631096 72029184 72298352 72444744 72489336 72460560 
1118.041 72391864 72315336 72260352 72257616 72336632 72524768 72846360 
1121.416 73315584 73936528 74702952 75603024 76623528 77752592 78982792 
1124.791 80309160 81729848 83248024 84877352 86649016 88613200 90847496 
1128.166 93454168 96551776 100289128 104835696 110371784 117087088 125126272 
1131.542 134531504 145146464 156555376 168031456 178507232 186807488 
1134.435 191815248 192759104 189484656 182498400 172878000 161908656 
1137.328 150912736 140974080 132764800 126629200 122584000 120425512 
1140.221 119801704 120296248 121498112 122989976 124412584 125487432 
1143.114 126018344 125933144 125277504 124204224 122920976 121649880 
1146.007 120589504 119869200 119557320 119668648 120184632 121072080 
1148.900 122293968 123817032 125605152 127622112 129837360 132228496 
1151.793 134789792 137529520 140461696 143590208 146894976 150321056 
1154.686 153785936 157194544 160452672 163495712 166296064 168864416 
1157.579 171240016 173479296 175645184 177794640 179980848 182251680 
1160.472 184644656 187189520 189902976 192789488 195845488 199066736 
1163.365 202456400 206030656 209818848 213856400 218181648 222826592 
1166.258 227816352 233174720 238928368 245111936 251769984 258949280 
1169.151 266692080 275028704 283975040 293533728 303699392 314468768 
1172.044 325835392 337784960 350290208 363292224 376700960 390412608 
1174.938 404311200 418301152 432321248 446339456 460343200 474317920 
1177.831 488224352 501994496 515534816 528729088 541447296 553529984 
1180.724 564759232 574848832 583427328 590056064 594309248 595800448 
1183.617 594236224 589455872 581405184 570144512 555856320 538850880 
1186.510 519574656 498570656 476455584 453826944 431189824 408963168 
1189.403 387434944 366786592 347137888 328544224 311019232 294544384 
1192.296 279066720 264512720 250801200 237858624 225629264 214078400 
1195.189 203185296 192936304 183316240 174306304 165890992 158065584 
1198.082 150840928 144250832 138345392 133180944 128822224 125328568 
1200.975 122750344 121133120 120507192 120885800 122259360 124592256 
1203.868 127820688 131848456 136562784 141829696 147499456 153429040 
1206.761 159472000 165489040 171362800 176990512 182297248 187246528 
1209.654 191843520 196142000 200234176 204252096 208342880 212646656 
1212.547 217292720 222371696 227926560 233942160 240339248 246970432 
1215.440 253610112 259990752 265805776 270735072 274504896 276886912 
1218.333 277718688 276906688 274401472 270187616 264281776 256734496 
1221.227 247644688 237163024 225495616 212886800 199594256 185893264 
1224.120 172049008 158308496 144914560 132073432 119952784 108687432 
1227.013 98357688 89006264 80646304 73262472 66821516 61272880 56551512 
1230.388 52578628 49266680 46532524 44296348 42490460 41062972 39969536 
1233.763 39173080 38641520 38343196 38250152 38340008 38594368 38999460 
1237.138 39543108 40210896 40985808 41847872 42775420 43750124 44756304 
1240.514 45781792 46816716 47850484 48870592 49864264 50819940 51730100 
1243.889 52593924 53416932 54208512 54978292 55735016 56485732 57237940 
1247.264 58004784 58807580 59676604 60653956 61786476 63124804 64724596 
1250.639 66640080 68925584 71631016 74787456 78393288 82390224 86657392 
1254.015 90988960 95103704 98698576 101462632 103156040 103667864 103034920 
1257.390 101444768 99179904 96590136 94002936 91673312 89777128 88386640 
1260.765 87497160 87056704 87003792 87292456 87906216 88858248 90179808 
1264.140 91904912 94053912 96626600 99597320 102920000 106524288 110319496 
1267.516 114204264 118056352 121747312 125156552 128170520 130705016 
1270.409 132714328 134195192 135189520 135776656 136071712 136204304 
1273.302 136312640 136543120 137029920 137900016 139268224 141221632 
1276.195 143823120 147106000 151075280 155712128 160978560 166828464 
1279.088 173203728 180039680 187269680 194812720 202576768 210461760 
1281.981 218347424 226107456 233616672 240748256 247391776 253456272 
1284.874 258873344 263609536 267673440 271129248 274089824 276719648 
1287.767 279217856 281773120 284554464 287680736 291201376 295099360 
1290.660 299289568 303638304 307956672 312025312 315623808 318533728 
1293.553 320590176 321711008 321915840 321331040 320168480 318711552 
1296.446 317250144 316063104 315406176 315474624 316413472 318305984 
1299.339 321160736 324904192 329370240 334327808 339471648 344463872 
1302.232 348993344 352771296 355575136 357258592 357732320 356965952 
1305.125 354977440 351828256 347612320 342441024 336430976 329678848 
1308.019 322255904 314209504 305572960 296379648 286672800 276505728 
1310.912 265940096 255042128 243879120 232528720 221084160 209649024 
1313.805 198340224 187271376 176533744 166202192 156328224 146946192 
1316.698 138091312 129797992 122099224 115025840 108594408 102804576 
1319.591 97639704 93070400 89059136 85561856 82531888 79915520 77652024 
1322.966 75679616 73933456 72351656 70882152 69477160 68094656 66698528 
1326.341 65254116 63733480 62120968 60415284 58633252 56804308 54967272 
1329.717 53158464 51406500 49731788 48146384 46658676 45275988 44004780 
1333.092 42848004 41803256 40861984 40011608 39239372 38537080 37902016 
1336.467 37335788 36840084 36413148 36047940 35735232 35466684 35240380 
1339.842 35061356 34939888 34884844 34899420 34978712 35111896 35286704 
1343.218 35493216 35727752 35990880 36285396 36612344 36969188 37350952 
1346.593 37753512 38176268 38624716 39108468 39639148 40226528 40876216 
1349.968 41590944 42372636 43225348 44157384 45180128 46305504 47544696 
1353.343 48905452 50394156 52017716 53786740 55717120 57831416 60154976 
1356.719 62714844 65537268 68643664 72050112 75764816 79788088 84106640 
1360.094 88689512 93489304 98427344 103396064 108268704 112902872 117171696 
1363.469 120987616 124313352 127161000 129570976 131593480 133266064 
1366.362 134609840 135633344 136342528 136750448 136881792 136765248 
1369.255 136427120 135881248 135124656 134137792 132885816 131323904 
1372.148 129394992 127037600 124200872 120858224 117030336 112790600 
1375.041 108257528 103563800 98826448 94137688 89557944 85131752 80909688 
1378.417 76947936 73306600 70036928 67159952 64665332 62515864 60665996 
1381.792 59075360 57717948 56580952 55653916 54918352 54344764 53893036 
1385.167 53523892 53211496 52946896 52740444 52611912 52580648 52655340 
1388.542 52833832 53109372 53476780 53936440 54491724 55144128 55888364 
1391.917 56710132 57592140 58518776 59483000 60488972 61549360 62677368 
1395.293 63877628 65146812 66477248 67865656 69320224 70861712 72517720 
1398.668 74315192 76268632 78375832 80623520 82995976 85485200 88093600 
1402.043 90832424 93712408 96733688 99882016 103123688 106407776 109677688 
1405.418 112874472 115944560 118844912 121541504 124012376 126250520 
1408.312 128265112 130085944 131760616 133356768 134950928 136616688 
1411.205 138422864 140420720 142645680 145122160 147864624 150878576 
1414.098 154155520 157670640 161372048 165171040 168949920 172537664 
1416.991 175702032 178170880 179631456 179806368 178548784 175896192 
1419.884 172062704 167338848 161996992 156224656 150130080 143804144 
1422.777 137360832 130967792 124865448 119294456 114440088 110386264 
1425.670 107098352 104462600 102334408 100592904 99154968 97977664 97045968 
1429.045 96352312 95885272 95630072 95573248 95709240 96038512 96556944 
1432.420 97243472 98054648 98918592 99748048 100451992 100937816 101132904 
1435.796 100998264 100541904 99818832 98910112 97891968 96808304 95672688 
1439.171 94481376 93230208 91929320 90609808 89318488 88120056 87088128 
1442.546 86293528 85808864 85698664 86012312 86785848 88038080 89778064 
1445.921 92013592 94759608 98037784 101868680 106261112 111215536 116746328 
1449.297 122903776 129796792 137584144 146419808 156387392 167416848 
1452.190 179282544 191587776 203852128 215638944 226503472 235983648 
1455.083 243539472 248490368 250197408 248382976 243461520 236431648 
1457.976 228390864 220098272 211802192 203421552 194767168 185711120 
1460.869 176225840 166357632 156139712 145572640 134637424 123348344 
1463.762 111858984 100508240 89747384 80028968 71641760 64643956 58907260 
1467.137 54210016 50335104 47109252 44416384 42176696 40318936 38768264 
1470.512 37448932 36296348 35284652 34433068 33795444 33426058 33349984 
1473.888 33555260 34012608 34702088 35633148 36842860 38390788 40342060 
1477.263 42752128 45671792 49142960 53193108 57813360 62921956 68338248 
1480.638 73736264 78697648 82791576 85646560 87069664 87059344 85782792 
1484.013 83494368 80477104 76997336 73249608 69372272 65448380 61513888 
1487.389 57579312 53641292 49698164 45762092 41876624 38123704 34617864 
1490.764 31479038 28794148 26597856 24862430 23516296 22465684 21620662 
1494.139 20910492 20288478 19736214 19254366 18851044 18530800 18288368 
1497.514 18111288 17988532 17914736 17890946 17920330 18003486 18136232 
1500.890 18311800 18524230 18771842 19058060 19387632 19762428 20178296 
1504.265 20620726 21068648 21498858 21894720 22255258 22595958 22940630 
1507.640 23302110 23678410 24057282 24425442 24773812 25098380 25400038 
1511.015 25680392 25941022 26183646 26411334 26629314 26844264 27061156 
1514.391 27279920 27493536 27688786 27852398 27978788 28075626 28161882 
1517.766 28258054 28374516 28503286 28617336 28677434 28650038 28523842 
1521.141 28325636 28111398 27944828 27863846 27867624 27926172 27998860 
1524.516 28054418 28076970 28069228 28045652 28023104 28010736 28008402 
1527.892 28012114 28021760 28044946 28095492 28184968 28314778 28470806 
1531.267 28626998 28751914 28821484 28832566 28809410 28797690 28841948 
1534.642 28970220 29184102 29467478 29796354 30148280 30505824 30849432 
1538.017 31156182 31400244 31558986 31629224 31637880 31641912 31699256 
1541.393 31844880 32080088 32377358 32698620 33010862 33300292 33572872 
1544.768 33850456 34157008 34509076 34908252 35344388 35802296 36269944 
1548.143 36744048 37227728 37727996 38250512 38796996 39365640 39954064 
1551.518 40563000 41197204 41863452 42566944 43309024 44086520 44893476 
1554.894 45725392 46578588 47445040 48308560 49132388 49856720 50412388 
1558.269 50751600 50899508 50961132 51082952 51360624 51802260 52360200 
1561.644 52968268 53573928 54143796 54671312 55170876 55670108 56198652 
1565.019 56779156 57423172 58131776 58903160 59737508 60639896 61617780 
1568.395 62678016 63825280 65064936 66405780 67857208 69429032 71118136 
1571.770 72902320 74733304 76538872 78233768 79705800 80835208 81504976 
1575.145 81617000 81134856 80109528 78678872 77010472 75246288 73471384 
1578.520 71714096 69975336 68254872 66563636 64935132 63420712 62071196 
1581.896 60930992 60024272 59353752 58905324 58655020 58577356 58647172 
1585.271 58844952 59157328 59575152 60092224 60702572 61398120 62171396 
1588.646 63017756 63940892 64954260 66081280 67351128 68791200 70425328 
1592.021 72271272 74341608 76644520 79180080 81934352 84868368 87916760 
1595.396 91003136 94059464 97068760 100091448 103290352 106912512 111257704 
1598.772 116673848 123501768 132070888 142701840 155673536 171193568 
1601.665 189297664 209754192 231852688 254223232 274960672 291633408 
1604.558 301792768 303678464 296584704 281143872 259040512 232684384 
1607.451 204614192 176990960 151540720 129291400 110648536 95599848 83820008 
1610.826 74842096 68140432 63226468 59667820 57090688 55211696 53805680 
1614.201 52695736 51756004 50893920 50059980 49256624 48532032 47958632 
1617.577 47594864 47462636 47540332 47779688 48119880 48505096 48893992 
1620.952 49257332 49581896 49866824 50120332 50355716 50588736 50836928 
1624.327 51114444 51431936 51792736 52191240 52613784 53042352 53463212 
1627.702 53873532 54287764 54731820 55237508 55828184 56510412 57274500 
1631.078 58099160 58962324 59842832 60725892 61600332 62451008 63259164 
1634.453 64004892 64680448 65301792 65913296 66572516 67314760 68141048 
1637.828 69017008 69891464 70711136 71437912 72061920 72599064 73085104 
1641.203 73556464 74039072 74537112 75038568 75521400 75965776 76359216 
1644.579 76695552 76974400 77201728 77399744 77613952 77916336 78394288 
1647.954 79112376 80094704 81315264 82713760 84204096 85688376 87083064 
1651.329 88315776 89360480 90261504 91160384 92239664 93609968 95284560 
1654.704 97197760 99274000 101464056 103745816 106113872 108562376 111088424 
1658.080 113691464 116373696 119147912 122033168 125049160 128212944 
1660.973 131536808 135033040 138717808 142618176 146766448 151179024 
1663.866 155855568 160769552 165881808 171150576 176550800 182089472 
1666.759 187792400 193712704 199919744 206489600 213489792 220966096 
1669.652 228941792 237392928 246260176 255467360 264947088 274666400 
1672.545 284643872 294967552 305750880 317078336 328927360 341090176 
1675.438 353183296 364763936 375480160 385154112 393749664 401269824 
1678.331 407687104 412934720 416937888 419696768 421310816 421942592 
1681.224 421695264 420506976 418097536 414052384 408046528 400196192 
1684.117 391242240 382343296 374477440 367979904 362578624 357691424 
1687.010 352770816 347425984 341500000 335018816 328118784 320951296 
1689.903 313625664 306225984 298835808 291559808 284512320 277735712 
1692.796 271133280 264427936 257197888 248999360 239597024 229210272 
1695.689 218553648 208550368 199822016 192432896 185891904 179420608 
1698.583 172146224 163407824 153069728 141713360 130472720 120406936 
1701.476 111990736 105035472 99032952 93456016 87951856 82370240 76743392 
1704.851 71210960 65947084 61097824 56738600 52890564 49549252 46700328 
1708.226 44315980 42337640 40675204 39218228 37871752 36591256 35388028 
1711.601 34312888 33415106 32712162 32170460 31722638 31296856 30859430 
1714.977 30430298 30072710 29852144 29796000 29871878 30008334 30140752 
1718.352 30256794 30401298 30641450 31020360 31528808 32109986 32682832 
1721.727 33181712 33573764 33875424 34134676 34406452 34718920 35062788 
1725.102 35403412 35710664 35982924 36255284 36584192 37021072 37590248 
1728.478 38278992 39050320 39866956 40718072 41624312 42627396 43765632 
1731.853 45055396 46483252 48020912 49646640 51373344 53240448 55300916 
1735.228 57575340 60039376 62651300 65381052 68237424 71272024 74577672 
1738.603 78260392 82402968 87028440 92101320 97566728 103401784 109651416 
1741.979 116427016 123860880 132062752 141073968 150863568 161337744 
1744.872 172379744 183895056 195786064 207931328 220153968 232150912 
1747.765 243504704 253731072 262292288 268698368 272569408 273692544 
1750.658 272091200 268043072 262052032 254699504 246520752 237912656 
1753.551 229079008 220088176 210934736 201596400 192112272 182617856 
1756.444 173324256 164487856 156322272 148930416 142295552 136299248 
1759.337 130778712 125573560 120578472 115770984 111216480 107039216 
1762.230 103367648 100282152 97781736 95791072 94184944 92829240 91595528 
1765.605 90369848 89062352 87601784 85942808 84073304 82012632 79799000 
1768.980 77464856 75016560 72419688 69609584 66516056 63111200 59449144 
1772.356 55676776 51987572 48546000 45432568 42631124 40066292 37649072 
1775.731 35319732 33062562 30903152 28880368 27025470 25342464 23808350 
1779.106 22387878 21054702 19805916 18660418 17645422 16774829 16038943 
1782.481 15405497 14835744 14297179 13778229 13287809 12846470 12470500 
1785.857 12162351 11909486 11694072 11503363 11336714 11203516 11115499 
1789.232 11075933 11074642 11088781 11092079 11069067 11023422 10978325 
1792.607 10962829 10998001 11084804 11208378 11347529 11488835 11631990 
1795.982 11788198 11971948 12191930 12445164 12718369 12994546 13261708 
1799.358 13518268 13772107 14033041 14303685 14574911 14827722 15043427 
1802.733 15210235 15327814 15404467 15450094 15468154 15452361 15388813 
1806.108 15263907 15072001 14819322 14521768 14196893 13857277 13504801 
1809.483 13133007 12734371 12309751 11871993 11444166 11048606 10698401 
1812.859 10391406 10113792 9848119 9583792 9322334 9076597 8863091 8692009 
1816.716 8561715 8459637 8369877 8281757 8196255 8123733 8077417 8063510 
1820.573 8076979 8103241 8126366 8137169 8137000 8135988 8146488 8175186 
1824.431 8218608 8266763 8310329 8348766 8393185 8460684 8564351 8706580 
1828.288 8875164 9049498 9208536 9344373 9465725 9594936 9753463 9950388 
1832.146 10178541 10419031 10651742 10863786 11054962 11235341 11417292 
1835.521 11606194 11795348 11968643 12108891 12206276 12264010 12295503 
1838.896 12317557 12340805 12364429 12377725 12366612 12321682 12241856 
1842.271 12134887 12012141 11884048 11755140 11626647 11501049 11387120 
1845.647 11299713 11254621 11259823 11312091 11396270 11493122 11585809 
1849.022 11667999 11744928 11828681 11928557 12042560 12156149 12247172 
1852.397 12296526 12295606 12250035 12175164 12086813 11991771 11884864 
1855.772 11752690 11583529 11374909 11137255 10888689 10645867 10416689 
1859.148 10196722 9974120 9738824 9490955 9243025 9014517 8821261 8668280 
1863.005 8546779 8441089 8335660 8225429 8116812 8022804 7953145 7906746 
1866.863 7869024 7818518 7738638 7626738 7498010 7378487 7291848 7246328 
1870.720 7233290 7233088 7228034 7209977 7184071 7162613 7157931 7173089 
1874.577 7200106 7224598 7234402 7227967 7215805 7214491 7237232 7287265 
1878.435 7354492 7423110 7479739 7521743 7559907 7610990 7688249 7793385 
1882.292 7914237 8031782 8128358 8197537 8245622 8287464 8336100 8395077 
1886.150 8455751 8502715 8523091 8513291 8482105 8444838 8416224 8400819 
1890.007 8391699 8374944 8339983 8285167 8219891 8157359 8106786 8067088 
1893.865 8027495 7972516 7891698 7787212 7673207 7569314 7488975 7433323 
1897.722 7390417 7343337 7278977 7196603 7107508 7028938 6973378 6940988 
1901.579 6918970 6889311 6838684 6766658 6686096 6615946 6571977 6556503 
1905.437 6558993 6560675 6546883 6513449 6468616 6426512 6398938 6386631 
1909.294 6380107 6363901 6327589 6272254 6210136 6157806 6126721 6116707 
1913.152 6116942 6112876 6094898 6064657 6033444 6016410 6020979 6042583 
1917.009 6064456 6068152 6043490 5996387 5945259 5912308 5909823 5934174 
1920.866 5967531 5987921 5981405 5949626 5909419 5882785 5886278 5921075 
1924.724 5973745 6024642 6060860 6082869 6104677 6145070 6216152 6315856 
1928.581 6429168 6534908 6618368 6678560 6727957 6783956 6857399 6946072 
1932.439 7034528 7104342 7143851 7155842 7155573 7163354 7190640 7234975 
1936.296 7279718 7305158 7300406 7269913 7231605 7206877 7208932 7234200 
1940.154 7264758 7276652 7255055 7201352 7132365 7068507 7023146 6992032 
1944.011 6957351 6898266 6805025 6686130 6565586 6471677 6420492 6409698 
1947.868 6419282 6423250 6402637 6356773 6299417 6251144 6224152 6214438 
1951.726 6204725 6175417 6116673 6035964 5954900 5897026 5874825 5882214 
1955.583 5897193 5895985 5867504 5820622 5781200 5777640 5826600 5921746 
1959.441 6039928 6152665 6245127 6325001 6417197 6547690 6728798 6950146 
1963.298 7183734 7398607 7577744 7726125 7866392 8024356 8210031 8410346 
1967.156 8592334 8722197 8779537 8769461 8714118 8641847 8566142 8478591 
1971.013 8353393 8163267 7896995 7568674 7211628 6864872 6555494 6288121 
1974.870 6049874 5825558 5614617 5435383 5318740 5286776 5337055 5436490 
1978.728 5536384 5590820 5578603 5508598 5411729 5321558 5256658 5214336 
1982.585 5176075 5122562 5046630 4960287 4886528 4848430 4852551 4887634 
1986.443 4927980 4952344 4953786 4945843 4952747 4997591 5087661 5211317 
1990.300 5344703 5467224 5573837 5679302 5809708 5984159 6204456 6450355 
1994.157 6690067 6893654 7049715 7167902 7272305 7384048 7508966 7631324 
1998.015 7722448 7753480 7711318 7604246 7456075 7294139 7132870 6969742 
2001.872 6789307 6578705 6337104 6083104 5846144 5654092 5517222 5425116 
2005.730 5350674 5269335 5171917 5071134 4992798 4959349 4976140 5025210 
2009.587 5075425 5097484 5080756 5036473 4990451 4966387 4973056 4998596 
2013.445 5019478 5014852 4980196 4929388 4888505 4879223 4905159 4949764 
2017.302 4986161 4993703 4970979 4937766 4924428 4957036 5040629 5157566 
2021.159 5277351 5375900 5447193 5508228 5587229 5708308 5876605 6073931 
2025.017 6269027 6433103 6555999 6647672 6730581 6824581 6933817 7044226 
2028.874 7133409 7183801 7196502 7191617 7199668 7243161 7326488 7432042 
2032.732 7532464 7606033 7648050 7671252 7697659 7742113 7801077 7853571 
2036.589 7872667 7842336 7767175 7672938 7592242 7551816 7557446 7593287 
2040.447 7631829 7651456 7646701 7633010 7635404 7674624 7756246 7866729 
2044.304 7982640 8081974 8158540 8221039 8289761 8381700 8501668 8637826 
2048.161 8770543 8878309 8949976 8987252 8999193 8995641 8981096 8954204 
2052.019 8913110 8861096 8809900 8776325 8775243 8811861 8876246 8948217 
2055.876 9005248 9033699 9034612 9021689 9012149 9017291 9035559 9053151 
2059.734 9052035 9019456 8955049 8871275 8786028 8712529 8654354 8603250 
2063.591 8547049 8475956 8389976 8298069 8213103 8143550 8088253 8038025 
2067.448 7982640 7917578 7849151 7791395 7759922 7762654 7794802 7840582 
2071.306 7880461 7902124 7904080 7897096 7895409 7910155 7942077 7983079 
2075.163 8020846 8047376 8064422 8081873 8112457 8163808 8233803 8311241 
2079.021 8382510 8437778 8476496 8507040 8541608 8588109 8646884 8709893 
2082.878 8767027 8811151 8842564 8867792 8895962 8931779 8972740 9009950 
2086.736 9034443 9042190 9037690 9032312 9037420 9059106 9093448 9128570 
2090.593 9150192 9149989 9128570 9096492 9067598 9052948 9055621 9071218 
2094.450 9090910 9108064 9121667 9136217 9157198 9186368 9218249 9242889 
2098.308 9250911 9238353 9210330 9177434 9151681 9138856 9136115 9133983 
2102.165 9121768 9094090 9053321 9007616 8965976 8931746 8899649 8858830 
2106.023 8798269 8713780 8610617 8502107 8401799 8318907 8252376 8193823 
2109.880 8131835 8059595 7977916 7894532 7818922 7755740 7701773 7648556 
2113.738 7585869 7508561 7419807 7329555 7250203 7189326 7147354 7117646 
2117.595 7091611 7063119 7031867 7002739 6981493 6969876 6964725 6957890 
2121.452 6942571 6916917 6886618 6861876 6852181 6861035 6883487 6908837 
2125.310 6925670 6928262 6918936 6906648 6900387 6904393 6915637 6925333 
2129.167 6924862 6911900 6892374 6878909 6884598 6915199 6967553 7030386 
2133.025 7091173 7142638 7186092 7229685 7282885 7348392 7420616 7486548 
2136.882 7534217 7557885 7562200 7558862 7560076 7571776 7591669 7609843 
2140.740 7617026 7610383 7595479 7582970 7581689 7591871 7603673 7602897 
2144.597 7576496 7521844 7447514 7369926 7302496 7248687 7200476 7142874 
2148.454 7064062 6962402 6849893 6744648 6661837 6602758 6554317 6493436 
2152.312 6399812 6266035 6101921 5928700 5770522 5641638 5542827 5465311 
2156.169 5401899 5357248 5350305 5407301 5543800 5754170 6007407 6257429 
2160.027 6460814 6596602 6668263 6699152 6715136 6734014 6759960 6787928 
2163.884 6812665 6836832 6872345 6934154 7030857 7156617 7292084 7411279 
2167.741 7495279 7538263 7549321 7546320 7544769 7549152 7552018 7539274 
2171.599 7500403 7437772 7368107 7314492 7297610 7325544 7390282 7473503 
2175.456 7555659 7626097 7686529 7746801 7815785 7895442 7978051 8050177 
2179.314 8101959 8132511 8150843 8172180 8207465 8257172 8310396 8351704 
2183.171 8368390 8359845 8337146 8317387 8314854 8333903 8366397 8397238 
2187.029 8414839 8414738 8403995 8395482 8400381 8422237 8455650 8489910 
2190.886 8516908 8536270 8556410 8589596 8644755 8723144 8817136 8915173 
2194.743 9007649 9092364 9175099 9263908 9363163 9470500 9575865 9668043 
2198.601 9740044 9793790 9838967 9887844 9947744 10016570 10083677 10135770 
2202.458 10164566 10171485 10167721 10166839 10179863 10207747 10242043 
2205.833 10269252 10279566 10270949 10251440 10233460 10228168 10240415 
2209.209 10267725 10302909 10339621 10377593 10420049 10472352 10535727 
2212.584 10604409 10667022 10712631 10735317 10737899 10731310 10729476 
2215.959 10742144 10771490 10811436 10853084 10889708 10920491 10949815 
2219.334 10983864 11025291 11070155 11109992 11136100 11144904 11141096 
2222.710 11135997 11140552 11161460 11196206 11234899 11265604 11281009 
2226.085 11281791 11276520 11276622 11290088 11318111 11355318 11392767 
2229.460 11423789 11447194 11465496 11482541 11498838 11508772 11503295 
2232.835 11475226 11422701 11352971 11279479 11215722 11170980 11145006 
2236.211 11130490 11117266 11099420 11077700 11059279 11052718 11063629 
2239.586 11090005 11124405 11156837 11180668 11196546 11210622 11230683 
2242.961 11262611 11305902 11354604 11401814 11442397 11477199 11511188 
2246.336 11550521 11597788 11649893 11699416 11739175 11765797 11783363 
2249.712 11799910 11825582 11866238 11920928 11982881 12043412 12096967 
2253.087 12143236 12186443 12231972 12282039 12332624 12375339 12400533 
2256.462 12403397 12384987 12353793 12319569 12291174 12272257 12261078 
2259.837 12253648 12247071 12242095 12242639 12252796 12273927 12302900 
2263.213 12332283 12355123 12366884 12368486 12365486 12365418 12373122 
2266.588 12389726 12412261 12436401 12459895 12484037 12512614 12550162 
2269.963 12598629 12655459 12715469 12772724 12824150 12870668 12917088 
2273.338 12967985 13026024 13090320 13156299 13219112 13276193 13327952 
2276.714 13377839 13430021 13486105 13544794 13602739 13656350 13704563 
2280.089 13749466 13795330 13846399 13904419 13967271 14030987 14090983 
2283.464 14145338 14194805 14242291 14290879 14340910 14390399 14435371 
2286.839 14472162 14499877 14520433 14537837 14555619 14575115 14594510 
2290.215 14610238 14619046 14619903 14615482 14610067 14608012 14611575 
2293.590 14619936 14629943 14638374 14643925 14647078 14650676 14657223 
2296.965 14667195 14678848 14689027 14695265 14697356 14698144 14701881 
2300.340 14712745 14732523 14759637 14790558 14821584 14850556 14878294 
2303.716 14907372 14940636 14979218 15021611 15064901 15105654 15142811 
2307.091 15177259 15212053 15250042 15293388 15341407 15392246 15443846 
2310.466 15495177 15547270 15602117 15661335 15724888 15790924 15856696 
2313.841 15920037 15980879 16041178 16104307 16172981 16247375 16325051 
2317.217 16402017 16474525 16541328 16603909 16666017 16731991 16804724 
2320.592 16883704 16965906 17046398 17119906 17181640 17228178 17256896 
2323.967 17266656 17257276 17231318 17194016 17153410 17118874 17099366 
2327.342 17100710 17123664 17164198 17215354 17269172 17319790 17364756 
2330.718 17404382 17440492 17474606 17507204 17537942 17566924 17595526 
2334.093 17626202 17662332 17706230 17757724 17814198 17871922 17927650 
2337.468 17980692 18032706 18086866 18146146 18211550 18281420 18352308 
2340.843 18420266 18482944 18539028 18588410 18630086 18660868 18675982 
2344.219 18670206 18641014 18590762 18527376 18464206 18415840 18395376 
2347.594 18412350 18470878 18570532 18706768 18872810 19059686 19256756 
2350.969 19454054 19641390 19811568 19961102 20090524 20203498 20304728 
2354.344 20398030 20484788 20563990 20633928 20693140 20741830 20782006 
2357.719 20815656 20843498 20865158 20877812 20880036 20871762 20855596 
2361.095 20837138 20822362 20815272 20817636 20828030 20843570 20861820 
2364.470 20882226 20905870 20935004 20971272 21014706 21063466 21115848 
2367.845 21170394 21226688 21286294 21349700 21416980 21486188 21554080 
2371.220 21617562 21674992 21726474 21773710 21818514 21861442 21901758 
2374.596 21937338 21966406 21988328 22004502 22017084 22028762 22040996 
2377.971 22053616 22065330 22075302 22083562 22091684 22102702 22119438 
2381.346 22143250 22174180 22210724 22251144 22295298 22344028 22399460 
2384.721 22463660 22537324 22619310 22707562 22799600 22894382 22992540 
2388.097 23096066 23206364 23323332 23444282 23564636 23678972 23783082 
2391.472 23874718 23954122 24022610 24081656 24132338 24174864 24209160 
2394.847 24236734 24259716 24281160 24303724 24328396 24354362 24378964 
2398.222 24400030 24416328 24428734 24439848 24452536 24468696 24488396 
2401.598 24509992 24531132 24550450 24568508 24586460 24606656 24630326 
2404.973 24656838 24684580 24711200 24735122 24756060 24775144 24793526 
2408.348 24811874 24829662 24845554 24858220 24867308 24873798 24879552 
2411.723 24886676 24895694 24906256 24917450 24928538 24940154 24954262 
2415.099 24973598 24999778 25033088 25071454 25111474 25150688 25187696 
2418.474 25223654 25260770 25301054 25345310 25392134 25439174 25484112 
2421.849 25525962 25566198 25607424 25652412 25702330 25756752 25813886 
2425.224 25871628 25928852 25986188 26044902 26105664 26168196 26229892 
2428.600 26287864 26339896 26385596 26427040 26467218 26509200 26554070 
2431.975 26600742 26646822 26689842 26729376 26767082 26805848 26848672 
2435.350 26896786 26949312 27003786 27057350 27108592 27158074 27208200 
2438.725 27261046 27318204 27379322 27442708 27506986 27571378 27636734 
2442.101 27704536 27775920 27850172 27925110 27997480 28065128 28127484 
2445.476 28187230 28248612 28316370 28393616 28481172 28577488 28680300 
2448.851 28787032 28895988 29006384 29117448 29227796 29336012 29440138 
2452.226 29539858 29636692 29734044 29835712 29944574 30061596 30185254 
2455.602 30312254 30439430 30564656 30687676 30809130 30929624 31048904 
2458.977 31165226 31276558 31381260 31479642 31573348 31665608 31758960 
2462.352 31854544 31951572 32048520 32143560 32236226 32327916 32420340 
2465.727 32515176 32612532 32711234 32809168 32904946 32998566 33091522 
2469.103 33186544 33285122 33387624 33492404 33596892 33698572 33797376 
2472.478 33894876 33994476 34099012 34210276 34328060 34450784 34576452 
2475.853 34703848 34833036 34964884 35099612 35237072 35375588 35512924 
2479.228 35647424 35778980 35908600 36038508 36170144 36303768 36438188 
2482.604 36571396 36702220 36830996 36959664 37091292 37228196 37371464 
2485.979 37519584 37670172 37820744 37970176 38118928 38268896 38422064 
2489.354 38579520 38741024 38905156 39070548 39236868 39404348 39574032 
2492.729 39746504 39921548 40097284 40271456 40442024 40608328 40771460 
2496.104 40933192 41095500 41259832 41426268 41594264 41763348 41934060 
2499.480 42106964 42283400 42463896 42647464 42832352 43016148 43197092 
2502.855 43374964 43551296 43728176 43907808 44091472 44278884 44468468 
2506.230 44658644 44848396 45037312 45225940 45414580 45603480 45792392 
2509.605 45980984 46168840 46356304 46543440 46730068 46914896 47095960 
2512.981 47270592 47437204 47595640 47747692 47896472 48045264 48196476 
2516.356 48351408 48509172 48668920 48830328 48994128 49161624 49334200 
2519.731 49511816 49693076 49875004 50054444 50229488 50399884 50566812 
2523.106 50731936 50896156 51059284 51219192 51373640 51521352 51662588 
2526.482 51799680 51935704 52073444 52214520 52358892 52505928 52655376 
2529.857 52808240 52966472 53133340 53310568 53498816 53696368 53900576 
2533.232 54108332 54317652 54528124 54740916 54957536 55179904 55408488 
2536.607 55643404 55884292 56130816 56382800 56639952 56901484 57165900 
2539.983 57430548 57692784 57949840 58199508 58440416 58671328 58890220 
2543.358 59095064 59283064 59450968 59596512 59717584 59813020 59881548 
2546.733 59921712 59931296 59907488 59847856 59750852 59616580 59446448 
2550.108 59243564 59011664 58754928 58477984 58186216 57884984 57580296 
2553.484 57277104 56978208 56684724 56394384 56104120 55810400 55511908 
2556.859 55208988 54905044 54604092 54310028 54025588 53751376 53487460 
2560.234 53233744 52991216 52762068 52549308 52355528 52182196 52029516 
2563.609 51896680 51782736 51687368 51610976 51554704 51519300 51505460 
2566.985 51512472 51539820 51586384 51651800 51735288 51836492 51954040 
2570.360 52085696 52229168 52382140 52543212 52712644 52891804 53082376 
2573.735 53285844 53502828 53732628 53974444 54227768 54492288 54769144 
2577.110 55059640 55364640 55684384 56018356 56365032 56722216 57087704 
2580.486 57459064 57833200 58206668 58575268 58933860 59277936 59602860 
2583.861 59904328 60178648 60421948 60629916 60798112 60921844 60996612 
2587.236 61019224 60987076 60898628 60753448 60551284 60292608 59978620 
2590.611 59612096 59196972 58738504 58243424 57717832 57167976 56599108 
2593.987 56015640 55422192 54823948 54226120 53634284 53053844 52488396 
2597.362 51940408 51411536 50902528 50414808 49950348 49511224 49099624 
2600.737 48716848 48362776 48036420 47736192 47460900 47209564 46981860 
2604.112 46777336 46595264 46434504 46293228 46169984 46063428 45973024 
2607.488 45897852 45836872 45788196 45749168 45717804 45692256 45672416 
2610.863 45659276 45654604 45659720 45675068 45699732 45731352 45767912 
2614.238 45807048 45847624 45889052 45931076 45973544 46015828 46057792 
2617.613 46099348 46141464 46185536 46233224 46285968 46343916 46406076 
2620.989 46471380 46538280 46606144 46675424 46747044 46822360 46902344 
2624.364 46987512 47077568 47172552 47272072 47376304 47485180 47598448 
2627.739 47715480 47835320 47957372 48081312 48207580 48337076 48470420 
2631.114 48607736 48748100 48889764 49030736 49170048 49307436 49443828 
2634.490 49580672 49718856 49858572 49998488 50136920 50272084 50403084 
2637.865 50529996 50653852 50775844 50896976 51017624 51137184 51255208 
2641.240 51371404 51486472 51601496 51717636 51836304 51957884 52082220 
2644.615 52208728 52336052 52463340 52589248 52712796 52833120 52949588 
2647.990 53061856 53170336 53275508 53378228 53479028 53577600 53673460 
2651.366 53765064 53850988 53930360 54002700 54068476 54128560 54183772 
2654.741 54234752 54281644 54324672 54363728 54399216 54431512 54460772 
2658.116 54487328 54510880 54530980 54547544 54560848 54571740 54581248 
2661.491 54590564 54600144 54609876 54619236 54627424 54634300 54640052 
2664.867 54645872 54652640 54660868 54670112 54678832 54684920 54685820 
2668.242 54679208 54663120 54635576 54594584 54537552 54461864 54364740 
2671.617 54244212 54099400 53930848 53740316 53530336 53304388 53066200 
2674.992 52820472 52573092 52330408 52099816 51888728 51703976 51550752 
2678.368 51432908 51352084 51308936 51302416 51331052 51391916 51481324 
2681.743 51594592 51726552 51871288 52024440 52181640 52340016 52497852 
2685.118 52653468 52806368 52955920 53102332 53246064 53388568 53531348 
2688.493 53675672 53822184 53970616 54119816 54268240 54414464 54557804 
2691.869 54698184 54835676 54970056 55100376 55224340 55339532 55442784 
2695.244 55531784 55605028 55661824 55702092 55725972 55733504 55724464 
2698.619 55698096 55653384 55589364 55504792 55397872 55266748 55109408 
2701.994 54923540 54707240 54458932 54177280 53861492 53510396 53123116 
2705.370 52698768 52237052 51738536 51205252 50640524 50049088 49436068 
2708.745 48807560 48169488 47527876 46889460 46260612 45647868 45057604 
2712.120 44494420 43962324 43463288 42998184 42566944 42168484 41801612 
2715.495 41464508 41154364 40868680 40603744 40356784 40125232 39907676 
2718.871 39703768 39513168 39336000 39171632 39019140 38877432 38745332 
2722.246 38622364 38508440 38403892 38309100 38223884 38147940 38080552 
2725.621 38020692 37967896 37922116 37883284 37851544 37826888 37809068 
2728.996 37797428 37791392 37790196 37793708 37801804 37814492 37831912 
2732.372 37854400 37882024 37915032 37953180 37996392 38043444 38093248 
2735.747 38144036 38194324 38242804 38288652 38331792 38372292 38410552 
2739.122 38446864 38481256 38514380 38546824 38579704 38615048 38654888 
2742.497 38701176 38755512 38819132 38892580 38976552 39071160 39176452 
2745.873 39292108 39416972 39549604 39687868 39829516 39972840 40116584 
2749.248 40259860 40402824 40545324 40687324 40828896 40969932 41110396 
2752.623 41250032 41388760 41525864 41660232 41789936 41913260 42028844 
2755.998 42136096 42235524 42329020 42418300 42504896 42589896 42673160 
2759.374 42753920 42830996 42903520 42970456 43031400 43085808 43133120 
2762.749 43172716 43204264 43227944 43244524 43255508 43262464 43266636 
2766.124 43269420 43271360 43273112 43275568 43279704 43287024 43298924 
2769.499 43316384 43340036 43369728 43405136 43446036 43492400 43544520 
2772.875 43603016 43667500 43737964 43813312 43892812 43975852 44062388 
2776.250 44153160 44248980 44350764 44459180 44574304 44695852 44823492 
2779.625 44957012 45096308 45240944 45390632 45544784 45702564 45863276 
2783.000 46026552 46192388 46361132 46533040 46707968 46885660 47065232 
2786.375 47246248 47428484 47612312 47798328 47986716 48177592 48370256 
2789.751 48563456 48755916 48946688 49135724 49323356 49510328 49697644 
2793.126 49886040 50076044 50268364 50463708 50662860 50866912 51075980 
2796.501 51289288 51505312 51721592 51935776 52146256 52352460 52554992 
2799.876 52755408 52955280 53155768 53357624 53560696 53764688 53969152 
2803.252 54173376 54376796 54578840 54778840 54975736 55169448 55359856 
2806.627 55547376 55733016 55917532 56101068 56283208 56462828 56638744 
2810.002 56809708 56975524 57136116 57292076 57444084 57592668 57737740 
2813.377 57879268 58017396 58152496 58284912 58415664 58545204 58673604 
2816.753 58800828 58926576 59050836 59173844 59296580 59420040 59545548 
2820.128 59674168 59806404 59942520 60082140 60224736 60369440 60515064 
2823.503 60660164 60803140 60942544 61077224 61206420 61329580 61446212 
2826.878 61555544 61656500 61747628 61827464 61895168 61950576 61994144 
2830.254 62027084 62050020 62062980 62065080 62054108 62027928 61984624 
2833.629 61923520 61845152 61751104 61643404 61523856 61392892 61249872 
2837.004 61093092 60919784 60727344 60513768 60278412 60022064 59747316 
2840.379 59457768 59158124 58852924 58546188 58241072 57939468 57642648 
2843.755 57351400 57067260 56791996 56528076 56277704 56043048 55825208 
2847.130 55624236 55439548 55270436 55116816 54979348 54859400 54758804 
2850.505 54679432 54622500 54588648 54578316 54591200 54627536 54686760 
2853.880 54768504 54871692 54994200 55134196 55289140 55457164 55636552 
2857.256 55826148 56024728 56230708 56442112 56655880 56869228 57079012 
2860.631 57282852 57479596 57668568 57850156 58025232 58194396 58358548 
2864.006 58517600 58670760 58816268 58951924 59074752 59182348 59272844 
2867.381 59345508 59400552 59439344 59463584 59474828 59474336 59462364 
2870.757 59438884 59403248 59354736 59292824 59216984 59127108 59023544 
2874.132 58907332 58780116 58644668 58504252 58362296 58221860 58085188 
2877.507 57953096 57825360 57701068 57579348 57460008 57343456 57230872 
2880.882 57123680 57023204 56930044 56843808 56764168 56689784 56619416 
2884.258 56551660 56485468 56420112 56355184 56290640 56227164 56165240 
2887.633 56105288 56047156 55990048 55932192 55871480 55806368 55735768 
2891.008 55659340 55578064 55493004 55405140 55315336 55223212 55128140 
2894.383 55029404 54925984 54817108 54702280 54581020 54452960 54318180 
2897.759 54177316 54031136 53881820 53731092 53580488 53431060 53283184 
2901.134 53136372 52989980 52843528 52696148 52547888 52397696 52244748 
2904.509 52088012 51926404 51759740 51588884 51415524 51241860 51069984 
2907.884 50900964 50734840 50570608 50407328 50243960 50080320 49915924 
2911.260 49750032 49580560 49404100 49216504 49013524 48792992 48554452 
2914.635 48300448 48034972 47762820 47487952 47213004 46939332 46667712 
2918.010 46398336 46132728 45872924 45621736 45381916 45155936 44945656 
2921.385 44752668 44577756 44421300 44283104 44161964 44055972 43962908 
2924.760 43880936 43809168 43748552 43700696 43668416 43653980 43658300 
2928.136 43680800 43719568 43772116 43836180 43911144 43997228 44096200 
2931.511 44210128 44341224 44491152 44661072 44851300 45061568 45291284 
2934.886 45539080 45802888 46080632 46369836 46667900 46972704 47282124 
2938.261 47593716 47905016 48212544 48512508 48800444 49071728 49321876 
2941.637 49547432 49745684 49915144 50056116 50170464 50261000 50331904 
2945.012 50387644 50431704 50467316 50496308 50519688 50538444 50554080 
2948.387 50568484 50584828 50606156 50634752 50671796 50716632 50767724 
2951.762 50822512 50879280 50936544 50994372 51053136 51113364 51175316 
2955.138 51238844 51303232 51368084 51432720 51497216 51561272 51624784 
2958.513 51687292 51747944 51806140 51861020 51912364 51960312 52005312 
2961.888 52047668 52087900 52126488 52163856 52200692 52237800 52275844 
2965.263 52315124 52355228 52395040 52433208 52468128 52498376 52522720 
2968.639 52540480 52551100 52554132 52549684 52538200 52520812 52499536 
2972.014 52476280 52452872 52430256 52408276 52385696 52360984 52332988 
2975.389 52301220 52266576 52230588 52195204 52162096 52132132 52105608 
2978.764 52082520 52062912 52046920 52035232 52028356 52026604 52030076 
2982.140 52038668 52052300 52070832 52094624 52123652 52158100 52197108 
2985.515 52239632 52284660 52331008 52378220 52426516 52476092 52527020 
2988.890 52578928 52630504 52680140 52726148 52767044 52801876 52830204 
2992.265 52851460 52865268 52871256 52869536 52860400 52845508 52826948 
2995.641 52806556 52785752 52764836 52742988 52718632 52690088 52656388 
2999.016 52617672 52574776 52528892 52481140 52431824 52380612 52326896 
3002.391 52269828 52209252 52145136 52078076 52008452 51936596 51863224 
3005.766 51788856 51714536 51641764 51571836 51505724 51443908 51386060 
3009.142 51331236 51278960 51229076 51182284 51139752 51102856 51071844 
3012.517 51046576 51025336 51006184 50986992 50966236 50943284 50918396 
3015.892 50892208 50865648 50839052 50812644 50786124 50758676 50729776 
3019.267 50698572 50664612 50628200 50589664 50549872 50510008 50470816 
3022.643 50432224 50393372 50352628 50307648 50256388 50197540 50130376 
3026.018 50055000 49972204 49882064 49784400 49678588 49563884 49439892 
3029.393 49307176 49167076 49021980 48874412 48726672 48580720 48438004 
3032.768 48298968 48163968 48032828 47904684 47779020 47655132 47532976 
3036.144 47413556 47298856 47191540 47094224 47008736 46935196 46872076 
3039.519 46816420 46764644 46713652 46661036 46605040 46544472 46477688 
3042.894 46402536 46316196 46216048 46100640 45969528 45824832 45669324 
3046.269 45507068 45341820 45177372 45017316 44864712 44723432 44596776 
3049.645 44487736 44397956 44327428 44274624 44236764 44210092 44191604 
3053.020 44178364 44168532 44160532 44153236 44145424 44136032 44124148 
3056.395 44109148 44090408 44067448 44039212 44004488 43962212 43911948 
3059.770 43854176 43790916 43724584 43658300 43594156 43532908 43473868 
3063.146 43415424 43355704 43293136 43226884 43156800 43083100 43006232 
3066.521 42926120 42843136 42757796 42671260 42584964 42500840 42420164 
3069.896 42343888 42272444 42206092 42144896 42089548 42040744 41998880 
3073.271 41963332 41932272 41902496 41869876 41830032 41778740 41712680 
3076.646 41629344 41526628 41403560 41259976 41096880 40916920 40724804 
3080.022 40526188 40326828 40132356 39946868 39772720 39610944 39461708 
3083.397 39324828 39200280 39088308 38988948 38902472 38828516 38767248 
3086.772 38718632 38682772 38658944 38645000 38637248 38629716 38614540 
3090.147 38584120 38531000 38450048 38338632 38196532 38025504 37828192 
3093.523 37608532 37370632 37119696 36861872 36604016 36352652 36113932 
3096.898 35891572 35687208 35499908 35327532 35167080 35015416 34870660 
3100.273 34731556 34597480 34468220 34343656 34223720 34107900 33995444 
3103.648 33885168 33775424 33664344 33549890 33430960 33306658 33177170 
3107.024 33043396 32906306 32766790 32625068 32481286 32335520 32188338 
3110.399 32041312 31896226 31755432 31620956 31493608 31373352 31258934 
3113.774 31148636 31040182 30931794 30822148 30710008 30595692 30479594 
3117.149 30362600 30245818 30129812 30014548 29898784 29781060 29659502 
3120.525 29533688 29404612 29275042 29149056 29030330 28921732 28823500 
3123.900 28733788 28648764 28565420 28480854 28394254 28306290 28218804 
3127.275 28133068 28049754 27968326 27887410 27805802 27722338 27636806 
3130.650 27549278 27460074 27369264 27276992 27183400 27088910 26994760 
3134.026 26902144 26812156 26725466 26641890 26560762 26481130 26402072 
3137.401 26323034 26243302 26161756 26076812 25986750 25889566 25784632 
3140.776 25672238 25554144 25433168 25311976 25192788 25076544 24963244 
3144.151 24852362 24743434 24636008 24529730 24424424 24319530 24214170 
3147.527 24108450 24002650 23898838 23799706 23707840 23624738 23549594 
3150.902 23479850 23411234 23339658 23262222 23177984 23088100 22994742 
3154.277 22900146 22805884 22712728 22620742 22530206 22441782 22356586 
3157.652 22275802 22199426 22126690 22055324 21983276 21908518 21830290 
3161.028 21748838 21665170 21580336 21494960 21408870 21321824 21233368 
3164.403 21143676 21052998 20962058 20870686 20778776 20685392 20589802 
3167.778 20492048 20392440 20292230 20192284 20093126 19994408 19895572 
3171.153 19796102 19695784 19596186 19498654 19405200 19316716 19232684 
3174.529 19151614 19071562 18990658 18908144 18824364 18740602 18657998 
3177.904 18577724 18499956 18424136 18349784 18275962 18202358 18128216 
3181.279 18053050 17976378 17897714 17817272 17735498 17654014 17574444 
3184.654 17498030 17425076 17355100 17286722 17218388 17149034 17078378 
3188.030 17006564 16934312 16861832 16788950 16715566 16640849 16564872 
3191.405 16487980 16411066 16334925 16259929 16186427 16113935 16042555 
3194.780 15972251 15903333 15836488 15771477 15707744 15644057 15579450 
3198.155 15513549 15447073 15381775 15319679 15262431 15210681 15163534 
3201.531 15119618 15077147 15035160 14993726 14953668 14915706 14880180 
3204.906 14846784 14814557 14781851 14747571 14710826 14670794 14626653 
3208.281 14577103 14520535 14456062 14383412 14304234 14221440 14138629 
3211.656 14059256 13985303 13917351 13854438 13795433 13739138 13685278 
3215.031 13634467 13586671 13541581 13498170 13454114 13407329 13356653 
3218.407 13302226 13245072 13187516 13131641 13078676 13029336 12983246 
3221.782 12940095 12899100 12859643 12820840 12781801 12741707 12699775 
3225.157 12656414 12612853 12570626 12531746 12496927 12465862 12436504 
3228.532 12406466 12373430 12336408 12296253 12254534 12213774 12175198 
3231.908 12139010 12103815 12067940 12029513 11987888 11943100 11896000 
3235.283 11847510 11798276 11748094 11696761 11643936 11589825 11535142 
3238.658 11480636 11426646 11373378 11320049 11266013 11210894 11154491 
3242.033 11097075 11039565 10982165 10925214 10868882 10813338 10758786 
3245.409 10705906 10655103 10606106 10557828 10508875 10457756 10403284 
3248.784 10345967 10287606 10230781 10178167 10131801 10091884 10057260 
3252.159 10025691 9994599 9961576 9924963 9883946 9837916 9787045 9731810 
3256.017 9673227 9613161 9553747 9496915 9444493 9396919 9353447 9312619 
3259.874 9272404 9231077 9187926 9142376 9094868 9045708 8995235 8943346 
3263.731 8890044 8835767 8781126 8727167 8675277 8626503 8581451 8540595 
3267.589 8503831 8470684 8440346 8411190 8381800 8350082 8314247 8273720 
3271.446 8228806 8180993 8133118 8087713 8046194 8009303 7975789 7943663 
3275.304 7911200 7876986 7841021 7804315 7768085 7733883 7702347 7673174 
3279.161 7645925 7619521 7592917 7565133 7535498 7503572 7469154 7432548 
3283.019 7394866 7357390 7321433 7287872 7257042 7228000 7199601 7170866 
3286.876 7141190 7111583 7083258 7057966 7036548 7018398 7001696 6984052 
3290.733 6962974 6937184 6906514 6872513 6836967 6801727 6767768 6735259 
3294.591 6703560 6671695 6639227 6606089 6573154 6541400 6512271 6487046 
3298.448 6466531 6451431 6441645 6436701 6435692 6437307 6440266 6443192 
3302.306 6445243 6445848 6444032 6438988 6429236 6413061 6389119 6356504 
3306.163 6315419 6266808 6212522 6154446 6094293 6032873 5970890 5908748 
3310.021 5847286 5787781 5731507 5679772 5632844 5590014 5550076 5510846 
3313.878 5470915 5429545 5386065 5340979 5294490 5246731 5197904 5148177 
3317.735 5097853 5048272 5000507 4955595 4914207 4875973 4839919 4804908 
3321.593 4769899 4734658 4698951 4663181 4627045 4590108 4551367 4510017 
3325.450 4465859 4419530 4372570 4326786 4283785 4244134 4207631 4172670 
3329.308 4138147 4102690 4065831 4028207 3990886 3955174 3922340 3893553 
3333.165 3869617 3850963 3838059 3830371 3827162 3826694 3827061 3825290 
3337.022 3818571 3804933 3782572 3750954 3711151 3664835 3614950 3564736 
3340.880 3517501 3475214 3438709 3407016 3378164 3349180 3317661 3282471 
3344.737 3244246 3204857 3167707 3135533 3110604 3093350 3082538 3075597 
3348.595 3069257 3059380 3042229 3014802 2974766 2922158 2858316 2786847 
3352.452 2713289 2643077 2581876 2533348 2499121 2478560 2469863 2470529 
3356.310 2478093 2490590 2506286 2522716 2537814 2548179 2551212 2545479 
3360.167 2531148 2510352 2486791 2464698 2447737 2438407 2437507 2444971 
3364.024 2459633 2480226 2504987 2532348 2559911 2585309 2605575 2617909 
3367.882 2619942 2610209 2587875 2552778 2506020 2449336 2385930 2319968 
3371.739 2256681 2200996 2156739 2126438 2109157 2102032 2100867 2101200 
3375.597 2099202 2093243 2083088 2070170 2056055 2042272 2029755 2019070 
3379.454 2010381 2003591 1998798 1995868 1994171 1993405 1992706 1991474 
3383.312 1989510 1986914 1983586 1979625 1974532 1968408 1961285 1954728 
3387.169 1950667 1952032 1961418 1979425 2004889 2034083 2061748 2082555 
3391.026 2092111 2088415 2072068 2045601 2012878 1977561 1943511 1912859 
3394.884 1887700 1869464 1859547 1858949 1868233 1886801 1912560 1942646 
3398.741 1973101 1999297 2017738 2025561 2021233 2005122 1978892 1945542 
3402.599 1908333 1870728 1835523 1804712 1779259 1759497 1745225 1736243 
3406.456 1731786 1731553 1734613 1739570 1745458 1750681 1754540 1756670 
3410.313 1757335 1757002 1755938 1753875 1750415 1744527 1735944 1724800 
3414.171 1712092 1699385 1687943 1678662 1671810 1666655 1662264 1658040 
3418.028 1653217 1647696 1641410 1634160 1625379 1614571 1601567 1587200 
3421.886 1572602 1559998 1550920 1546332 1545667 1547396 1549557 1549989 
3425.743 1547229 1540845 1531069 1518268 1503339 1486315 1467365 1446985 
3429.601 1425776 1404634 1385155 1368502 1355340 1346166 1340350 1336694 
3433.458 1333603 1329016 1320475 1305852 1283187 1251750 1212674 1168152 
3437.315 1122207 1078957 1042321 1014157 994761 982507 974936 969191 963612 
3441.655 957667 951690 946610 942924 940267 937544 932530 922967 906830 
3445.995 883091 851916 814634 773838 732482 693917 660532 633620 613943 
3450.334 600638 592608 588494 587499 588826 592243 597287 602463 606378 
3454.674 606942 602695 592807 577910 559762 540918 523634 509237 497925 
3459.013 488836 480643 472052 462300 451387 440243 430259 422797 419347 
3463.353 421304 428899 442233 460575 482268 504692 525492 542511 554321 
3467.693 560392 561454 558535 552861 545131 536539 527748 520018 514777 
3472.032 513483 517032 525260 537700 552662 568687 585309 603159 623300 
3476.372 647988 678883 716484 760993 811481 866689 925723 987754 1051953 
3480.711 1117789 1184266 1251086 1318481 1387980 1461314 1540612 1627175 
3484.569 1720043 1816257 1911062 1999330 2076729 2140490 2190173 2226806 
3488.426 2251685 2265507 2267906 2257480 2232934 2192970 2138159 2069671 
3492.284 1989377 1899281 1800952 1695693 1585172 1470922 1355572 1241781 
3496.141 1132339 1029301 934257 848164 771946 706395 652037 608900 575920 
3500.481 550207 527615 503763 474838 438518 395800 349539 303945 263462 
3504.820 231569 209722 198087 194772 197324 202562 207667 209888 207336 
3509.160 199512 187214 172629 159271 149692 146145 148996 156884 167425 
3513.500 177469 184794 187976 186485 180551 170541 156984 140245 121453 
3517.839 102064 84897 72536 67366 70581 81649 99048 119530 139947 157746 
3522.661 170839 177999 179060 174253 163646 147968 128115 105047 80224 55105 
3527.483 30583 7620 -13054 -31178 -46318 -57914 -65699 -69377 -68913 -64440 
3532.304 -56589 -45623 -32370 -17759 -3114 9277 17163 18290 10834 -5235 
3537.126 -28163 -54866 -81170 -102802 -116715 -120922 -115026 -100285 -78421 
3541.466 -51520 -21801 8681 38039 64218 85262 99479 105180 101368 88377 
3546.288 67002 39895 10337 -17461 -39659 -53176 -56622 -50360 -36810 -19482 
3551.109 -2485 10868 18389 19284 14744 6328 -4208 -15274 -25114 -32933 
3555.931 -37472 -37804 -33795 -26141 -16831 -8184 -3114 -3313 -8681 -17560 
3560.753 -26307 -31277 -29156 -17958 2253 29987 62594 96497 127518 151216 
3565.575 162917 158310 135539 95105 41419 -17858 -74379 -120558 -152025 
3569.914 -167659 -169679 -161796 -148878 -134735 -121684 -111150 -103365 
3573.772 -98131 -95448 -95349 -98396 -104293 -112740 -122744 -132979 -142287 
3578.111 -149740 -154609 -156463 -154973 -149276 -138941 -123042 -101047 
3581.969 -72789 -38765 695 44004 88974 133086 172298 201700 216319 211744 
3586.791 185391 138323 75751 6162 -60995 -116616 -154310 -171534 -169414 
3591.130 -151760 -123506 -90910 -59902 -34226 -16401 -6991 -4340 -6162 
3595.470 -10238 -14711 -18422 -21238 -22828 -23392 -23657 -24087 -25744 
3599.809 -30117 -38400 -50957 -67157 -84781 -100384 -110587 -111614 -101775 
3604.149 -80806 -50460 -14280 23326 56629 80556 91161 86289 67134 37641 4671 
3609.453 -25048 -46020 -56224 -57086 -53408 -51089 -54468 -65004 -80408 
3613.792 -94156 -99225 -89651 -63347 -22629 25977 74259 112570 132556 129904 
3618.614 103721 57458 -2186 -66461 -127547 -179085 -217073 -240221 -248268 
3622.954 -241877 -222140 -189121 -143281 -85775 -19117 51294 116282 163580 
3627.293 179259 152211 79495 -28825 -151561 -260752 -335153 -366274 -357435 
3631.633 -319923 -268600 -217636 -176965 -151859 -142519 -145102 -154211 
3635.490 -164711 -173190 -178158 -179880 -178158 -173852 -167029 -158351 
3639.348 -148812 -140134 -133807 -131157 -132449 -136292 -139339 -137782 
3643.205 -127447 -104922 -68946 -20244 37840 99910 158674 206805 236608 
3647.545 242940 223016 177004 108792 25016 -65169 -150833 -220749 -266282 
3651.885 -282110 -267673 -227902 -171865 -110885 -56953 -20708 -7620 -16401 
3656.224 -39493 -64805 -81899 -84582 -73054 -51984 -28626 -7985 6494 14247 
3661.046 16998 16898 15076 12127 7786 2385 -2286 -2783 4970 24884 59280 
3666.350 106903 163646 221424 269894 298143 297546 264755 206208 137859 
3670.689 79959 51891 64549 116614 196396 284250 357995 395236 381440 316213 
3675.511 217181 113532 32472 -10602 -16401 3280 33069 61169 81020 92188 
3680.333 98750 105743 116581 132722 153404 178131 208197 246653 296883 
3684.673 360482 435168 513682 586769 642579 672146 671848 645134 601102 
3689.012 551435 505986 468701 439513 415732 395137 378190 367048 364096 
3693.352 370364 384922 404357 424389 440773 450989 455002 454505 452382 
3697.691 451453 452946 456329 458950 456959 446545 424754 391058 347980 
3702.031 300696 256069 220330 197855 190264 196164 211977 234420 259881 
3706.371 286140 312566 339093 364594 387542 403494 406612 391821 354878 
3710.710 295722 219469 135705 56099 -8018 -48936 -64705 -57417 -33132 1093 
3715.532 38503 73563 103423 127286 146808 164375 182673 203092 225071 246719 
3720.354 265584 279708 288759 294329 299336 306564 317440 330472 341945 
3724.693 347350 342177 324470 296385 263495 234155 216153 214662 230674 
3729.033 261008 299204 337468 369568 391655 404324 411753 419547 431752 
3733.373 447440 460509 461238 440972 395800 329875 255405 188242 141505 
3737.712 121751 128943 157846 202463 258190 323077 395999 473909 550307 
3742.052 612450 642612 623134 543838 412880 259086 125331 47152 36780 84897 
3746.874 168220 260909 339193 387343 398553 375007 325498 260942 190330 
3751.213 119398 52122 -6560 -49896 -70967 -66097 -37340 9211 63323 116282 
3756.035 160630 193347 215258 228718 235746 236409 229215 212805 188838 
3760.375 162552 141207 132523 139881 161591 190960 219435 238995 245592 
3764.714 240586 229314 218673 214032 215557 219369 218739 207468 182010 
3769.054 143228 95767 47549 6162 -23458 -38632 -40487 -32006 -16964 1060 
3773.875 19185 36018 52288 69719 90929 117045 147040 176938 200474 210849 
3778.697 203656 179723 144819 108593 80490 66604 67433 78965 94276 106837 
3783.519 112802 111709 105975 99446 95370 94972 97888 103125 109654 117476 
3788.341 126988 138290 150222 161061 168917 173226 175579 178960 187214 
3792.680 202695 224474 248244 267706 276558 270822 252190 226861 204982 
3797.020 195998 205380 232431 270789 309383 334915 336275 306133 245924 
3801.360 166928 88576 30948 7521 21438 65577 126325 186021 227922 240586 
3806.181 219634 171204 110913 57690 25580 20013 37807 70382 109090 147769 
3811.003 184960 222452 263197 308023 353684 392285 413676 407939 370895 
3815.343 307161 232232 168055 133252 137892 179723 246288 318435 376897 
3819.682 404357 390593 337369 258257 177038 115586 88443 96828 132324 180220 
3824.504 225701 258124 271618 267606 252720 236641 227789 230740 245095 
3828.844 266877 290517 310842 324337 330472 330339 326625 323077 323044 
3833.183 329609 344763 368407 398553 430525 457324 471753 468104 444554 
3837.523 404357 355707 308885 272215 250134 242443 245791 254875 265053 
3841.863 272579 274436 269496 256997 238000 214927 192650 176441 171635 
3846.202 181513 206441 245029 293600 348577 408701 473677 544202 619451 
3850.542 693850 755881 788643 772212 691859 548615 365191 179921 31809 
3854.881 -55661 -81237 -57583 -3379 64914 135572 202297 262832 316843 364527 
3859.703 405385 438584 463527 480079 489234 491987 488073 476629 456495 
3864.043 428568 397392 371889 361941 375770 415633 475269 541250 597287 
3868.382 626983 619285 575654 508971 441669 394076 378091 392451 426412 
3872.722 463726 489831 495736 480444 450989 418950 396364 390627 403461 
3877.062 430757 465185 498456 522075 531297 524994 506749 483927 465981 
3881.401 461437 474241 503730 542942 582057 607904 609431 580498 522904 
3885.741 448667 375206 320955 297944 307891 343769 393014 440840 472416 
3890.080 478885 457656 414041 359056 305835 265551 244100 242575 258157 
3894.420 287334 326294 371724 421138 471886 520582 563876 598149 621011 
3898.760 632392 634449 630998 625888 621774 618091 612384 600472 578640 
3903.099 545795 503597 457092 412913 377593 355176 347151 352855 369435 
3907.439 393943 423759 456595 490992 525890 560492 594168 627017 659105 
3911.778 691593 725777 761823 799862 838105 873130 900488 916127 916327 
3916.118 899858 868482 826486 779647 733876 693950 662456 640323 627282 
3920.458 621708 622570 628178 636009 643873 648419 647026 637801 620845 
3924.797 598415 574692 554222 540819 536473 540620 551169 565137 579503 
3929.137 592243 602197 608535 610492 606776 595959 576948 550473 519089 
3933.476 486647 458154 437755 427473 427241 434836 447473 461570 475335 
3937.816 488007 499948 511791 523899 535743 546127 553525 556478 554819 
3942.156 549278 541416 533686 528212 526288 528842 535411 544700 555184 
3946.495 564407 570478 571673 567393 557871 544634 529937 515274 502436 
3950.835 492385 485154 480643 479084 480245 484690 492551 503166 515473 
3955.174 527947 538828 546757 551568 553425 553790 554188 555482 558402 
3959.514 563047 568521 574194 579635 584546 588693 592575 595926 598780 
3963.854 600870 601567 600771 598282 594267 589191 583783 578341 573033 
3968.193 567758 561885 554918 546624 537070 527482 519421 514511 513848 
3972.533 517762 525160 534217 542875 549146 552331 552397 550240 546724 
3976.872 542444 537733 532160 525558 518558 512056 507545 506152 508341 
3981.212 513251 519023 523535 524596 521677 514777 505057 494674 484988 
3985.552 476994 471455 468204 467375 468934 473213 480112 489864 502105 
3989.891 516535 532790 550307 568521 586537 603159 616730 626154 630501 
3994.231 630103 626121 620712 615536 611986 609796 607639 603989 597088 
3998.570 586503 572635 557539 542809 530269 
##END=
