
##TITLE=Z140a_1_e
##JCAMP-DX=5.01  $$ Nicolet v. 1
##DATATYPE=INFRARED SPECTRUM
##ORIGIN=UniL
##OWNER=Nicolet
##LONGDATE=2011/09/20
##TIME=09:01:11
##SPECTROMETER/DATA SYSTEM=Nicolet iS5
##DATA PROCESSING=
Ratio against background
%Transmittance->Absorbance
Truncated
ElementMultiply or ElementDivide
##COMMENTS=
Number of sample scans: 32
Collection length: 51.11 sec
Sample gain: 2.0
Background collected on: Mar Sep 20 08:43:51 2011 (GMT+02:00);
Number of background scans: 32
Background gain: 2.0
Sample spacing:  1.000
Number of scan points: 12415
Resolution points: 8192
Number of FFT points: 65536
Apodization: N-B fort;
Phase correction: Mertz;
Laser frequency: 15798.0 cm-1
Number of rejected sample scans: 0
Number of rejected background scans: 0
Bench serial number: ASB1000141;
##RESOLUTION=4.000
##XUNITS=1/CM
##YUNITS=ABSORBANCE
##FIRSTX=649.893372
##LASTX=4000.122314
##FIRSTY=0.080451
##MAXX=4000.122314
##MINX=649.893372
##MAXY=0.572799
##MINY=-0.003328
##XFACTOR=1.000000
##YFACTOR=1.000000E-009
##NPOINTS=6950
##DELTAX=0.482117
##ZPD=6100
##XYDATA=(X++(Y..Y))
649.893 80451224 76439208 73342728 71140264 69752616 69059344 68908656 
653.268 69154912 69686008 70436008 71392256 72575368 74013568 75718784 
656.643 77685544 79905440 82389192 85185280 88381280 92078744 96384120 
660.018 101393040 107190760 113886864 121619448 130533008 140739792 
662.911 152237888 164863728 178234144 191791584 204825120 216361888 
665.803 225236416 230067392 229466464 222672256 210097520 193470704 
668.696 175091360 156995952 140408224 125727160 112931488 101843216 92285360 
672.071 84158880 77394640 71900448 67536808 64119824 61463312 59399336 
675.446 57809276 56613564 55746052 55141156 54729040 54440004 54227356 
678.820 54071404 53978384 53963788 54037144 54190304 54401728 54647004 
682.195 54913952 55208048 55550088 55962040 56455168 57024264 57651992 
685.570 58320344 59020016 59755108 60538300 61381824 62288976 63253492 
688.945 64264908 65320352 66431068 67624568 68934864 70395408 72031880 
692.320 73859776 75895256 78164504 80707792 83583448 86858520 90593528 
695.694 94842368 99648544 105054672 111120304 117938128 125643120 134433648 
699.069 144557824 156296688 169937648 185687984 203577360 223284272 
701.962 244046912 264505200 282646016 296197152 302909984 301210368 
704.855 290779488 272633216 248884768 222027248 194543472 168404944 
707.747 144837808 124531512 107646392 93994128 83204760 74823472 68399368 
711.122 63499904 59764004 56900692 54674020 52919532 51521204 50398176 
714.497 49497892 48779200 48206396 47750764 47389348 47107296 46898432 
717.872 46759216 46684096 46662144 46676644 46710400 46752468 46801252 
721.247 46865064 46956092 47084992 47253972 47457348 47684304 47925884 
724.621 48178776 48447156 48738012 49058152 49408592 49785332 50181768 
727.996 50593352 51020828 51469800 51947388 52457808 52999340 53565720 
731.371 54149544 54747004 55360908 56000940 56679476 57407892 58192084 
734.746 59032960 59928636 60878536 61885884 62959188 64109608 65350352 
738.121 66692420 68146048 69720600 71425600 73272472 75274112 77443824 
741.496 79798008 82356784 85145688 88200104 91565456 95294424 99452400 
744.870 104112192 109355048 115279392 121995208 129625904 138311488 
747.763 148194816 159418720 172116592 186393280 202297024 219760320 
750.656 238562144 258212480 277873760 296431168 312449312 324403840 
753.548 331022592 331453792 325515776 313682496 296961312 276641536 
756.441 254034048 230396176 206759920 183918784 162512976 142981008 
759.334 125617592 110608528 97989576 87676504 79471464 73103216 68258480 
762.709 64623192 61936628 59978848 58579176 57613172 56972916 56567400 
766.083 56324588 56184968 56110156 56080256 56086288 56124972 56194580 
769.458 56293996 56426412 56601108 56833988 57141332 57533652 58010312 
772.833 58559460 59163024 59805036 60479260 61190776 61952944 62778936 
776.208 63676468 64646608 65685636 66792956 67975216 69247432 70629648 
779.583 72139960 73788960 75580544 77516736 79605488 81869456 84347592 
782.958 87095584 90186616 93700528 97727040 102361832 107689568 113771456 
786.332 120612248 128137272 136156288 144355328 152346672 159667456 
789.225 165869968 170607392 173658080 174979840 174691664 173050560 
792.118 170379536 167007792 163260128 159407632 155677520 152273680 
795.010 149361888 147086800 145579792 144947568 145290880 146709184 
797.903 149296336 153149072 158353232 164963168 172973216 182271632 
800.796 192615008 203535520 214323920 224075936 231653488 235909488 
803.689 235905776 231057104 221359248 207384832 190207488 171125856 
806.581 151456560 132384552 114739992 99052392 85569848 74295176 65092108 
809.956 57736604 51979280 47561108 44238748 41808032 40087184 38930884 
813.331 38231012 37898944 37865896 38076608 38478432 39026428 39684272 
816.706 40423916 41228824 42090792 43004440 43964412 44961936 45986508 
820.081 47029192 48086196 49160068 50258804 51392176 52568640 53793000 
823.455 55067952 56396268 57783572 59239236 60774444 62398944 64119824 
826.830 65940872 67866080 69904416 72074240 74404568 76937728 79722192 
830.205 82811496 86265392 90144048 94514904 99456272 105053104 111404824 
833.580 118623712 126824616 136125152 146622240 158365024 171305584 
836.473 185241680 199789680 214282352 227801584 239258304 247414656 
839.365 251175968 249806976 243093664 231460688 215870912 197663264 
842.258 178202432 158740176 140298496 123536208 108852448 96402488 86137544 
845.633 77883704 71383616 66359260 62526956 59633496 57478012 55890588 
849.008 54741744 53934828 53389432 53044784 52855948 52788220 52817928 
852.382 52928068 53103416 53330724 53598180 53896524 54222476 54578428 
855.757 54970960 55406792 55888964 56414720 56975452 57559112 58154204 
859.132 58752612 59349416 59942560 60529728 61107128 61669752 62213376 
862.507 62736244 63240536 63731492 64215160 64695216 65170756 65637036 
865.882 66087724 66517828 66926064 67315960 67694112 68068536 68445984 
869.256 68831696 69229280 69642024 70073912 70529192 71011136 71521544 
872.631 72059920 72625296 73216976 73836992 74489912 75183008 75923320 
876.006 76717296 77570288 78487920 79477912 80553992 81734208 83042824 
879.381 84507360 86153176 88001440 90061768 92326792 94763352 97306064 
882.756 99861448 102300776 104480768 106268984 107553216 108272104 108423232 
886.131 108061584 107284320 106208896 104959768 103640264 102332272 
889.023 101101000 99995408 99061672 98346264 97889904 97726000 97872424 
892.398 98327688 99073664 100079808 101314168 102745176 104347784 106104648 
895.773 108002688 110032752 112188672 114467520 116870032 119402096 
898.666 122073672 124897304 127886296 131053640 134410064 137964736 
901.558 141725760 145700720 149897888 154326992 158999408 163930464 
904.451 169141216 174659312 180523504 186784768 193503552 200754560 
907.344 208619840 217183248 226532816 236752320 247920256 260107904 
910.236 273373664 287752192 303229440 319724608 337047392 354843200 
913.129 372611296 389655872 405103424 418031616 427487648 432631456 
916.022 432899328 428055584 418286816 404170816 386628320 366769536 
918.914 345701824 324497632 304035648 284960480 267756128 252694928 
921.807 239885264 229316320 220862864 214322544 209433968 205920400 
924.700 203498464 201892112 200868640 200219920 199768448 199376960 
927.593 198927440 198325536 197503936 196413120 195024640 193327440 
930.485 191321248 189012624 186410880 183528240 180381072 176991344 
933.378 173388256 169604576 165673456 161626320 157489888 153287456 
936.271 149042944 144779552 140522400 136296992 132124096 128021136 
939.163 124001304 120074040 116249176 112536744 108946160 105485632 
942.056 102160152 98970824 95917080 92998272 90215248 87570528 85066568 
945.431 82704264 80480648 78390160 76425616 74580784 72851808 71237000 
948.806 69735424 68344760 67060568 65876164 64785020 63781716 62863132 
952.181 62027892 61274404 60600084 59999960 59468408 59001152 58597188 
955.555 58259640 57994220 57807456 57704592 57688356 57760564 57923828 
958.930 58184092 58552408 59046204 59687132 60502796 61527520 62800676 
962.305 64371452 66298148 68640720 71460288 74806984 78707824 83157096 
965.680 88104840 93456680 99057928 104710816 110189792 115239864 119622648 
969.055 123130424 125591872 126895576 126983272 125847784 123530488 
971.947 120119392 115752336 110603096 104891168 98870832 92793912 86917568 
975.322 81466120 76599216 72421256 68965544 66207648 64081496 62499028 
978.697 61369228 60601608 60118176 59855308 59757388 59783284 59902504 
982.072 60093520 60344008 60646448 60995204 61385144 61810468 62265228 
985.447 62746084 63251884 63783564 64342984 64930512 65544932 66183528 
988.821 66844396 67528096 68238512 68982016 69765928 70596160 71477048 
992.196 72411904 73405616 74466944 75610008 76854432 78226352 79754248 
995.571 81470480 83408152 85593856 88041408 90737808 93635616 96639688 
998.946 99613288 102404408 104857840 106861192 108374584 109445120 110205072 
1002.321 110841712 111582272 112635544 114169616 116306384 119110120 
1005.213 122604784 126788672 131649328 137168432 143318896 150062160 
1008.106 157326896 164992096 172888208 180766224 188302016 195130832 
1010.999 200827472 204965888 207182448 207193904 204874896 200282512 
1013.891 193664784 185420288 176032528 166036496 155911200 146057792 
1016.784 136796400 128330376 120777968 114184792 108534936 103773456 
1019.677 99820000 96588896 93993840 91956664 90414768 89313600 88608080 
1023.052 88262344 88243792 88525352 89084560 89899864 90949736 92209016 
1026.427 93642888 95208192 96852120 98512096 100126080 101636576 102996864 
1029.802 104181848 105190032 106048176 106805640 107534792 108323000 
1032.695 109254816 110410232 111846768 113587472 115615328 117865760 
1035.588 120235232 122573808 124707968 126461504 127659496 128165144 
1038.481 127891808 126809360 124948848 122393216 119267248 115707224 
1041.374 111850192 107819856 103708416 99587488 95511200 91521688 87661696 
1044.750 83975560 80504264 77286592 74351400 71713824 69377448 67333448 
1048.125 65564468 64044752 62743784 61629352 60667292 59828272 59088720 
1051.500 58431280 57845424 57324668 56863824 56457052 56097336 55776904 
1054.875 55489840 55232168 55002924 54802860 54632948 54492740 54380736 
1058.250 54294372 54231184 54189896 54170108 54171800 54195036 54239260 
1061.626 54303984 54390164 54500928 54641368 54818048 55037864 55305660 
1065.001 55624728 55997060 56424228 56909040 57456076 58070188 58756596 
1068.376 59518756 60358172 61274364 62265956 63331304 64468920 65677232 
1071.751 66954592 68299040 69708928 71183864 72726160 74341024 76036792 
1075.127 77825320 79720048 81737008 83895768 86218760 88733776 91475216 
1078.502 94480680 97793064 101455520 105504352 109964248 114835800 120088976 
1081.877 125647680 131388512 137150592 142726736 147898720 152461872 
1084.770 156234576 159098752 161011152 162016528 162243552 161898992 
1087.663 161259392 160616576 160273552 160516400 161567728 163593456 
1090.556 166675584 170800016 175838016 181528160 187495136 193201904 
1093.449 198003872 201240416 202259920 200591712 196043184 188740112 
1096.343 179119952 167834896 155676944 143390192 131604600 120800504 
1099.236 111242208 103029544 96128840 90419544 85735680 81896904 78740272 
1102.611 76113216 73882560 71942792 70203976 68599856 67088484 65643936 
1105.986 64254420 62916824 61631984 60403972 59240792 58156512 57169300 
1109.361 56298336 55560140 54962800 54504984 54177804 53969756 53870152 
1112.737 53871692 53969416 54157196 54424980 54759484 55145404 55570832 
1116.112 56030420 56525356 57061592 57644084 58274420 58949572 59664780 
1119.487 60417644 61211416 62055488 62962248 63941888 64999200 66132172 
1122.862 67335264 68602032 69928896 71316104 72766312 74284480 75878088 
1126.238 77563480 79372128 81353264 83583280 86163272 89211408 92875976 
1129.613 97324344 102733888 109290440 117136816 126318768 136692800 
1132.506 147865824 159142928 169491968 177763504 182846112 183944240 
1135.399 180856608 174030160 164490560 153495200 142363568 132198256 
1138.292 123699520 117242528 112869056 110390488 109462848 109671032 
1141.185 110602712 111838968 113020672 113870848 114195392 113923304 
1144.078 113099984 111876256 110457192 109061568 107884160 107049680 
1146.971 106620928 106605768 106980032 107706808 108749608 110079112 
1149.864 111667192 113485520 115508624 117714184 120090120 122635408 
1152.757 125354752 128249344 131308080 134499584 137777440 141089552 
1155.650 144385856 147633488 150817728 153938544 157003008 160017760 
1158.543 162985648 165907792 168788416 171640368 174483600 177343648 
1161.437 180244752 183203968 186233632 189345056 192554544 195891440 
1164.330 199396176 203114336 207093648 211374160 215987536 220963648 
1167.223 226334352 232139264 238428128 245251600 252655424 260671472 
1170.116 269316032 278590912 288489792 299007904 310138240 321866272 
1173.009 334164448 346972352 360196640 373727360 387438944 401221216 
1175.902 414996832 428714368 442343552 455855840 469205984 482328992 
1178.795 495145472 507567456 519503168 530842112 541425728 551029312 
1181.688 559345920 565996416 570600576 572799232 572303936 568938368 
1184.581 562614528 553345920 541259712 526603712 509760096 491211296 
1187.474 471522432 451254112 430890016 410839296 391387200 372714592 
1190.367 354937696 338106656 322227584 307272896 293181472 279871488 
1193.260 267252480 255243120 243780624 232825760 222357952 212367696 
1196.153 202847008 193785344 185175088 177018784 169333632 162160896 
1199.046 155559408 149595664 144345472 139879312 136256720 133532152 
1201.939 131743880 130912792 131039176 132098360 134038496 136777408 
1204.833 140216224 144235680 148701760 153485440 158454128 163480368 
1207.726 168456656 173287216 177901632 182264336 186378352 190291488 
1210.619 194087216 197886640 201825136 206033744 210635216 215718560 
1213.512 221330128 227462224 234045200 240940496 247928160 254739936 
1216.405 261061008 266555584 270929952 273935648 275394080 275205120 
1219.298 273322880 269743552 264497872 257648672 249299440 239594352 
1222.191 228723152 216905616 204370640 191362496 178118224 164862864 
1225.084 151824192 139203984 127175912 115889000 105442968 95902424 87301768 
1228.459 79643504 72909344 67059868 62037980 57769644 54169736 51154700 
1231.834 48642460 46561956 44857948 43483316 42398828 41571144 40967604 
1235.210 40559400 40323192 40240120 40297160 40483776 40787948 41194832 
1238.585 41686200 42239980 42836372 43457572 44089088 44719832 45338768 
1241.960 45933540 46491772 47001244 47453948 47848784 48191956 48496092 
1245.335 48776344 49049208 49330672 49636572 49987596 50409896 50936504 
1248.711 51609260 52472768 53574152 54964416 56693256 58811528 61367360 
1252.086 64392896 67890720 71810640 76041720 80389256 84582072 88321384 
1255.461 91292872 93243472 94040208 93690408 92350968 90278632 87803752 
1258.836 85245032 82857248 80824232 79230456 78084504 77347048 76965576 
1262.212 76898960 77132664 77679520 78570656 79841448 81516128 83601520 
1265.587 86082640 88927288 92083416 95482464 99046696 102679656 106276352 
1268.962 109733912 112948472 115833920 118331080 120410080 122077664 
1271.855 123373880 124372208 125166136 125864032 126589608 127462880 
1274.748 128603264 130124344 132116912 134652192 137775296 141503904 
1277.641 145832160 150734672 156175792 162106992 168472192 175212416 
1280.534 182254384 189514336 196899232 204296224 211584832 218643040 
1283.427 225344416 231575200 237237856 242253024 246575104 250198896 
1286.321 253175296 255607072 257654752 259521728 261410512 263515376 
1289.214 265989536 268920672 272332640 276176544 280344352 284660320 
1292.107 288901344 292828032 296184576 298755680 300402816 301084224 
1295.000 300874304 299949120 298574976 297048288 295673504 294748480 
1297.893 294516000 295171872 296848256 299594176 303370304 308037696 
1300.786 313382368 319107328 324870304 330344512 335212768 339214912 
1303.679 342165280 343933568 344453216 343711872 341746048 338631264 
1306.572 334466560 329362368 323415136 316700864 309276896 301189248 
1309.465 292487040 283231072 273491200 263343328 252862656 242117744 
1312.358 231180112 220130752 209059024 198068752 187264528 176734192 
1315.251 166552704 156773280 147431760 138562560 130198296 122370456 
1318.144 115109624 108434416 102349464 96845944 91903840 87497040 83594168 
1321.520 80160608 77154312 74523896 72213240 70160128 68301792 66583916 
1324.895 64955220 63370564 61792360 60184240 58517484 56774284 54950840 
1328.270 53060248 51128124 49189380 47277616 45419360 43634268 41934756 
1331.645 40330464 38831668 37448064 36187036 35050040 34030920 33118344 
1335.021 32298934 31563404 30906746 30327780 29824248 29387876 29001602 
1338.396 28643738 28291932 27932742 27566366 27206682 26875812 26595212 
1341.771 26380736 26237986 26164570 26153696 26198216 26292512 26431968 
1345.146 26612334 26828194 27073252 27343222 27637160 27958822 28315662 
1348.521 28716264 29167730 29673906 30237400 30861386 31552718 32323382 
1351.897 33188332 34161988 35255620 36475016 37822368 39299836 40914404 
1355.272 42681128 44625708 46779480 49178320 51858480 54851128 58182120 
1358.647 61869184 65920936 70330888 75071176 80091320 85302168 90578016 
1362.022 95770504 100713712 105261848 109317840 112843792 115859624 
1364.916 118418032 120580144 122388952 123861712 124994224 125774648 
1367.809 126196816 126270816 126020832 125480624 124682800 123648776 
1370.702 122386096 120884000 119112600 117019840 114536568 111594872 
1373.595 108143184 104177640 99755296 94991032 90029720 85009224 80046896 
1376.970 75221152 70583880 66181444 62057932 58259560 54827184 51778928 
1380.345 49107044 46779512 44755020 42995004 41474824 40185852 39127212 
1383.720 38294732 37673824 37234768 36936756 36737268 36594892 36478588 
1387.096 36371748 36270160 36181920 36123944 36121208 36201908 36394988 
1390.471 36726740 37213432 37859424 38654344 39578024 40601632 41692728 
1393.846 42822880 43969288 45119576 46273032 47441900 48647352 49913140 
1397.221 51262368 52708904 54254124 55885120 57581656 59326476 61117960 
1400.597 62974812 64932444 67034928 69317936 71798336 74465136 77283032 
1403.972 80195960 83138992 86055768 88901224 91644344 94263640 96740976 
1407.347 99059176 101204976 103172176 104967664 106614328 108153288 
1410.240 109638192 111128184 112687472 114374720 116242256 118339048 
1413.133 120704592 123368200 126343280 129623664 133177888 136942832 
1416.026 140831024 144706336 148368240 151560256 153951056 155195488 
1418.919 155038208 153387920 150361520 146217280 141262688 135758080 
1421.813 129884944 123787728 117598616 111472056 105614584 100234368 
1424.706 95502656 91517512 88280248 85719856 83727416 82197560 81041088 
1428.081 80190216 79596976 79218408 79015624 78959224 79031360 79232808 
1431.456 79577512 80083872 80761336 81601400 82571272 83615456 84660384 
1434.831 85604752 86334344 86733688 86710704 86235648 85352256 84160928 
1438.207 82773128 81283856 79759416 78236704 76742760 75303896 73949448 
1441.582 72721736 71675608 70872864 70388160 70297072 70665200 71546504 
1444.957 72973304 74960200 77508936 80615112 84269824 88454064 93141712 
1448.332 98310440 103971064 110189056 117099888 124892264 133744448 
1451.225 143759360 154883504 166907744 179457024 192077520 204359792 
1454.118 215885744 226211952 234803536 240948608 243920608 243291056 
1457.011 239276816 232725952 224706944 216076976 207238400 198251664 
1459.905 189031472 179504048 169667152 159577072 149268192 138735456 
1462.798 127939536 116858624 105586272 94387240 83649880 73793512 65120212 
1466.173 57734976 51573324 46471672 42254220 38776380 35940056 33676548 
1469.548 31919978 30590500 29591748 28812346 28158416 27569824 27031676 
1472.923 26570942 26232848 26059608 26077620 26305500 26764474 27483228 
1476.299 28506294 29892784 31708166 34030884 36939932 40497232 44723908 
1479.674 49558536 54832520 60229648 65338224 69729472 73025672 75017576 
1483.049 75680680 75155560 73673328 71496656 68871912 65974624 62921652 
1486.424 59771536 56537660 53207788 49757312 46164972 42423524 38559352 
1489.800 34645888 30806000 27192220 23944492 21167126 18899596 17122458 
1493.175 15778108 14789393 14078936 13572587 13209616 12937399 12708612 
1496.550 12487412 12248127 11979612 11686175 11382971 11090957 10828930 
1499.925 10612490 10453310 10361033 10349666 10439326 10654730 11025019 
1503.301 11576553 12327442 13275681 14389474 15594596 16762054 17737740 
1506.676 18392370 18678958 18647690 18409480 18084516 17759556 17488508 
1510.051 17294686 17178160 17126422 17121836 17151652 17214288 17321478 
1513.426 17492406 17744162 18078954 18477032 18892224 19265346 19545510 
1516.802 19709968 19779144 19807094 19860818 19986810 20194194 20444776 
1520.177 20664506 20762370 20669234 20376258 19940392 19457416 19011358 
1523.552 18653742 18393924 18210858 18067316 17924094 17752064 17534354 
1526.927 17269378 16968386 16652005 16347861 16088558 15909933 15841404 
1530.302 15899930 16081819 16360624 16685953 16987646 17196016 17257484 
1533.678 17161200 16945474 16687777 16476450 16381612 16454736 16722659 
1537.053 17191638 17841264 18618186 19436176 20174894 20718962 20999648 
1540.428 21022878 20858204 20600294 20331740 20097186 19906326 19745646 
1543.803 19593830 19433264 19260220 19088284 18946526 18871634 18895546 
1547.179 19040922 19313114 19698386 20162296 20657418 21139016 21578524 
1550.554 21978640 22370540 22803162 23321198 23949044 24681248 25486712 
1553.929 26323386 27161602 28004302 28888408 29869996 30996980 32279056 
1557.304 33651880 34968260 36000276 36534700 36500824 36026228 35356140 
1560.680 34706792 34211276 33910748 33794656 33835416 34003328 34273840 
1564.055 34624860 35039012 35505480 36024468 36610864 37293112 38105656 
1567.430 39074788 40206716 41475660 42831108 44210792 45572604 46914008 
1570.805 48274120 49708792 51259012 52935292 54708632 56520300 58273280 
1574.181 59846672 61101676 61883476 62066840 61598268 60528088 58992988 
1577.556 57165028 55200296 53204228 51242232 49355248 47568244 45908312 
1580.931 44405996 43088952 41982600 41101912 40449040 40012296 39767780 
1584.306 39685400 39732052 39881196 40118216 40439076 40846840 41344628 
1587.682 41929392 42591652 43321108 44114356 44981376 45947168 47047656 
1591.057 48317892 49787296 51476252 53396028 55552872 57946092 60563400 
1594.432 63368344 66296220 69266552 72200256 75063776 77900280 80857000 
1597.807 84171712 88142504 93122416 99463608 107513488 117623032 130112544 
1601.183 145250320 163159776 183716720 206346384 229829120 252387584 
1604.076 271644192 285059584 290621216 287224928 275075616 255532864 
1606.969 230824256 203470000 175729600 149494592 125980168 105765208 
1609.862 88993936 75459464 64780592 56497736 50165964 45384748 41804312 
1613.237 39155348 37219352 35814424 34795200 34025688 33385336 32791980 
1616.612 32207392 31649678 31171918 30833674 30672458 30695926 30890272 
1619.988 31229808 31687636 32234088 32838184 33463166 34063316 34595724 
1623.363 35033192 35378104 35663144 35940740 36264868 36668800 37158168 
1626.738 37710432 38288544 38855400 39392992 39910072 40437988 41015412 
1630.113 41671392 42421588 43268064 44209616 45247600 46390112 47645368 
1633.489 49005436 50433008 51853328 53160076 54257240 55102220 55730984 
1636.864 56228032 56686500 57167672 57687980 58232816 58775372 59297232 
1640.239 59795944 60286708 60791444 61329540 61909264 62530176 63188188 
1643.614 63882312 64614968 65382012 66163076 66914432 67575600 68099304 
1646.990 68483616 68791240 69123832 69590328 70272416 71205728 72389080 
1650.365 73793008 75381336 77097328 78862632 80574616 82119856 83429832 
1653.740 84519392 85494680 86486520 87599920 88914192 90472880 92291952 
1657.115 94362248 96658848 99151088 101811752 104635088 107634256 110832520 
1660.490 114252592 117901136 121765080 125819312 130037848 134409712 
1663.384 138936672 143637344 148531696 153634544 158957408 164514656 
1666.277 170337344 176462496 182939328 189818688 197134896 204896224 
1669.170 213079296 221643888 230533888 239699952 249118736 258797920 
1672.063 268787872 279181024 290111840 301706624 314017408 326949248 
1674.956 340188032 353244992 365613280 376931360 387065824 396048000 
1677.849 403953440 410803488 416546048 421089664 424398528 426539808 
1680.742 427671872 427935552 427343680 425708864 422683776 417929376 
1683.635 411411360 403612672 395441696 387789536 381096576 375297888 
1686.528 370007296 364795968 359323648 353422304 347072480 340348352 
1689.421 333344896 326136384 318792064 311401856 304089824 297000320 
1692.314 290212448 283672032 277147904 270256864 262568768 253809360 
1695.207 244096544 234001392 224332400 215695680 208243984 201632208 
1698.100 195217168 188223456 180006976 170342448 159608688 148717568 
1700.993 138625344 129874632 122447680 115998480 110108272 104461216 
1703.886 98889808 93367072 87955304 82754808 77863096 73348888 69258704 
1707.262 65628744 62480204 59808456 57564900 55660920 53985100 52445100 
1710.637 51001784 49674240 48520660 47592976 46905848 46417360 46049608 
1714.012 45719496 45384044 45055140 44784000 44617040 44552204 44517548 
1717.387 44406512 44135776 43704872 43200240 42750772 42464516 42381620 
1720.763 42478112 42684308 42925720 43146444 43329856 43491852 43661088 
1724.138 43853444 44062060 44266148 44454080 44640508 44872388 45210312 
1727.513 45701644 46360508 47160184 48050556 48986340 49958748 51002640 
1730.888 52184740 53570856 55197892 57049428 59058808 61119640 63133076 
1734.264 65052352 66911764 68799088 70801960 72994544 75427144 78144872 
1737.639 81199160 84648024 88540224 92889680 97666744 102815032 108294000 
1741.014 114117176 120370208 127197176 134748304 143143472 152434576 
1743.907 162607744 173595024 185308800 197675616 210601920 223943392 
1746.800 237474672 250815296 263455664 274817760 284273088 291257120 
1749.693 295338400 296278816 294110496 289156096 281999904 273322816 
1752.586 263764416 253818512 243757056 233691040 223629984 213541296 
1755.479 203432048 193390480 183581536 174227120 165535184 157630816 
1758.373 150541056 144195184 138464976 133203864 128292888 123670632 
1761.266 119342776 115373600 111849728 108840656 106366072 104391896 
1764.159 102839760 101611368 100599248 99690312 98778640 97761064 96551320 
1767.534 95099624 93397800 91476408 89378032 87130968 84721912 82093560 
1770.909 79161792 75862576 72202520 68284688 64286804 60392400 56727880 
1774.284 53327276 50153168 47138724 44230492 41412672 38711392 36170004 
1777.660 33827392 31693768 29745930 27940022 26234186 24611110 23082056 
1781.035 21678406 20429946 19348344 18419470 17611468 16885874 16213013 
1784.410 15578866 14981825 14427254 13920260 13463888 13062149 12725125 
1787.785 12471386 12321682 12290561 12375543 12551697 12771256 12973277 
1791.161 13104117 13128123 13041355 12868176 12650239 12428457 12230678 
1794.536 12073833 11967622 11919566 11938127 12029377 12192066 12416012 
1797.911 12683467 12974472 13271342 13563287 13843252 14103647 14333067 
1801.286 14515568 14636283 14688136 14677169 14621376 14543285 14462467 
1804.662 14386563 14309336 14214285 14084412 13910646 13695160 13449910 
1808.037 13187414 12914050 12624724 12305695 11941670 11526704 11068387 
1811.412 10587975 10110707 9658150 9241704 8862178 8515522 8199327 7916464 
1815.270 7672938 7473367 7313986 7181443 7057259 6926713 6785673 6643837 
1819.127 6519369 6431691 6391237 6397155 6439997 6510052 6603297 6722236 
1822.984 6870595 7044967 7228304 7393316 7512472 7573731 7589612 7596895 
1826.842 7641339 7757291 7953989 8208478 8474131 8694680 8829748 8871275 
1830.699 8845676 8797931 8771051 8792453 8867960 8988808 9141766 9317528 
1834.557 9511884 9722390 9942930 10159004 10350175 10497809 10591269 
1837.932 10634323 10642573 10639111 10645698 10676055 10736438 10827402 
1841.307 10947131 11091535 11250745 11404842 11520341 11558655 11490910 
1844.682 11312432 11050033 10752843 10477138 10262331 10124510 10054107 
1848.058 10026743 10014739 10001143 9985208 9978799 9995480 10039221 
1851.433 10099650 10154831 10182984 10170264 10118371 10039967 9951541 
1854.808 9861473 9765832 9650968 9502436 9314312 9093955 8858222 8625455 
1858.666 8406022 8197774 7989356 7768490 7532025 7288815 7057360 6855380 
1862.523 6693196 6569185 6474064 6398870 6342921 6315419 6331086 6398904 
1866.380 6513179 6648110 6764571 6822427 6793111 6671830 6477293 6243009 
1870.238 6000352 5771025 5565313 5385528 5234356 5117231 5040194 5005534 
1874.095 5006104 5026551 5047065 5052931 5041065 5021087 5009657 5021020 
1877.953 5059804 5118338 5182043 5237341 5280202 5317600 5364159 5432095 
1881.810 5524034 5631031 5737080 5827271 5895145 5946536 5995178 6055854 
1885.667 6135794 6232690 6336902 6437273 6524918 6595996 6647706 6674824 
1889.525 6667860 6616316 6515366 6372441 6208220 6052628 5931957 5859343 
1893.382 5827976 5815048 5790299 5729593 5626802 5494135 5354531 5228655 
1897.240 5126049 5041803 4962935 4877212 4782796 4688233 4608057 4552907 
1901.097 4522304 4503723 4479652 4437171 4375382 4306473 4248316 4215962 
1904.955 4212516 4229445 4251227 4265983 4270701 4271973 4279268 4296267 
1908.812 4315308 4319357 4289574 4216731 4107574 3983931 3871689 3789925 
1912.669 3743969 3724819 3718804 3716966 3722313 3748314 3809245 3907930 
1916.527 4028273 4136742 4197360 4186386 4106737 3986606 3868246 3787920 
1920.384 3760680 3777458 3811852 3835719 3829869 3792466 3736316 3679973 
1924.242 3635933 3606130 3585315 3567943 3555215 3557186 3586551 3651102 
1928.099 3746710 3858518 3966075 4053691 4117809 4166715 4214857 4271772 
1931.957 4336023 4395129 4434258 4443364 4426760 4400116 4384251 4392920 
1935.814 4424886 4465357 4495186 4501848 4487619 4468872 4467767 4500341 
1939.671 4566535 4650488 4726753 4774053 4782629 4757337 4710909 4654172 
1943.529 4588903 4507305 4399279 4262102 4105701 3951228 3821078 3727459 
1947.386 3665838 3618024 3562765 3486303 3392123 3297061 3222748 3181392 
1951.244 3169276 3167573 3154657 3116711 3056344 2988745 2933066 2898908 
1955.101 2879829 2855881 2806622 2723525 2618409 2520217 2460266 2459266 
1958.958 2514251 2602908 2694618 2769707 2828133 2889002 2976268 3105030 
1962.816 3272656 3460886 3647093 3817869 3976173 4137946 4319658 4522873 
1966.673 4729097 4903718 5013445 5039892 4988206 4881535 4749330 4607689 
1970.531 4453674 4268995 4034694 3745573 3418805 3085875 2778543 2513651 
1974.388 2284393 2067773 1840647 1598773 1361887 1166790 1045775 1009441 
1978.246 1036774 1088391 1122506 1117988 1079356 1031062 999212 994463 
1982.103 1006751 1011500 985728 920377 829208 740912 686317 681206 720301 
1986.443 782336 844579 896405 945746 1013891 1121642 1277238 1468495 1668484 
1990.782 1848766 1993305 2105428 2203327 2307843 2430710 2567943 2704687 
1994.640 2825165 2924460 3011433 3103796 3215038 3345507 3476550 3579469 
1998.497 3627713 3608736 3530094 3413328 3282972 3152020 3017338 2864086 
2002.354 2677848 2455867 2212319 1972502 1762591 1594716 1463475 1350487 
2006.212 1237129 1118254 1005057 918020 873263 870574 890528 903643 884717 
2010.552 828644 750969 683131 652667 672445 733909 814601 891524 952753 
2014.891 1003164 1057965 1128552 1213671 1296280 1352548 1366142 1339552 
2018.749 1294020 1258961 1260025 1302628 1373056 1446686 1505666 1548526 
2022.606 1594384 1669781 1794764 1967709 2166130 2353215 2498188 2590209 
2026.463 2641177 2679382 2730527 2806556 2898775 2986610 3049236 3080636 
2030.321 3091782 3105130 3140639 3204857 3288247 3372721 3442750 3494186 
2034.178 3536875 3583645 3641713 3703565 3749183 3756669 3717333 3641345 
2038.036 3557621 3498094 3486003 3522178 3587754 3651336 3687625 3688327 
2041.893 3664100 3636902 3627413 3644419 3682613 3727927 3768735 3803061 
2045.750 3840533 3895827 3977243 4082254 4195353 4298743 4378895 4435028 
2049.608 4477442 4520496 4571959 4629657 4681970 4715331 4724073 4714225 
2053.465 4700928 4701028 4725380 4770971 4824474 4868601 4892794 4898055 
2057.323 4896245 4901339 4921345 4951406 4976810 4979961 4949529 4887901 
2061.180 4809967 4735261 4676946 4636388 4602096 4557226 4488456 4394426 
2065.038 4284889 4176685 4083725 4009847 3948787 3889307 3823017 3750018 
2068.895 3678870 3622668 3591095 3585015 3596207 3612645 3625842 3634563 
2072.752 3645923 3669113 3709948 3766763 3830805 3891079 3940796 3981222 
2076.610 4020147 4066601 4125268 4192910 4260730 4319156 4364604 4401556 
2080.467 4441355 4495554 4568979 4656717 4745612 4822128 4877514 4913068 
2084.325 4938369 4966152 5004931 5054742 5108045 5154481 5187710 5208668 
2088.182 5224630 5244417 5273091 5308007 5340744 5361207 5364696 5354364 
2092.040 5340845 5334707 5342656 5362079 5383213 5393680 5385193 5358456 
2095.897 5321692 5285702 5258066 5239319 5223289 5203102 5175069 5142612 
2099.754 5113946 5097518 5096780 5106704 5116594 5116058 5099697 5071000 
2103.612 5038785 5013076 4997725 4987770 4972252 4938369 4880228 4800519 
2107.469 4709704 4619845 4539179 4467767 4399380 4325749 4242962 4153803 
2111.327 4067303 3992190 3931902 3882086 3832176 3771442 3694442 3604994 
2115.184 3514127 3435236 3377196 3340131 3317227 3299064 3278498 3255029 
2119.042 3233330 3219945 3218676 3227155 3238538 3245915 3246750 3244480 
2122.899 3247251 3261739 3289315 3323103 3350916 3360500 3346242 3311384 
2126.756 3267581 3227455 3200084 3186398 3180290 3173515 3161132 3144811 
2130.614 3132096 3130527 3143610 3167040 3191005 3206159 3208529 3202687 
2134.471 3199249 3209563 3237904 3279600 3322836 3356292 3374992 3383607 
2138.329 3393358 3415399 3453271 3500399 3543223 3567977 3568879 3551140 
2142.186 3526921 3508516 3501167 3498261 3486704 3451635 3386345 3295325 
2146.043 3192306 3091048 2999221 2913785 2824497 2720624 2599842 2469263 
2149.901 2342221 2230669 2135861 2047865 1948937 1824675 1672841 1505965 
2153.758 1345634 1213106 1118088 1053348 1000640 941230 867453 790103 732448 
2158.098 718243 758536 843948 950163 1049296 1126027 1181342 1229055 1284948 
2162.438 1355506 1437145 1517569 1585737 1639082 1684749 1734913 1799222 
2166.295 1876785 1955760 2019769 2056854 2065443 2056654 2047000 2051161 
2170.152 2073799 2108225 2140923 2161401 2167961 2170792 2184545 2222143 
2174.010 2286625 2369206 2454268 2527482 2583376 2626909 2669513 2721124 
2177.867 2784179 2852313 2915553 2965725 3002891 3034989 3073395 3124119 
2181.725 3183761 3238171 3271087 3271020 3238805 3186398 3131795 3091081 
2185.582 3070058 3065520 3068390 3072494 3079135 3097255 3137936 3207794 
2189.439 3302503 3410356 3514194 3602287 3671986 3731202 3791764 3862763 
2193.297 3945109 4032119 4114197 4185885 4250257 4318286 4403932 4514302 
2197.154 4647005 4788592 4921982 5033791 5119813 5185832 5243478 5302875 
2201.012 5365702 5426928 5477559 5510879 5528229 5537827 5550714 5574676 
2204.869 5609381 5646002 5672454 5680141 5668392 5646002 5625694 5617537 
2208.727 5625794 5646673 5671715 5694744 5714821 5736510 5766761 5809305 
2212.584 5861089 5913685 5956915 5984999 6000284 6012110 6033041 6072251 
2216.441 6131661 6205061 6282776 6356369 6422039 6480757 6535817 6587721 
2220.299 6632700 6664057 6676204 6669407 6652281 6639160 6644038 6675228 
2224.156 6730615 6800616 6871066 6931595 6979304 7018263 7056046 7097067 
2228.014 7140045 7177502 7200476 7202734 7184846 7154461 7121856 7094776 
2231.871 7075580 7060223 7043149 7019980 6991459 6962772 6939742 6925198 
2235.729 6916344 6905504 6884161 6848613 6801457 6751917 6710660 6686029 
2239.586 6679872 6687375 6700834 6714227 6725635 6737951 6755619 6782071 
2243.443 6816705 6855649 6894899 6932908 6972200 7018229 7076657 7148061 
2247.301 7228236 7309033 7381621 7441817 7490930 7535026 7580980 7632673 
2251.158 7688249 7741539 7784986 7814436 7830764 7839840 7848105 7860589 
2255.016 7876851 7892810 7903271 7905059 7899323 7890820 7884037 7881271 
2258.873 7880765 7878066 7868787 7852761 7833767 7819867 7818248 7832215 
2262.730 7859206 7892338 7923854 7949433 7969782 7990470 8018045 8056118 
2266.588 8103579 8154320 8201319 8239409 8268316 8292294 8318097 8351772 
2270.445 8395786 8449501 8509913 8574693 8642456 8713239 8786975 8861637 
2274.303 8932895 8996047 9047637 9088237 9122208 9156859 9198281 9249760 
2278.160 9309437 9372236 9432878 9487873 9537828 9586231 9637248 9693556 
2282.018 9754716 9817411 9878556 9936388 9992124 10048783 10109723 10176132 
2285.875 10246216 10316006 10380851 10438343 10488475 10533419 10576127 
2289.250 10618398 10659959 10699250 10734502 10765309 10793093 10820472 
2292.625 10849653 10880909 10912472 10941659 10966261 10986821 11006089 
2296.001 11028757 11059108 11098809 11146196 11197532 11248603 11296787 
2299.376 11342360 11387665 11436478 11491250 11552937 11620181 11691246 
2302.751 11764435 11839474 11916944 11997493 12080988 12166543 12252557 
2306.126 12337942 12423036 12510057 12601563 12699638 12804903 12915928 
2309.502 13030190 13145643 13261162 13377395 13495914 13617885 13743139 
2312.877 13870481 13998169 14125245 14252563 14383035 14520125 14666887 
2316.252 14823950 14989096 15158490 15327916 15494078 15655426 15812401 
2319.627 15965892 16116170 16262509 16402878 16534479 16655000 16762156 
2323.003 16854426 16930970 16991676 17037852 17072828 17102502 17134212 
2326.378 17175780 17233490 17309480 17401242 17501650 17601772 17692736 
2329.753 17768632 17827662 17871784 17905104 17931312 17953964 17974926 
2333.128 17995646 18018442 18046108 18082410 18130322 18191372 18264798 
2336.504 18347848 18437136 18528898 18620400 18709502 18794470 18873432 
2339.879 18944622 19006374 19057990 19099986 19132708 19155596 19165430 
2343.254 19154834 19113386 19029810 18894612 18705282 18468216 18200872 
2346.629 17928894 17682278 17493130 17387448 17383860 17491992 17710164 
2350.005 18026662 18419644 18862670 19325826 19781258 20208738 20595500 
2353.380 20937162 21234794 21492766 21715642 21907334 22072372 22215118 
2356.755 22339772 22450400 22548702 22634112 22704592 22758222 22795340 
2360.130 22819224 22835464 22849398 22863822 22876850 22882716 22874370 
2363.506 22847302 22802218 22745234 22685916 22634112 22595786 22571666 
2366.881 22557672 22547376 22535336 22518132 22494576 22464358 22426118 
2370.256 22376646 22311866 22228266 22125016 22004782 21872766 21734450 
2373.631 21593674 21450922 21304110 21149870 20985982 20812596 20632574 
2377.007 20450160 20269524 20093266 19922874 19758544 19601178 19452460 
2380.382 19315330 19193168 19088354 19002082 18934170 18883678 18849832 
2383.757 18832600 18831978 18847722 18878486 18921952 18975152 19035868 
2387.132 19103796 19179836 19265658 19361856 19466842 19576186 19684518 
2390.508 19786182 19878020 19959228 20031914 20098540 20160700 20218390 
2393.883 20270148 20314276 20350178 20379590 20405288 20430642 20457278 
2397.258 20485102 20512438 20537100 20558396 20577262 20596126 20617354 
2400.633 20642268 20669858 20697728 20723234 20744958 20763588 20781694 
2404.009 20801542 20824798 20851008 20878124 20903644 20926210 20945924 
2407.384 20964526 20983270 21002812 21021662 21037520 21048614 21054598 
2410.759 21057832 21061866 21070248 21084752 21104300 21125902 21146182 
2414.134 21162880 21176030 21187894 21201254 21218094 21238484 21260578 
2417.510 21282258 21302474 21322242 21344376 21372220 21408488 21453776 
2420.885 21506484 21564178 21624284 21685582 21747758 21810746 21874088 
2424.260 21936014 21994220 22046540 22091964 22131816 22168462 22204796 
2427.635 22242984 22283720 22326412 22370052 22413766 22457868 22503056 
2431.010 22550064 22598088 22645770 22691222 22733328 22772572 22811054 
2434.386 22851632 22896374 22945660 22997782 23049804 23099142 23144536 
2437.761 23187316 23229816 23274632 23323332 23375778 23430222 23485306 
2441.136 23540326 23596120 23654652 23717602 23785460 23857426 23931398 
2444.511 24005874 24080046 24154616 24231022 24310420 24392460 24475986 
2447.887 24559214 24641198 24723020 24807348 24897272 24995356 25101468 
2451.262 25213714 25328414 25442688 25555058 25666826 25780624 25899414 
2454.637 26024354 26154612 26287620 26419820 26549350 26675290 26798412 
2458.012 26919910 27040564 27159696 27276394 27389346 27498302 27604002 
2461.388 27708280 27812372 27916666 28020030 28120448 28216506 28307422 
2464.763 28394360 28479368 28564924 28652444 28742532 28835008 28929524 
2468.138 29026860 29128220 29234992 29347604 29465066 29585152 29704666 
2471.513 29821232 29934102 30044338 30153964 30265252 30379338 30495730 
2474.889 30613078 30730100 30845912 30961184 31077446 31196054 31317760 
2478.264 31442452 31569284 31697474 31826838 31957958 32091684 32228448 
2481.639 32367968 32508962 32649930 32789980 32929074 33068106 33208146 
2485.014 33350558 33495772 33643004 33791716 33941740 34093028 34246308 
2488.390 34401468 34557868 34713824 34867720 35018900 35168016 35317896 
2491.765 35472004 35633684 35804204 35982780 36166256 36351216 36534664 
2495.140 36715020 36891988 37065960 37236824 37403752 37565392 37721092 
2498.515 37871896 38020768 38171820 38329004 38494612 38668540 38848444 
2501.891 39030888 39213152 39394372 39575372 39757760 39942948 40130936 
2505.266 40320648 40510292 40698564 40885464 41072152 41260048 41450036 
2508.641 41640980 41830616 42016468 42196196 42370008 42539244 42706792 
2512.016 42874916 43044644 43215684 43386168 43554300 43719380 43881048 
2515.392 44040680 44199564 44358580 44518352 44679100 44841452 45005888 
2518.767 45173472 45344984 45520132 45697708 45875868 46052852 46227512 
2522.142 46400104 46571620 46742872 46913972 47083956 47251088 47413480 
2525.517 47570092 47721028 47867504 48011288 48153900 48296372 48439600 
2528.893 48584092 48731192 48882532 49039864 49204296 49375884 49553408 
2532.268 49735612 49921980 50113192 50311292 50518756 50736964 50965528 
2535.643 51201896 51442864 51685012 51927300 52170428 52417132 52670336 
2539.018 52931888 53201156 53475840 53751900 54025432 54293060 54552620 
2542.394 54801808 55038204 55258508 55458744 55635460 55785644 55907956 
2545.769 56001884 56066760 56102012 56105856 56076220 56011760 55912404 
2549.144 55780108 55617796 55429156 55217080 54983520 54729944 54457616 
2552.519 54169472 53870116 53565232 53259812 52957376 52658932 52363228 
2555.895 52067468 51769780 51469836 51168904 50869856 50575408 50287112 
2559.270 50005552 49730860 49463396 49205224 48959596 48730748 48522288 
2562.645 48336336 48173076 48031456 47909936 47807244 47723504 47659752 
2566.020 47617232 47596896 47599004 47623220 47668848 47735156 47820704 
2569.396 47924368 48043928 48176928 48320816 48473792 48635084 48805600 
2572.771 48987080 49180992 49388248 49608564 49840400 50082480 50333952 
2576.146 50595248 50868216 51154888 51456928 51775080 52108820 52456764 
2579.521 52816956 53187452 53565984 53949944 54336276 54721072 55099440 
2582.896 55467104 55819668 56153136 56463960 56748080 57000948 57217380 
2586.272 57391556 57518180 57592780 57612188 57574356 57478464 57323800 
2589.647 57110264 56838408 56509696 56126932 55694668 55218732 54705548 
2593.022 54161516 53593344 53007052 52408648 51804760 51201636 50605300 
2596.397 50020868 49451696 48899516 48365000 47848416 47350360 46872300 
2599.773 46416180 45984224 45578052 45198768 44846636 44522100 44225464 
2603.148 43956968 43716452 43502728 43313272 43144608 42993280 42856376 
2606.523 42732712 42622936 42528428 42450452 42389292 42343596 42311196 
2609.898 42289428 42276500 42271460 42274600 42286324 42306412 42334136 
2613.274 42367848 42405808 42446908 42490536 42536720 42585984 42638216 
2616.649 42692828 42749016 42806096 42863800 42922644 42983624 43047392 
2620.024 43114532 43184612 43257556 43333116 43411616 43494088 43581444 
2623.399 43674128 43771860 43873460 43977684 44083552 44190904 44300788 
2626.775 44414220 44532232 44654532 44780364 44907884 45035732 45163544 
2630.150 45291988 45422932 45558068 45698552 45844308 45994240 46146588 
2633.525 46299940 46453016 46605628 46757892 46909580 47060324 47209600 
2636.900 47356384 47499964 47640120 47777024 47911236 48043336 48173892 
2640.276 48303336 48432040 48560788 48690088 48820760 48952844 49086268 
2643.651 49220512 49354872 49489016 49622680 49756384 49890056 50023916 
2647.026 50157448 50289308 50418604 50544288 50665876 50783588 50897608 
2650.401 51008640 51116908 51221916 51322848 51418732 51508928 51592504 
2653.777 51669564 51739880 51804012 51862328 51915648 51964756 52010620 
2657.152 52053720 52094436 52132432 52166804 52196844 52222028 52242320 
2660.527 52258504 52271432 52282532 52292252 52301036 52308620 52315048 
2663.902 52320432 52325364 52330560 52336540 52343232 52349696 52354408 
2667.278 52355528 52351340 52340276 52320804 52291128 52249124 52191468 
2670.653 52115024 52016556 51893544 51744696 51570268 51371516 51150676 
2674.028 50911208 50657016 50393520 50127584 49866528 49618780 49392296 
2677.403 49193720 49027916 48897628 48803928 48746836 48725112 48737644 
2680.779 48782204 48855724 48954772 49074656 49210680 49358552 49514192 
2684.154 49674500 49836500 49997856 50156444 50310180 50458276 50600724 
2687.529 50738900 50875036 51011472 51150416 51292716 51437716 51584332 
2690.904 51730664 51875020 52016296 52153576 52286232 52413732 52534988 
2694.280 52648868 52753800 52848280 52930500 52998888 53051752 53087508 
2697.655 53104992 53103268 53082340 53042728 52984364 52907708 52811684 
2701.030 52694464 52553272 52384796 52186344 51955496 51690016 51388744 
2704.405 51050152 50673100 50256716 49801012 49307100 48777456 48216060 
2707.781 47627768 47017564 46390776 45752628 45108364 44464024 43825848 
2711.156 43200424 42594208 42012492 41459184 40936652 40445916 39987120 
2714.531 39559876 39163544 38796848 38457792 38143816 37851796 37578864 
2717.906 37322896 37082776 36858296 36649620 36457036 36279924 36117032 
2721.281 35966620 35826872 35696920 35576176 35465032 35363656 35272184 
2724.657 35190472 35117824 35053272 34996596 34947072 34904628 34868868 
2728.032 34839424 34815948 34797856 34785396 34778792 34778468 34784896 
2731.407 34798032 34817452 34842660 34872672 34907108 34946032 34989016 
2734.782 35035960 35085460 35136040 35185188 35231040 35271716 35306972 
2738.158 35337524 35364804 35390756 35417576 35446660 35479448 35516984 
2741.533 35560068 35609696 35666308 35730304 35802260 35882144 35970396 
2744.908 36067376 36173244 36288064 36411276 36541908 36678536 36819492 
2748.283 36963852 37111036 37260836 37413284 37568068 37724384 37880828 
2751.659 38035484 38186908 38334148 38476652 38614688 38748628 38878372 
2755.034 39003916 39124820 39240568 39351268 39457212 39559076 39657228 
2758.409 39751876 39842768 39929432 40010988 40086784 40156520 40220020 
2761.784 40277200 40327772 40371804 40408964 40439732 40464680 40485012 
2765.160 40501888 40516220 40529024 40540704 40551540 40561728 40572060 
2768.535 40583372 40596472 40612188 40631180 40653880 40681060 40713812 
2771.910 40753444 40801268 40857980 40923724 40997824 41078564 41164268 
2775.285 41253528 41346048 41441868 41541828 41646884 41757472 41873704 
2778.661 41995408 42122336 42254552 42391924 42534420 42681460 42832424 
2782.036 42986296 43142304 43300388 43461052 43625440 43794656 43969364 
2785.411 44149348 44333888 44521732 44711460 44902224 45093808 45285772 
2788.786 45478372 45671240 45863716 46055652 46247008 46438228 46630160 
2792.162 46823948 47020184 47219428 47421312 47625736 47832100 48040380 
2795.537 48250460 48462380 48675632 48889616 49103184 49315640 49526336 
2798.912 49735576 49944060 50152204 50360480 50569268 50778340 50987476 
2802.287 51196972 51407020 51618328 51830592 52043488 52255776 52465664 
2805.663 52671724 52873016 53069496 53261836 53451184 53638104 53822744 
2809.038 54004312 54181860 54354564 54522148 54684504 54842220 54995292 
2812.413 55143824 55287072 55424412 55555736 55681900 55804032 55924124 
2815.788 56044140 56165356 56289060 56415132 56543848 56675056 56808952 
2819.164 56945680 57085552 57228300 57373444 57520300 57667848 57815708 
2822.539 57963472 58110712 58257024 58401640 58543612 58681836 58815244 
2825.914 58943348 59065720 59182084 59291872 59394168 59488204 59572340 
2829.289 59645696 59707396 59757048 59794464 59819712 59832260 59831536 
2832.665 59817012 59788036 59744540 59686828 59615440 59530992 59434060 
2836.040 59324576 59202056 59065492 58913784 58746012 58561468 58360440 
2839.415 58144200 57915120 57676740 57433608 57190088 56950288 56717344 
2842.790 56492564 56276608 56068908 55869372 55678620 55498128 55330348 
2846.166 55177836 55042792 54926740 54830004 54752680 54694124 54654028 
2849.541 54632044 54628100 54641892 54672288 54718556 54778876 54851616 
2852.916 54935124 55027672 55127088 55231604 55338932 55447224 55555056 
2856.291 55661788 55767672 55873512 55980360 56089152 56200124 56312932 
2859.667 56427096 56541472 56655616 56768584 56879880 56989236 57096056 
2863.042 57200104 57301264 57399460 57494692 57586916 57675340 57758744 
2866.417 57835428 57903308 57960516 58005844 58038412 58057992 58064468 
2869.792 58057956 58038524 58005960 57960252 57901188 57828880 57743076 
2873.167 57643744 57530812 57404832 57267124 57119828 56966344 56810196 
2876.543 56655468 56505244 56361104 56223696 56092848 55967808 55848496 
2879.918 55735088 55628452 55529640 55438904 55356396 55281612 55213620 
2883.293 55151652 55095300 55044408 54999052 54958928 54923540 54892032 
2886.668 54863160 54835792 54808652 54780608 54750800 54717952 54681272 
2890.044 54640236 54595036 54546532 54495744 54443684 54391180 54337852 
2893.419 54282696 54224052 54160012 54089228 54010912 53924848 53831336 
2896.794 53730864 53624348 53512344 53396028 53276440 53155356 53033856 
2900.169 52913660 52795520 52680100 52566960 52455640 52345176 52234136 
2903.545 52121072 52004532 51883048 51756156 51624336 51488972 51352232 
2906.920 51216396 51083284 50953684 50827876 50705048 50584788 50466420 
2910.295 50349764 50234436 50119440 50002500 49880616 49750552 49610128 
2913.670 49458828 49298268 49132200 48964420 48798516 48636528 48478496 
2917.046 48323632 48170560 48018764 47868652 47721764 47579592 47443268 
2920.421 47313192 47189028 47070108 46956168 46847716 46745640 46650932 
2923.796 46564760 46487348 46418948 46359176 46308196 46266028 46232632 
2927.171 46207572 46189884 46178424 46171716 46169468 46171976 46181040 
2930.547 46198728 46227328 46268684 46323604 46392620 46475988 46573760 
2933.922 46686160 46813284 46954836 47109768 47276540 47453504 47639264 
2937.297 47833100 48034236 48241608 48453080 48664696 48871372 49067092 
2940.672 49245936 49403284 49536476 49644484 49727924 49788380 49828064 
2944.048 49849356 49855268 49848988 49834308 49814984 49794544 49775816 
2947.423 49760844 49750956 49747096 49750068 49760620 49779088 49805360 
2950.798 49838356 49876788 49918564 49962092 50006332 50051244 50097240 
2954.173 50144876 50194564 50245932 50297752 50348496 50396612 50440596 
2957.549 50479376 50512016 50538184 50557912 50571352 50579688 50584192 
2960.924 50586244 50587508 50588512 50589556 50590040 50589144 50586168 
2964.299 50580248 50571388 50559176 50543468 50523856 50500032 50471744 
2967.674 50439516 50404312 50367476 50330120 50292844 50255492 50217512 
2971.050 50178052 50136732 50093856 50049904 50005440 49960716 49914848 
2974.425 49866564 49814760 49758764 49699168 49637908 49577328 49519912 
2977.800 49467440 49420772 49379932 49344668 49314972 49290808 49272844 
2981.175 49261152 49255476 49254768 49257624 49262820 49269392 49277592 
2984.551 49287988 49301608 49319348 49341584 49368164 49398864 49433284 
2987.926 49471080 49512004 49555528 49600504 49644928 49686796 49723836 
2991.301 49754264 49777340 49792948 49801644 49804432 49802160 49795700 
2994.676 49785884 49773252 49758168 49740928 49721200 49698536 49671864 
2998.052 49640176 49602808 49559648 49511300 49458792 49403208 49345744 
3001.427 49286648 49226228 49164256 49100812 49035816 48969796 48902816 
3004.802 48835404 48767152 48697796 48627488 48555748 48483164 48410632 
3008.177 48339072 48269568 48202956 48139796 48080164 48024020 47971100 
3011.552 47921112 47873572 47828216 47784792 47743216 47703460 47665964 
3014.928 47630840 47598412 47568612 47541184 47515380 47490208 47464964 
3018.303 47438612 47410152 47379076 47344560 47306100 47263316 47216032 
3021.678 47164392 47108736 47049356 46986364 46919952 46850004 46776748 
3025.053 46700184 46620640 46538128 46452536 46362752 46267720 46165600 
3028.429 46054840 45934572 45804948 45667412 45523772 45376392 45227556 
3031.804 45078296 44929376 44780912 44632720 44485132 44338988 44195492 
3035.179 44056596 43924120 43799860 43685160 43580416 43485736 43399932 
3038.554 43321620 43248808 43179704 43112704 43046588 42980296 42912700 
3041.930 42842148 42766352 42682668 42588104 42480560 42359192 42224752 
3045.305 42079256 41925740 41767320 41606844 41446752 41289052 41135672 
3048.680 40989048 40852012 40727568 40618188 40525860 40451224 40393840 
3052.055 40351840 40323152 40304612 40293376 40286036 40279564 40271312 
3055.431 40259424 40242156 40219256 40190248 40155176 40113856 40065888 
3058.806 40011096 39949628 39882576 39811900 39739928 39669132 39601144 
3062.181 39536540 39474776 39414180 39353268 39290620 39225084 39156436 
3065.556 39084648 39009424 38930924 38848768 38763268 38675060 38585096 
3068.932 38495120 38406716 38321912 38242152 38169032 38103776 38047276 
3072.307 37999720 37960088 37926456 37895688 37863656 37826240 37779752 
3075.682 37720912 37647484 37557804 37450592 37324776 37180296 37017824 
3079.057 36839688 36649796 36453288 36255068 36060072 35871672 35691632 
3082.433 35520476 35357976 35204232 35059268 34924088 34799652 34687336 
3085.808 34587792 34501864 34429408 34370196 34322928 34284956 34252760 
3089.183 34220780 34182744 34132092 34062924 33970652 33852892 33708744 
3092.558 33539328 33346262 33132504 32901232 32656468 32403096 32146626 
3095.934 31892520 31646542 31412638 31193990 30992034 30806710 30636900 
3099.309 30480980 30336628 30201452 30072710 29948016 29824852 29701366 
3102.684 29576142 29448720 29318960 29187254 29054066 28920104 28786006 
3106.059 28652232 28519102 28386508 28253776 28119812 27983664 27844166 
3109.435 27701146 27555350 27408614 27263374 27122274 26987462 26860480 
3112.810 26741286 26629066 26522512 26419258 26317154 26214300 26109006 
3116.185 26000538 25889004 25775316 25660708 25546800 25434432 25323392 
3119.560 25213084 25102170 24989986 24876674 24763638 24652806 24546490 
3122.936 24446052 24351700 24262414 24176054 24091218 24006608 23922366 
3126.311 23839118 23757814 23678900 23602630 23528468 23455962 23384904 
3129.686 23315114 23246316 23177772 23108192 23035828 22959214 22877652 
3133.061 22791708 22703510 22615646 22530310 22448586 22370610 22295124 
3136.437 22220944 22146948 22072930 21998854 21924618 21849316 21771482 
3139.812 21688820 21600150 21504882 21403962 21299656 21194400 21090108 
3143.187 20987722 20887060 20787256 20687720 20588518 20489930 20393030 
3146.562 20298408 20206344 20116690 20029348 19944554 19863246 19786496 
3149.938 19714786 19647526 19583152 19518894 19452114 19381188 19305942 
3153.313 19227906 19149396 19072704 18999070 18928564 18860144 18792048 
3156.688 18723166 18652740 18580870 18507838 18433922 18358978 18282458 
3160.063 18203846 18122688 18039336 17954068 17867572 17780644 17693736 
3163.438 17607362 17521902 17437940 17355652 17275342 17196430 17118220 
3166.814 17039608 16959532 16877572 16793116 16706474 16617680 16526597 
3170.189 16432919 16336231 16237089 16136320 16035849 15937945 15844565 
3173.564 15757011 15675247 15598064 15523953 15450918 15377690 15303650 
3176.939 15228662 15153241 15077489 15001786 14926233 14850762 14775475 
3180.315 14700612 14626036 14551576 14476753 14401530 14325533 14249310 
3183.690 14173375 14098581 14025136 13953379 13882592 13812775 13743481 
3187.065 13675293 13608928 13545785 13485831 13429268 13374559 13319889 
3190.440 13263177 13202784 13137959 13068979 12996833 12923027 12848893 
3193.816 12775897 12704961 12636629 12571036 12507601 12445164 12382771 
3197.191 12318818 12253171 12186035 12118737 12052610 11989523 11929988 
3200.566 11874036 11821223 11770869 11722767 11677291 11634747 11595610 
3203.941 11559369 11524593 11489515 11452501 11412461 11369604 11324504 
3207.317 11277881 11229561 11178289 11122026 11058871 10988078 10910943 
3210.692 10830595 10751009 10676259 10608687 10548628 10494755 10444587 
3214.067 10395851 10346612 10296258 10244689 10192312 10138992 10084627 
3217.442 10029218 9972832 9916420 9860829 9807176 9756072 9707244 9660217 
3221.300 9613771 9566924 9519404 9470771 9421433 9371356 9321048 9271050 
3225.157 9222040 9174896 9130701 9089760 9052035 9016411 8981569 8945985 
3229.015 8908950 8870734 8832149 8794076 8757256 8721150 8684607 8645903 
3232.872 8603824 8557931 8509101 8458251 8407171 8356467 8306377 8256395 
3236.729 8206283 8155671 8105335 8055881 8008256 7962425 7918219 7874725 
3240.587 7831675 7789000 7746970 7706360 7667576 7629705 7591838 7551613 
3244.444 7507584 7458704 7404977 7347212 7287029 7225373 7163388 7101647 
3248.302 7040858 6981998 6926646 6876553 6833365 6797587 6769417 6747172 
3252.159 6729067 6712848 6696157 6676776 6652954 6622809 6585433 6540761 
3256.017 6489670 6434448 6378090 6323723 6273632 6228723 6188457 6150883 
3259.874 6114018 6075712 6035292 5992289 5947544 5901325 5853902 5805040 
3263.731 5754304 5701694 5647848 5594613 5544002 5498464 5459909 5429108 
3267.589 5405825 5388614 5374693 5361341 5345407 5324409 5296905 5262527 
3271.446 5222417 5178556 5133559 5090042 5049311 5012707 4979793 4949730 
3275.304 4921479 4893598 4865283 4835832 4804439 4770971 4735429 4698215 
3279.161 4660099 4622725 4587496 4555485 4527226 4502250 4479484 4457590 
3283.019 4434961 4411095 4385925 4359551 4332174 4304097 4274850 4244301 
3286.876 4211914 4178123 4143533 4109982 4078808 4051851 4029678 4012388 
3290.733 3998410 3985636 3971124 3952599 3928258 3897966 3862930 3825323 
3294.591 3787719 3752425 3720776 3692571 3666974 3643317 3620697 3599514 
3298.448 3580839 3565972 3555783 3549937 3546630 3543590 3538780 3530729 
3302.306 3519539 3506144 3492115 3478655 3465996 3453405 3439344 3422545 
3306.163 3401406 3375226 3343203 3304606 3258601 3204356 3141974 3072394 
3310.021 2998354 2923492 2851779 2786447 2728960 2679248 2635009 2593742 
3313.878 2552745 2510019 2464964 2417415 2368139 2318003 2267972 2218680 
3317.735 2170692 2124407 2079958 2036846 1995136 1954395 1914723 1877118 
3321.593 1842577 1811832 1785281 1761494 1738306 1712525 1681124 1642674 
3325.450 1596944 1545633 1491103 1435981 1381964 1329947 1279996 1231614 
3329.308 1185196 1141641 1102209 1067797 1039166 1015618 996455 980581 
3333.165 967132 956107 947805 942027 938275 934357 927882 915198 893782 
3337.505 861909 819946 770054 715887 661726 611820 568687 533719 505886 
3341.844 482401 459149 432349 399150 358658 312301 262931 214529 170508 
3346.184 133219 103788 81616 65709 54011 44799 35488 23128 4705 -22994 
3351.006 -61558 -110620 -167129 -226445 -283005 -331843 -370214 -398187 
3354.863 -417917 -431919 -443008 -452309 -459690 -464886 -467667 -469156 
3358.720 -471638 -477497 -488551 -504901 -524923 -545838 -564667 -578995 
3362.578 -587731 -590775 -588393 -580848 -568042 -549743 -526346 -499506 
3366.435 -472002 -448006 -431522 -426391 -435229 -459226 -498083 -550074 
3370.293 -612282 -680735 -750367 -816053 -873197 -918596 -951758 -974537 
3374.150 -990505 -1004191 -1018934 -1035958 -1054435 -1071854 -1084877 
3377.525 -1091850 -1091983 -1086827 -1078630 -1070102 -1062930 -1058269 
3380.901 -1055790 -1055394 -1056881 -1060484 -1066500 -1075457 -1087256 
3384.276 -1101303 -1116373 -1131245 -1144200 -1154312 -1160194 -1160822 
3387.651 -1155237 -1142878 -1123347 -1098031 -1069276 -1040255 -1015265 
3391.026 -998373 -992819 -1000422 -1020223 -1050105 -1085736 -1122355 
3394.402 -1155733 -1182301 -1201103 -1212007 -1216368 -1215773 -1211181 
3397.777 -1203019 -1190892 -1174932 -1156030 -1136731 -1120604 -1112077 
3401.152 -1114655 -1129758 -1156757 -1192743 -1233252 -1274253 -1312178 
3404.527 -1345177 -1372361 -1393434 -1408329 -1417081 -1419888 -1417841 
3407.903 -1413052 -1408098 -1406017 -1408131 -1414571 -1423521 -1432273 
3411.278 -1438217 -1440199 -1438845 -1436302 -1435939 -1439968 -1449578 
3414.653 -1463810 -1480321 -1495709 -1506540 -1510700 -1506837 -1495148 
3418.028 -1476722 -1453871 -1429565 -1407272 -1390494 -1382435 -1384615 
3421.404 -1397100 -1418468 -1445284 -1474080 -1501587 -1525195 -1543355 
3424.779 -1556000 -1563395 -1566432 -1566697 -1564782 -1562207 -1559631 
3428.154 -1558014 -1558080 -1560226 -1564881 -1572375 -1582642 -1595319 
3431.529 -1610010 -1625294 -1639785 -1651965 -1661141 -1667776 -1673420 
3434.905 -1680252 -1690682 -1705798 -1725435 -1747613 -1769162 -1787146 
3438.280 -1798761 -1802886 -1799685 -1790710 -1777840 -1763585 -1749791 
3441.655 -1738075 -1729198 -1722696 -1717449 -1711046 -1701046 -1686491 
3445.030 -1668205 -1649589 -1636385 -1635659 -1652196 -1688042 -1740385 
3448.406 -1802820 -1867060 -1925319 -1973083 -2009067 -2035088 -2053952 
3451.781 -2068528 -2079542 -2086730 -2088841 -2086038 -2079542 -2072485 
3455.156 -2067802 -2067802 -2072386 -2079443 -2086104 -2089137 -2087027 
3458.531 -2080267 -2070605 -2060646 -2052468 -2047818 -2047191 -2050951 
3461.906 -2058898 -2070341 -2083730 -2095930 -2103415 -2102624 -2091676 
3465.282 -2070968 -2044157 -2016751 -1994291 -1981032 -1977832 -1983440 
3468.657 -1994060 -2006527 -2018400 -2028690 -2037924 -2046103 -2052039 
3472.032 -2053886 -2049104 -2036275 -2015498 -1989574 -1961703 -1935414 
3475.407 -1911662 -1889296 -1864816 -1834034 -1793713 -1742464 -1681078 
3478.783 -1612222 -1539459 -1466386 -1395548 -1329223 -1268174 -1212502 
3482.158 -1160525 -1109235 -1054336 -991959 -918332 -833514 -740080 -643979 
3486.015 -553085 -475279 -416295 -378954 -363030 -365811 -383920 -414242 
3489.873 -454427 -503411 -560266 -623863 -693074 -766277 -841782 -918762 
3493.730 -996918 -1076415 -1158311 -1244056 -1334904 -1431943 -1534242 
3497.105 -1640082 -1744841 -1841655 -1923505 -1983571 -2017773 -2026315 
3500.481 -2014376 -1990663 -1966387 -1953259 -1959889 -1990762 -2045872 
3503.856 -2120166 -2205919 -2292546 -2370159 -2429735 -2465187 -2474675 
3507.231 -2460739 -2430822 -2394676 -2363370 -2346267 -2347651 -2367423 
3510.606 -2400805 -2440839 -2480605 -2515757 -2544844 -2569088 -2590596 
3513.982 -2611214 -2631140 -2649450 -2664336 -2674116 -2678825 -2679056 
3517.357 -2676158 -2671482 -2664895 -2654489 -2637627 -2610555 -2570570 
3520.732 -2516844 -2451151 -2378463 -2305367 -2240532 -2191051 -2161479 
3524.107 -2152676 -2161050 -2180732 -2205194 -2229555 -2252795 -2277351 
3527.483 -2308003 -2349760 -2404956 -2472567 -2547809 -2623466 -2693545 
3530.858 -2752780 -2799268 -2832549 -2853288 -2861978 -2858587 -2843808 
3534.233 -2819843 -2791498 -2765950 -2750772 -2751891 -2771909 -2808222 
3537.608 -2854473 -2902364 -2943833 -2972859 -2985561 -2979901 -2954167 
3540.984 -2906775 -2836204 -2742277 -2627319 -2497275 -2362019 -2234269 
3544.359 -2126694 -2051313 -2016949 -2027503 -2082344 -2174831 -2294095 
3547.734 -2424134 -2547413 -2647672 -2712215 -2735494 -2720941 -2680373 
3551.109 -2630382 -2589213 -2572250 -2586775 -2631864 -2699274 -2777275 
3554.485 -2853321 -2917274 -2962756 -2986976 -2989510 -2971938 -2937317 
3557.860 -2890351 -2836006 -2780403 -2728580 -2683995 -2647079 -2615397 
3561.235 -2583185 -2541945 -2482450 -2394577 -2268715 -2099195 -1884842 
3564.610 -1634107 -1364368 -1105566 -895286 -769783 -757710 -868501 -1089735 
3568.468 -1389140 -1724247 -2055798 -2350650 -2589871 -2767497 -2886961 
3571.843 -2957885 -2991879 -3001290 -2996388 -2985956 -2976709 -2972892 
3575.218 -2976446 -2986285 -2999645 -3012709 -3021757 -3025147 -3022712 
3578.594 -3016197 -3007608 -2998362 -2988260 -2975524 -2956865 -2927641 
3581.969 -2882748 -2815629 -2718669 -2584041 -2405747 -2181755 -1917897 
3585.344 -1630806 -1346829 -1101402 -932979 -870386 -927524 -1095717 
3588.719 -1347093 -1640049 -1929245 -2178589 -2361755 -2466834 -2495068 
3592.094 -2458762 -2377408 -2273758 -2171765 -2091808 -2046696 -2042475 
3595.470 -2076673 -2140444 -2220985 -2304049 -2376815 -2429933 -2459487 
3598.845 -2467559 -2461760 -2452865 -2452634 -2469898 -2507455 -2561051 
3602.220 -2619678 -2669111 -2693907 -2681657 -2624717 -2521258 -2375069 
3605.595 -2194909 -1994489 -1791172 -1603936 -1452451 -1352048 -1309931 
3608.971 -1321394 -1371503 -1437689 -1497261 -1534803 -1546095 -1538534 
3612.346 -1527275 -1529454 -1556693 -1608095 -1670813 -1722564 -1740847 
3615.721 -1707746 -1617074 -1475897 -1305571 -1136962 -1005017 -943460 
3619.096 -974240 -1103055 -1317133 -1589245 -1884281 -2165435 -2404297 
3622.472 -2581110 -2685839 -2716463 -2674972 -2563817 -2383142 -2130156 
3625.847 -1803084 -1405984 -958900 -503742 -102902 165569 238133 93448 
3629.704 -234724 -670446 -1128668 -1537940 -1860824 -2090028 -2241423 
3633.080 -2342114 -2421662 -2502316 -2593099 -2690811 -2783992 -2861550 
3636.455 -2915859 -2946795 -2959630 -2962361 -2961637 -2960189 -2957227 
3639.830 -2949461 -2934223 -2910922 -2881069 -2845783 -2802987 -2745405 
3643.205 -2659429 -2527089 -2331272 -2060184 -1712861 -1300219 -847238 
3646.581 -389547 34493 387277 638995 771349 775398 650444 403528 50863 
3650.920 -378656 -846114 -1303258 -1703257 -2009792 -2199590 -2270528 
3654.295 -2240763 -2148653 -2043399 -1974501 -1979086 -2067241 -2224314 
3657.671 -2417642 -2613849 -2785802 -2920038 -3014847 -3076178 -3113288 
3661.046 -3134276 -3144868 -3148651 -3147368 -3141414 -3129999 -3110327 
3664.421 -3075586 -3016230 -2920795 -2777374 -2577553 -2319275 -2009957 
3667.796 -1667644 -1322682 -1017381 -793596 -685135 -699823 -813308 -971595 
3671.654 -1107120 -1162639 -1100477 -913141 -624326 -292408 -397 166961 
3675.511 146874 -67024 -426325 -850446 -1267579 -1633546 -1932742 -2172754 
3679.369 -2370159 -2540825 -2693182 -2827118 -2936198 -3013926 -3056668 
3682.744 -3063708 -3037025 -2977565 -2882912 -2747776 -2565530 -2332887 
3686.119 -2052665 -1738966 -1415463 -1113697 -867642 -703594 -633756 -655558 
3689.977 -756056 -919158 -1128601 -1370413 -1629552 -1889329 -2132926 
3693.352 -2344454 -2513550 -2636541 -2717484 -2765851 -2792091 -2805720 
3696.727 -2810757 -2805457 -2783235 -2736318 -2659791 -2554397 -2428615 
3700.102 -2298314 -2184820 -2109450 -2087225 -2123133 -2209644 -2328800 
3703.478 -2456621 -2570372 -2650899 -2685773 -2669209 -2600971 -2484361 
3706.853 -2324120 -2126398 -1898764 -1650051 -1393269 -1145092 -925573 
3710.228 -758405 -665881 -665186 -763796 -955329 -1220168 -1526813 -1842051 
3714.085 -2134805 -2380143 -2564377 -2682184 -2737338 -2739347 -2701843 
3717.461 -2638648 -2560029 -2472138 -2376288 -2271089 -2156170 -2034362 
3720.836 -1911926 -1798827 -1703125 -1628397 -1572573 -1528464 -1487949 
3724.211 -1447002 -1408098 -1382237 -1384714 -1428376 -1517304 -1641733 
3727.586 -1779259 -1899193 -1969784 -1968366 -1882335 -1712201 -1468830 
3730.962 -1171463 -842542 -501690 -165340 154498 446478 692921 868449 942725 
3735.301 886842 689436 365489 -41813 -475213 -878752 -1211015 -1452252 
3739.159 -1599281 -1658039 -1635329 -1533945 -1352345 -1087157 -742329 
3742.534 -338597 81119 445616 674868 714427 565435 290583 -19979 -279130 
3746.874 -434567 -467203 -386005 -220384 -13916 182142 322281 373017 317440 
3751.213 155559 -100318 -426689 -792836 -1161252 -1495379 -1767512 -1961175 
3755.071 -2073078 -2112120 -2094974 -2042244 -1973149 -1905691 -1853302 
3758.446 -1826973 -1835947 -1887580 -1984231 -2119968 -2278439 -2435204 
3761.821 -2561413 -2635322 -2645400 -2595635 -2502975 -2394610 -2299401 
3765.196 -2236775 -2212512 -2215611 -2226589 -2224512 -2197744 -2148587 
3768.572 -2093787 -2058799 -2068857 -2141268 -2276758 -2460969 -2668254 
3771.947 -2871556 -3048376 -3184011 -3273961 -3319932 -3327857 -3303097 
3775.322 -3249297 -3167269 -3056865 -2920137 -2765226 -2606274 -2465417 
3778.697 -2366402 -2327317 -2355066 -2440443 -2561347 -2687486 -2792091 
3782.073 -2858225 -2881530 -2869845 -2839495 -2810032 -2797029 -2808880 
3785.448 -2845980 -2901640 -2966837 -3032451 -3092167 -3142499 -3181544 
3788.823 -3208811 -3224105 -3228183 -3222098 -3207167 -3184077 -3151907 
3792.198 -3106576 -3042783 -2953871 -2835907 -2690219 -2524915 -2355856 
3795.573 -2202326 -2081322 -2001382 -1957514 -1931983 -1898764 -1834166 
3798.949 -1722135 -1562834 -1373815 -1191653 -1063128 -1027330 -1100873 
3802.324 -1266786 -1483326 -1696557 -1861715 -1953820 -1968201 -1922120 
3805.699 -1848914 -1793514 -1795164 -1876495 -2033868 -2241521 -2462749 
3809.074 -2662788 -2820172 -2924876 -2976347 -2978618 -2935408 -2847560 
3812.450 -2713302 -2531305 -2305136 -2047059 -1782361 -1545963 -1372626 
3815.825 -1286179 -1283635 -1335895 -1393731 -1410311 -1353832 -1214386 
3819.200 -1008653 -776662 -578003 -472168 -502617 -675574 -957809 -1288954 
3823.058 -1605784 -1863991 -2041222 -2138696 -2174040 -2175029 -2169985 
3826.433 -2178359 -2207535 -2249861 -2288393 -2303126 -2279724 -2213403 
3829.808 -2110768 -1986276 -1858977 -1745666 -1655002 -1586439 -1530115 
3833.183 -1472231 -1399313 -1302796 -1181376 -1040189 -890458 -744612 
3836.559 -616881 -519264 -460517 -445126 -472797 -539815 -639115 -762241 
3840.416 -900940 -1046701 -1193767 -1338274 -1479859 -1621630 -1768502 
3843.791 -1924693 -2090687 -2261134 -2424496 -2565662 -2668748 -2720348 
3847.167 -2712907 -2643193 -2511013 -2316573 -2058239 -1732465 -1335103 
3850.542 -868601 -347370 195402 698496 1082279 1266737 1202407 900787 432415 
3854.881 -103730 -625153 -1081571 -1454795 -1748075 -1971071 -2131838 
3858.257 -2233346 -2274319 -2253520 -2173842 -2044883 -1882829 -1705435 
3861.632 -1530577 -1370710 -1234210 -1127015 -1055328 -1026504 -1045511 
3865.007 -1108970 -1200541 -1289747 -1341676 -1325193 -1224496 -1045577 
3868.382 -820319 -602786 -449561 -406000 -481832 -649471 -856299 -1049378 
3872.240 -1196543 -1291035 -1350231 -1404267 -1484251 -1607138 -1767941 
3875.615 -1941351 -2091973 -2186139 -2199392 -2124288 -1970147 -1763090 
3878.990 -1539261 -1340156 -1203680 -1150446 -1180087 -1268934 -1380156 
3882.365 -1471802 -1510403 -1481345 -1391353 -1270222 -1161384 -1113597 
3885.741 -1158773 -1299459 -1505615 -1727977 -1915423 -2028690 -2051379 
3889.116 -1989640 -1870524 -1732201 -1617899 -1564121 -1589113 -1691243 
3892.491 -1850794 -2040101 -2228501 -2389107 -2502481 -2553639 -2534138 
3895.866 -2441333 -2278538 -2056227 -1790149 -1502610 -1217558 -957048 
3899.242 -738195 -569267 -449363 -369949 -321016 -294859 -290024 -312606 
3903.099 -374187 -487062 -658040 -885167 -1154676 -1446572 -1736986 -2004482 
3906.957 -2234665 -2419554 -2557921 -2652842 -2710338 -2737404 -2740697 
3910.332 -2726999 -2701942 -2669275 -2630382 -2583119 -2522444 -2441333 
3913.707 -2333974 -2199095 -2041980 -1874450 -1714874 -1583039 -1494355 
3917.082 -1456909 -1469391 -1522884 -1604332 -1700947 -1802622 -1901568 
3920.458 -1990828 -2063746 -2113373 -2134212 -2125573 -2093094 -2049170 
3923.833 -2010782 -1995346 -2014113 -2069253 -2151687 -2245806 -2332887 
3927.208 -2396620 -2427066 -2420871 -2380671 -2313112 -2227347 -2134838 
3930.583 -2047092 -1977634 -1939273 -1942110 -1990663 -2081817 -2204634 
3933.958 -2342246 -2476421 -2592440 -2680636 -2738919 -2770526 -2781588 
3937.334 -2777605 -2761604 -2733124 -2688967 -2625672 -2542406 -2442387 
3940.709 -2334369 -2231006 -2146114 -2092237 -2076475 -2098403 -2149379 
3944.084 -2214886 -2279230 -2327317 -2350485 -2347288 -2323856 -2290799 
3947.459 -2261002 -2245806 -2252037 -2280515 -2327679 -2386998 -2451810 
3950.835 -2515559 -2574588 -2626265 -2669012 -2701777 -2723740 -2735132 
3954.210 -2736976 -2731938 -2723279 -2714290 -2707144 -2702666 -2699768 
3957.585 -2696344 -2689889 -2678792 -2662228 -2641283 -2618262 -2597183 
3960.960 -2581835 -2576433 -2583646 -2604034 -2635355 -2672963 -2710701 
3964.336 -2742343 -2762855 -2770362 -2766246 -2754064 -2738162 -2723081 
3967.711 -2711293 -2703522 -2699110 -2696739 -2695455 -2694533 -2693512 
3971.086 -2692129 -2689330 -2684390 -2676718 -2667102 -2657486 -2650735 
3974.461 -2649615 -2656300 -2670757 -2691767 -2716397 -2741849 -2765588 
3977.837 -2785836 -2801473 -2811975 -2816419 -2814641 -2807004 -2795251 
3981.212 -2782444 -2772074 -2766872 -2768353 -2775103 -2784189 -2791860 
3984.587 -2795054 -2792552 -2784913 -2774477 -2763118 -2752451 -2742475 
3987.962 -2732202 -2720612 -2707803 -2694829 -2683765 -2676322 -2673227 
3991.338 -2673589 -2675664 -2677409 -2677640 -2676718 -2676487 -2678957 
3994.713 -2685773 -2697529 -2713005 -2730292 -2746788 -2761011 -2772173 
3998.088 -2780601 -2787087 -2793111 -2799630 -2807860 -2818460 
##END=
