
##TITLE=Z140a_1_a
##JCAMP-DX=5.01  $$ Nicolet v. 1
##DATATYPE=INFRARED SPECTRUM
##ORIGIN=UniL
##OWNER=Nicolet
##LONGDATE=2011/09/20
##TIME=08:48:40
##SPECTROMETER/DATA SYSTEM=Nicolet iS5
##DATA PROCESSING=
Ratio against background
%Transmittance->Absorbance
Truncated
ElementMultiply or ElementDivide
##COMMENTS=
Number of sample scans: 32
Collection length: 51.11 sec
Sample gain: 2.0
Background collected on: Mar Sep 20 08:43:51 2011 (GMT+02:00);
Number of background scans: 32
Background gain: 2.0
Sample spacing:  1.000
Number of scan points: 12415
Resolution points: 8192
Number of FFT points: 65536
Apodization: N-B fort;
Phase correction: Mertz;
Laser frequency: 15798.0 cm-1
Number of rejected sample scans: 0
Number of rejected background scans: 0
Bench serial number: ASB1000141;
##RESOLUTION=4.000
##XUNITS=1/CM
##YUNITS=ABSORBANCE
##FIRSTX=649.893372
##LASTX=4000.122314
##FIRSTY=0.091816
##MAXX=4000.122314
##MINX=649.893372
##MAXY=0.504427
##MINY=-0.000441
##XFACTOR=1.000000
##YFACTOR=1.000000E-009
##NPOINTS=6950
##DELTAX=0.482117
##ZPD=6100
##XYDATA=(X++(Y..Y))
649.893 91816192 87900864 84884960 82736968 81376560 80689992 80537920 
653.268 80787040 81334880 82119424 83127200 84375600 85889576 87680960 
656.643 89745920 92076984 94682384 97602856 100913480 104700824 109057648 
660.018 114070072 119818680 126410488 133978664 142656880 152538224 
662.911 163594512 175633408 188243696 200846944 212723152 222916432 
665.803 230318352 233668112 231775024 224096592 211202000 194824112 
668.696 177119968 159919152 144261552 130434872 118363544 107860456 98766752 
672.071 91012704 84559008 79336248 75218120 72022848 69561008 67660432 
675.446 66202244 65113360 64338020 63822588 63505768 63321760 63222444 
678.820 63184924 63212060 63318692 63516588 63801288 64153700 64550028 
682.195 64976072 65432900 65936788 66505708 67147416 67854304 68606960 
685.570 69385912 70181816 71001296 71862208 72784608 73779576 74845480 
688.945 75972800 77155336 78397464 79720240 81153992 82731040 84478496 
692.320 86413296 88549856 90909424 93525264 96448656 99742872 103469096 
695.694 107685704 112441480 117780880 123760192 130461592 138004608 
698.587 146567216 156374000 167679840 180740064 195726064 212630000 
701.480 231101520 250374768 269133376 285481696 297328576 302652160 
704.373 300078944 289382752 271537856 248503952 222585088 196090784 
707.265 170873952 148103936 128451912 112088944 98850024 88391840 80283728 
710.640 74094128 69405160 65866060 63193052 61155072 59590580 58385380 
714.015 57458304 56754952 56230444 55844008 55561572 55355076 55206884 
717.390 55111100 55068856 55082060 55149092 55261704 55407624 55576368 
720.765 55762288 55966904 56195672 56453808 56741092 57052220 57377984 
724.139 57711060 58049624 58398608 58765740 59159568 59583476 60036064 
727.514 60512816 61009844 61526872 62067872 62638560 63242608 63879588 
730.889 64545220 65233400 65940180 66666536 67418568 68205016 69034640 
734.264 69912360 70839912 71816664 72842720 73920816 75057704 76262160 
737.639 77545456 78918696 80393320 81981768 83696448 85550520 87557024 
741.013 89727144 92072640 94607720 97351376 100332160 103589624 107172440 
744.388 111142480 115570712 120535488 126130848 132459296 139632656 
747.281 147775584 157012176 167464544 179242944 192429072 207048144 
750.174 223016240 240106240 257848176 275466144 291952512 306036032 
753.066 316391200 321929600 321928832 316236288 305253440 289838784 
755.959 271105376 250204176 228261920 206223488 184831504 164695888 
758.852 146244096 129771608 115472536 103400648 93496368 85591920 79445048 
762.227 74768880 71269408 68697112 66837752 65522588 64628920 64053504 
765.601 63712612 63542516 63491732 63526520 63627204 63780716 63976748 
768.976 64205364 64457580 64730324 65029340 65369384 65768048 66239676 
772.351 66789052 67409864 68088568 68812280 69574384 70378728 71235600 
775.726 72155768 73145840 74206256 75333216 76525040 77786120 79128272 
779.101 80568312 82123136 83804216 85619560 87576160 89686848 91977224 
782.475 94486408 97267512 100388608 103922904 107951240 112557136 117810864 
785.850 123754072 130370720 137567536 145142432 152782640 160117440 
788.743 166720240 172194448 176249248 178718704 179602048 179038880 
791.636 177285680 174645696 171417664 167889184 164297392 160841568 
794.528 157703568 155035312 152973440 151644256 151151392 151592016 
797.421 153060112 155642480 159426384 164486608 170866208 178548832 
800.314 187415264 197221552 207512576 217610352 226661600 233603872 
803.206 237374160 237107520 232263872 222835552 209345760 192784992 
806.099 174363136 155322016 136793936 119586904 104229568 90984464 79875928 
809.474 70790840 63525944 57847508 53507924 50270892 47936136 46323860 
812.849 45289080 44723140 44535680 44655196 45023344 45583868 46288068 
816.224 47096620 47978612 48915760 49899308 50924808 51988508 53084624 
819.598 54205172 55343444 56496676 57667732 58863320 60091692 61359652 
822.973 62670016 64023748 65422036 66869244 68374384 69949760 71606864 
826.348 73355672 75202552 77152216 79212248 81397184 83730072 86246520 
829.723 88988856 92006456 95355376 99093440 103284384 108000688 113318384 
833.098 119324200 126114504 133785960 142435488 152139152 162928368 
835.990 174744624 187391072 200510528 213499072 225539984 235678080 
838.883 242836160 246065696 244724592 238610096 228064656 213900016 
841.776 197272016 179383648 161364800 144163216 128412888 114519056 
844.669 102664208 92836088 84899712 78632680 73783776 70089648 67310776 
848.043 65254308 63755856 62689692 61962116 61494956 61229308 61121240 
851.418 61136648 61252084 61451020 61719020 62043752 62413748 62819248 
854.793 63254872 63719980 64216964 64749092 65316656 65915920 66539072 
858.168 67176464 67819632 68463872 69107752 69751408 70394312 71032744 
861.543 71660088 72269120 72854128 73412952 73947368 74461992 74961072 
864.917 75446696 75918696 76375248 76815000 77239168 77651152 78056224 
868.292 78460168 78866720 79278536 79697120 80124632 80564688 81022160 
871.667 81501696 82007064 82539944 83100560 83689416 84308320 84961552 
875.042 85655800 86397776 87193944 88050056 88971696 89966464 91046896 
878.417 92229344 93535408 94989344 96613152 98423600 100426400 102611032 
881.792 104943232 107359880 109773792 112066984 114109808 115783088 
884.684 116986224 117664736 117817208 117495032 116788944 115809520 
887.577 114675224 113485224 112318688 111238224 110289720 109515464 
890.470 108957576 108653296 108633896 108916360 109499688 110365968 
893.362 111484736 112822648 114346392 116029248 117853112 119805232 
896.255 121877624 124065848 126367528 128783744 131319464 133983864 
899.148 136788864 139747520 142872880 146175520 149663616 153343904 
902.040 157222176 161305216 165601744 170122320 174881440 179897712 
904.933 185194480 190804400 196770352 203144512 209992208 217385904 
907.826 225398480 234103552 243566096 253841904 264973616 276988192 
910.719 289888032 303627456 318100032 333100384 348279904 363169536 
913.611 377146592 389460864 399353216 406072736 408992224 407725856 
916.504 402156608 392497920 379260128 363218880 345297312 326415872 
919.397 307475168 289223008 272216544 256881984 243465520 232070656 
922.289 222693680 215227440 209492512 205253104 202258080 200247872 
925.182 198968720 198206592 197768832 197490960 197245024 196920400 
928.075 196428064 195704656 194704416 193402880 191793488 189881216 
930.967 187677600 185196464 182452608 179463280 176248960 172835808 
933.860 169252704 165528928 161692576 157767360 153774688 149736624 
936.753 145675008 141614288 137579728 133592728 129671904 125831840 
939.646 122082936 118435264 114897744 111478312 108182960 105014576 
942.538 101973096 99056976 96265624 93600432 91064632 88662040 86394336 
945.913 84259920 82253904 80370240 78603416 76950352 75410624 73984448 
949.288 72671240 71467824 70368712 69367536 68458208 67635920 66897152 
952.663 66238560 65656268 65145312 64701056 64320884 64005160 63758000 
956.037 63585164 63492352 63483676 63561036 63725696 63980892 64333684 
959.412 64796828 65389180 66133716 67058168 68196216 69585744 71273776 
962.787 73315704 75768288 78688960 82122864 86091400 90581160 95533784 
966.162 100846392 106357312 111865248 117146400 121954712 126066672 
969.055 129293456 131485816 132551416 132447168 131175224 128779560 
971.947 125345288 121003160 115917248 110296816 104385696 98427128 92671344 
975.322 87338072 82584904 78516064 75166704 72514512 70495720 69023840 
978.697 68008272 67357896 66993944 66851428 66873884 67019888 67258776 
982.072 67568984 67938216 68358912 68825208 69331616 69872192 70440608 
985.447 71032792 71647192 72284144 72945200 73630968 74340744 75072720 
988.821 75825808 76600960 77401656 78233736 79103712 80016376 80975880 
992.196 81985496 83050288 84179152 85386056 86690240 88117256 89695152 
995.571 91455672 93432064 95650928 98126240 100845304 103760968 106778560 
998.946 109761632 112558552 115013928 117014152 118517656 119568704 
1001.839 120297032 120888032 121567584 122544584 123987152 126016704 
1004.731 128695456 132043440 136052624 140702960 145967824 151812528 
1007.624 158193056 165035312 172220656 179586704 186899248 193856832 
1010.517 200122880 205307488 209021424 210932400 210781104 208451216 
1013.409 203993056 197632320 189735744 180751360 171179072 161470544 
1016.302 152007392 143097824 134940624 127654392 121288656 115833144 
1019.195 111238992 107432088 104331552 101854944 99926760 98485784 97478424 
1022.570 96859776 96594360 96649200 96996840 97614312 98479672 99571272 
1025.945 100864368 102325512 103912968 105576632 107255776 108890464 
1028.838 110424456 111811616 113026688 114067792 114960296 115752424 
1031.731 116515008 117333112 118288840 119458584 120895736 122618712 
1034.624 124605056 126785752 129054072 131259440 133230608 134797104 
1037.517 135793360 136093376 135622032 134360272 132347880 129673600 
1040.410 126465976 122861616 118996280 114990048 110930600 106883736 
1043.303 102897872 99009856 95257784 91682648 88323568 85218256 82395032 
1046.678 79868560 77641640 75704384 74038400 72616648 71407872 70379232 
1050.053 69496296 68729096 68053728 67452432 66914664 66434732 66008948 
1053.429 65633564 65303712 65013752 64758672 64535036 64341060 64176320 
1056.804 64040332 63931756 63848032 63786404 63744844 63723004 63721820 
1060.179 63743004 63787780 63856596 63948804 64064524 64205168 64374372 
1063.554 64577632 64821600 65111860 65453008 65848320 66300540 66813016 
1066.930 67390248 68037608 68760384 69562792 70446888 71412520 72457976 
1070.305 73580448 74776632 76043264 77377024 78774952 80234664 81755128 
1073.680 83337456 84985208 86705128 88507200 90403960 92411136 94548480 
1077.055 96838568 99308192 101989184 104915008 108122440 111647400 115518528 
1080.431 119752408 124342472 129253160 134406592 139682048 144927360 
1083.324 149952032 154560336 158574016 161840112 164265520 165825456 
1086.217 166574976 166641984 166222976 165574480 164962736 164659968 
1089.110 164917872 165926192 167818224 170647296 174379728 178878080 
1092.003 183889136 189063632 193915360 197871872 200355904 200806704 
1094.896 198827712 194268064 187255568 178188496 167652160 156356848 
1097.789 144971216 134064928 124075680 115246864 107672584 101324248 
1100.682 96091840 91822296 88347288 85513928 83177432 81211064 79513760 
1104.057 77999120 76603608 75286520 74023592 72804240 71626560 70492824 
1107.433 69408664 68382848 67429832 66567616 65815008 65189084 64698564 
1110.808 64343364 64115948 64005352 64000748 64093596 64278044 64547412 
1114.183 64892428 65301404 65761344 66261792 66797868 67370088 67982576 
1117.558 68639248 69340784 70084696 70867176 71686736 72546784 73455648 
1120.934 74424192 75460928 76569856 77748912 78993248 80297120 81657064 
1124.309 83072592 84545280 86078920 87680392 89365456 91164152 93123152 
1127.684 95313816 97829040 100777024 104292248 108526000 113637144 119789432 
1131.059 127103760 135607184 145150112 155354016 165570000 174854784 
1133.952 182176112 186554288 187306304 184283456 177911760 169127824 
1136.845 159069184 148929104 139707200 132040512 126270864 122434456 
1139.739 120354688 119709280 120108120 121162992 122479256 123719792 
1142.632 124626544 125022336 124847336 124152048 123085560 121846304 
1145.525 120643304 119660784 119014888 118761976 118905776 119419584 
1148.418 120264864 121403584 122805600 124441968 126284120 128306072 
1151.311 130485384 132809344 135276736 137892592 140659808 143569968 
1154.204 146596512 149697904 152826688 155936928 158997984 161995984 
1157.097 164930864 167809376 170637712 173418896 176154256 178848624 
1159.990 181514928 184173456 186849920 189568832 192347440 195197968 
1162.883 198130624 201159376 204309792 207617680 211123536 214869552 
1165.776 218890784 223214160 227863952 232865792 238252096 244063520 
1168.669 250341184 257119648 264419056 272243136 280580576 289410880 
1171.562 298714496 308469376 318646688 329206368 340079488 351169184 
1174.455 362366848 373555104 384636288 395546848 406251424 416735360 
1177.348 426985056 436971520 446646208 455945984 464798464 473127424 
1180.241 480843648 487822784 493897536 498847936 502413024 504345952 
1183.135 504427424 502496608 498469984 492318304 484068608 473808192 
1186.028 461694624 447970176 432947072 417002368 400522272 383850976 
1188.921 367290944 351065408 335328736 320194176 305728608 291966176 
1191.814 278913536 266546192 254818496 243673168 233055680 222923728 
1194.707 213252144 204028624 195248320 186905312 178990096 171494032 
1197.600 164416624 157769936 151587136 145918640 140823008 136369552 
1200.493 132624656 129646792 127490792 126196296 125786600 126264392 
1203.386 127607536 129767176 132664768 136205072 140272640 144737552 
1206.279 149474624 154355264 159256704 164075952 168722192 173129424 
1209.172 177264816 181131120 184772160 188263328 191712896 195240144 
1212.065 198958240 202970848 207349776 212128912 217295712 222786224 
1214.958 228480736 234195696 239711520 244774912 249119472 252514832 
1217.851 254766288 255731552 255325472 253497744 250226048 245512944 
1220.744 239387648 231918080 223214480 213434864 202771584 191431792 
1223.637 179640976 167620144 155578288 143725584 132245616 121293864 
1226.531 111001784 101456400 92713792 84804680 77733688 71488528 66039616 
1229.906 61341716 57334004 53944728 51102184 48734864 46780256 45189392 
1233.281 43919940 42936216 42207588 41703596 41397036 41265916 41291788 
1236.656 41461112 41762616 42182940 42706136 43312760 43980324 44688392 
1240.031 45418844 46157124 46892080 47613644 48310780 48972984 49590068 
1243.407 50155884 50670052 51138972 51574484 51990560 52402404 52824892 
1246.782 53272884 53765552 54327568 54989800 55791712 56776248 57988612 
1250.157 59478172 61292452 63478656 66079468 69120224 72596360 76451896 
1253.532 80573984 84771248 88782464 92323880 95100568 96879448 97543416 
1256.908 97110520 95741248 93689472 91278440 88817712 86553848 84662840 
1260.283 83223304 82239288 81667064 81449736 81541360 81921752 82598368 
1263.658 83596664 84946800 86669280 88768000 91226032 94010424 97069128 
1267.033 100334880 103731848 107168024 110544536 113766680 116741208 
1269.927 119393848 121677152 123572544 125095072 126289472 127229424 
1272.820 128004448 128715648 129475880 130393448 131575080 133121608 
1275.713 135112176 137607344 140642816 144228896 148354064 152989088 
1278.606 158096064 163626304 169525008 175736112 182190624 188811200 
1281.499 195512560 202193120 208746432 215066896 221047312 226593696 
1284.392 231626608 236082864 239927216 243158240 245821856 248007728 
1287.285 249854240 251535296 253222400 255077568 257224864 259731120 
1290.178 262607872 265806320 269230240 272730464 276122368 279211328 
1293.071 281792800 283698208 284823104 285143072 284727808 283727232 
1295.964 282362048 280874304 279509504 278506144 278058080 278321248 
1298.857 279400960 281335104 284089824 287549024 291534976 295802304 
1301.750 300070336 304073504 307557056 310314592 312202368 313122272 
1304.643 313028320 311918752 309831584 306835680 303017760 298471232 
1307.536 293274752 287485856 281142368 274269376 266891872 259043520 
1310.429 250766928 242112480 233133536 223882240 214416784 204806112 
1313.323 195127856 185472960 175932912 166584896 157495232 148712480 
1316.216 140272192 132211056 124566776 117377264 110680728 104503696 
1319.109 98858472 93743000 89142976 85036344 81395224 78188152 75376808 
1322.484 72914904 70752232 68833368 67101940 65508172 64004280 62546320 
1325.859 61096484 59617756 58080228 56465204 54767564 52999040 51183668 
1329.234 49354984 47545620 45782192 44084796 42466564 40937272 39506416 
1332.610 38181588 36967640 35863396 34861328 33949548 33115126 32349300 
1335.985 31648290 31012354 30442168 29934990 29482974 29075782 28703804 
1339.360 28363408 28058942 27800574 27599448 27461804 27387298 27369018 
1342.735 27397496 27464628 27566648 27703266 27875680 28083828 28324716 
1346.111 28593094 28885222 29201146 29546278 29929878 30362494 30852384 
1349.486 31403412 32016952 32694228 33439476 34262048 35175020 36192004 
1352.861 37325100 38582600 39969864 41492464 43159320 44984756 46990612 
1356.236 49201848 51645604 54348216 57331208 60610944 64195528 68085120 
1359.612 72265872 76705992 81356104 86136456 90940016 95643160 100109432 
1362.987 104218792 107889720 111087360 113822744 116134096 118067480 
1365.880 119657864 120922784 121866880 122490728 122800768 122814440 
1368.773 122555616 122049712 121315248 120358360 119172808 117739296 
1371.666 116027688 113995280 111591568 108771184 105505112 101802288 
1374.559 97717168 93345504 88801816 84192424 79607840 75111160 70751536 
1377.934 66580980 62653252 59024456 55741420 52824812 50267172 48037344 
1381.310 46096288 44408968 42953080 41718916 40699436 39881160 39240568 
1384.685 38744352 38357452 38053424 37816948 37645636 37544944 37520488 
1388.060 37573812 37702300 37904184 38182056 38543636 38999064 39554432 
1391.435 40208968 40952784 41772576 42655360 43593936 44588588 45644628 
1394.811 46766268 47952156 49196804 50494040 51843100 53251720 54734152 
1398.186 56305956 57977672 59749444 61612320 63555324 65573336 67671576 
1401.561 69864768 72170832 74602656 77160280 79829496 82581416 85377544 
1404.936 88177944 90943168 93636064 96222120 98667136 100939688 103017864 
1408.312 104891464 106569856 108081936 109477688 110819656 112172976 
1411.205 113603824 115167112 116906896 118859816 121053160 123504808 
1414.098 126219648 129184856 132365048 135694000 139083104 142401088 
1416.991 145465456 148054400 149896704 150723760 150349104 148719856 
1419.884 145939632 142210176 137758480 132771056 127379032 121700000 
1422.777 115862992 110035352 104442672 99309024 94812152 91044944 87995432 
1426.152 85577672 83672064 82171464 80995888 80095856 79445528 79024520 
1429.527 78811496 78785192 78928592 79235424 79707984 80347712 81143520 
1432.903 82066096 83061480 84060640 84988592 85762520 86309128 86571928 
1436.278 86524488 86178992 85580296 84788408 83854488 82813624 81688016 
1439.653 80494088 79254720 78005904 76792536 75673584 74716296 73987832 
1443.028 73560936 73504856 73876464 74721376 76066832 77926848 80308480 
1446.404 83218528 86663584 90642512 95141896 100141136 105635120 111656648 
1449.779 118295368 125687512 133965552 143198800 153322032 164135088 
1452.672 175291472 186373216 196998416 206772208 215279664 222039968 
1455.565 226458384 227989584 226402304 222043120 215749888 208462160 
1458.458 200864336 193218544 185494800 177551952 169280352 160646272 
1461.351 151676016 142385920 132765608 122786264 112448728 101873632 
1464.244 91346072 81259608 72024880 63925228 57047876 51314308 46553180 
1467.619 42585512 39263420 36485364 34179592 32280088 30715448 29410460 
1470.995 28294372 27327026 26505642 25859426 25427266 25232362 25273240 
1474.370 25534570 26005958 26698650 27645280 28898750 30520824 32569352 
1477.745 35103092 38175076 41824052 46054472 50801320 55906300 61076424 
1481.120 65930268 70068728 73137600 74938392 75445392 74789536 73189840 
1484.496 70898144 68153384 65127992 61938920 58647888 55273256 51811704 
1487.871 48252456 44592516 40847716 37066176 33333204 29768036 26498950 
1491.246 23627048 21208560 19239404 17669200 16421286 15416036 14586938 
1494.621 13885432 13286203 12778593 12357065 12014627 11738460 11513264 
1497.997 11328824 11181858 11075865 11015741 11004356 11040007 11118898 
1501.372 11238639 11401950 11616403 11892390 12238891 12659280 13146429 
1504.747 13682405 14238697 14777497 15262740 15670609 15998205 16258210 
1508.122 16470978 16655963 16826286 16991436 17156788 17324444 17493026 
1511.498 17658708 17818134 17971542 18124346 18285844 18464828 18663738 
1514.873 18875544 19081912 19260982 19396190 19485346 19543190 19594212 
1518.248 19660178 19747136 19841118 19909204 19913922 19827278 19649676 
1521.623 19412994 19168860 18962794 18813846 18715970 18646962 18583498 
1524.999 18508774 18418054 18315636 18209512 18105002 18003418 17904932 
1528.374 17813750 17740606 17701364 17709610 17770462 17874720 18001414 
1531.749 18120686 18203360 18232766 18211100 18161728 18117230 18109320 
1535.124 18157928 18269360 18442806 18672766 18952410 19267078 19592026 
1538.500 19891722 20124256 20260080 20298756 20275288 20240604 20238558 
1541.875 20289070 20386222 20509520 20636570 20755626 20867694 20985878 
1545.250 21126424 21303276 21522326 21781898 22077218 22403824 22759794 
1548.625 23143034 23549980 23974744 24410650 24855026 25312364 25794584 
1552.000 26316872 26891110 27520506 28197342 28906432 29632720 30370988 
1555.376 31126816 31910848 32728632 33565176 34374104 35083052 35610632 
1558.751 35916624 36037172 36079656 36155092 36321600 36585236 36917564 
1562.126 37285060 37661536 38038304 38421740 38827680 39273720 39773008 
1565.501 40332936 40957588 41653484 42432036 43307232 44290588 45384264 
1568.877 46579844 47862028 49219920 50652252 52169792 53782504 55486340 
1572.252 57253064 59028672 60741860 62293872 63575344 64474916 64889544 
1575.627 64760752 64100468 62999828 61592616 60010804 58352860 56672264 
1579.002 54996568 53346572 51744136 50224916 48834184 47614236 46601092 
1582.378 45814152 45254952 44910196 44755752 44763984 44905496 45156488 
1585.753 45501772 45933432 46448776 47046328 47721620 48467936 49280044 
1589.128 50159604 51118844 52180852 53376544 54734676 56279248 58027580 
1592.503 59990792 62175980 64584240 67204928 70003952 72920304 75879040 
1595.879 78806728 81673656 84521208 87486744 90790280 94704216 99546984 
1599.254 105628568 113243768 122673776 134154944 147856016 163794016 
1602.147 181754864 201126240 220762368 239103216 254181440 264010816 
1605.040 267115088 262768480 251243776 233663264 211808848 187707808 
1607.933 163216320 139935968 118936232 100761600 85584456 73265568 63501320 
1611.308 55905092 50088764 45689904 42381364 39904004 38045832 36634296 
1614.684 35541868 34664512 33927584 33296532 32771792 32383210 32165858 
1618.059 32139632 32297042 32608568 33031672 33524438 34054396 34597980 
1621.434 35142720 35682280 36211488 36724576 37217152 37692328 38161544 
1624.809 38644164 39160496 39722648 40329736 40968112 41618660 42265836 
1628.185 42908236 43560124 44247660 44996188 45818828 46713796 47667256 
1631.560 48663400 49687872 50734320 51801024 52881584 53959252 55005596 
1634.935 55987256 56884752 57708184 58498948 59301216 60143672 61024560 
1638.310 61917636 62783600 63587620 64314544 64970844 65582080 66178128 
1641.686 66781908 67398984 68020592 68629272 69209736 69753824 70258000 
1645.061 70721160 71141168 71521848 71882416 72268296 72750208 73395968 
1648.436 74251264 75323328 76583288 77973032 79415208 80837760 82168896 
1651.811 83363832 84424248 85423080 86480616 87693608 89112056 90729272 
1655.187 92516664 94453744 96530128 98741416 101078248 103530120 106086832 
1658.562 108741264 111499432 114377304 117394416 120568768 123909976 
1661.455 127420840 131102264 134961424 139014000 143271104 147739968 
1664.348 152411616 157266000 162277872 167430368 172729872 178195488 
1667.241 183867120 189797088 196038336 202634208 209607088 216964304 
1670.134 224681216 232714720 241017392 249550992 258302624 267291248 
1673.027 276578400 286226784 296256128 306591712 317015072 327193952 
1675.920 336783936 345535648 353341440 360192864 366099552 371037856 
1678.813 374955456 377804320 379609440 380481568 380583648 380023200 
1681.706 378768960 376610208 373224992 368349152 362039168 354817312 
1684.599 347539840 340972256 335427680 330757632 326549248 322384832 
1687.492 317947968 313093344 307817056 302203552 296356640 290356960 
1690.385 284272928 278178720 272166784 266337360 260730864 255274272 
1693.279 249746336 243808128 237099472 229420112 220923616 212153232 
1696.172 203830368 196460624 190122672 184448288 178820768 172529392 
1699.065 165020384 156155056 146369072 136563040 127619576 119987208 
1701.958 113574944 108001408 102839088 97784928 92698704 87591968 82570560 
1705.333 77774192 73324056 69287192 65687984 62528908 59802752 57487808 
1708.708 55534272 53863364 52378220 50995712 49676248 48429228 47299336 
1712.083 46329688 45536396 44890796 44334948 43807116 43278128 42763864 
1715.459 42315688 41984752 41788116 41690796 41627996 41544928 41437824 
1718.834 41356104 41371084 41532460 41840360 42248820 42685736 43087892 
1722.209 43418500 43682632 43914992 44158776 44437744 44746828 45061240 
1725.584 45360432 45647460 45956232 46336912 46833840 47465924 48219504 
1728.960 49060524 49956628 50900368 51914676 53042428 54323960 55778224 
1732.335 57393408 59137396 60972860 62885804 64889000 67021936 69316224 
1735.710 71775696 74390920 77154392 80081952 83217248 86631016 90399840 
1739.085 94577152 99169200 104141000 109449080 115080432 121079384 127542688 
1742.461 134580880 142283088 150680160 159742272 169384528 179496176 
1745.354 189976144 200708016 211546080 222296272 232662016 242264048 
1748.247 250682736 257468880 262225680 264660352 264631600 262206288 
1751.140 257669872 251496880 244215424 236302048 228105216 219798240 
1754.033 211434032 202998848 194463776 185850016 177258432 168854448 
1756.926 160844032 153405280 146631392 140521072 134988592 129907248 
1759.819 125146912 120618592 116297896 112231792 108517280 105258592 
1762.712 102525648 100323272 98594744 97238160 96139376 95184512 94267552 
1766.087 93301464 92212544 90948272 89485664 87829952 86006208 84038720 
1769.463 81931752 79654640 77147856 74342784 71204400 67769400 64159728 
1772.838 60548580 57094396 53887520 50930284 48165416 45516780 42930000 
1776.213 40390856 37925912 35577612 33382830 31353586 29473046 27710682 
1779.588 26041770 24464348 22999354 21677466 20518622 19519310 18651840 
1782.964 17877826 17161718 16486157 15852813 15275816 14768173 14332280 
1786.339 13958408 13632518 13345514 13099199 12904083 12771393 12703187 
1789.714 12686333 12693292 12690666 12654913 12579937 12481002 12384407 
1793.089 12314625 12282006 12282312 12304604 12341555 12395146 12475955 
1796.465 12596276 12761771 12967473 13198446 13436821 13669377 13892684 
1799.840 14112546 14336184 14564767 14789701 14994446 15163294 15288239 
1803.215 15371649 15423384 15453906 15465854 15451914 15397051 15286078 
1806.590 15112413 14880900 14606058 14303925 13985201 13650332 13291190 
1809.966 12898997 12473363 12026311 11580671 11160134 10779948 10441567 
1813.341 10134956 9845440 9563739 9291056 9038198 8818860 8640361 8499371 
1817.198 8382780 8275847 8169277 8065806 7977173 7917679 7894633 7904823 
1821.056 7935159 7971368 8005050 8037216 8075965 8129843 8200711 8280642 
1824.913 8356129 8417136 8464569 8512954 8583107 8691536 8841685 9020471 
1828.771 9203629 9365364 9492581 9590872 9682917 9794231 9941066 10124103 
1832.628 10331139 10545368 10754303 10955388 11153947 11357427 11567093 
1836.003 11774239 11961900 12113865 12221033 12286982 12324954 12352123 
1839.378 12380453 12412228 12441618 12459451 12460065 12443460 12414001 
1842.754 12375066 12324682 12254329 12155025 12025460 11877815 11736111 
1846.129 11627770 11570768 11569067 11610719 11675759 11744281 11805698 
1849.504 11861607 11922188 11996506 12084872 12175607 12249524 12289573 
1852.879 12287936 12250206 12189578 12120271 12046478 11960912 11848259 
1856.255 11695161 11498498 11268801 11025359 10787047 10563836 10352686 
1859.630 10141740 9919200 9683188 9443139 9217200 9021012 8861265 8731528 
1863.487 8618155 8507277 8394402 8286417 8197369 8138554 8110432 8099056 
1867.345 8081164 8035663 7952302 7838220 7713544 7601110 7513786 7450614 
1871.202 7401270 7354323 7305124 7258862 7225676 7214963 7227225 7253505 
1875.060 7278573 7290736 7287501 7278573 7279920 7304349 7355233 7424054 
1878.917 7495650 7556671 7603572 7644104 7693308 7763700 7858160 7968095 
1882.774 8078328 8175489 8254537 8322116 8390551 8470381 8563168 8659491 
1886.632 8743665 8802968 8832217 8836918 8827990 8815411 8800872 8777779 
1890.489 8735890 8669936 8584662 8494538 8415413 8357818 8319245 8286215 
1894.347 8239915 8166576 8065941 7950647 7840143 7749263 7681605 7627884 
1898.204 7573057 7505291 7424223 7340742 7271261 7228203 7211695 7209303 
1902.062 7202464 7176896 7129030 7068642 7011360 6971190 6951190 6943210 
1905.919 6933447 6911462 6876317 6837304 6807213 6794390 6795534 6797183 
1909.776 6781903 6738456 6669576 6590714 6521521 6476822 6459300 6458796 
1913.634 6461150 6455500 6442149 6432027 6439156 6470667 6520445 6570295 
1917.491 6598856 6593103 6556840 6508740 6473291 6467540 6492461 6533327 
1921.349 6568412 6581295 6568311 6540660 6516678 6512608 6532015 6566359 
1925.206 6600908 6626073 6643702 6667624 6715540 6799001 6915570 7050860 
1929.063 7183431 7296936 7387721 7464940 7542645 7630379 7725821 7815110 
1932.921 7882823 7919029 7928511 7927870 7938229 7972786 8029891 8094059 
1936.778 8145204 8170729 8172450 8165563 8170088 8199226 8250755 8308302 
1940.636 8349306 8358257 8334208 8292057 8250620 8224585 8213171 8202231 
1944.493 8173869 8117554 8038093 7953888 7886872 7849657 7839198 7837815 
1948.351 7824927 7786841 7727440 7663933 7618105 7602155 7611664 7626771 
1952.208 7625557 7594333 7537858 7475356 7430559 7417919 7434469 7460727 
1956.065 7474345 7463861 7436188 7415796 7431031 7500639 7621005 7769941 
1959.923 7916734 8041705 8144901 8245690 8369438 8532654 8734571 8957553 
1963.780 9178280 9381039 9566246 9747567 9941642 10152932 10368635 10561325 
1967.638 10703699 10781646 10801720 10784635 10754575 10720849 10672829 
1971.013 10584139 10429042 10197164 9902216 9577085 9257748 8968613 8712023 
1974.870 8472172 8230089 7981695 7742416 7541802 7406258 7341652 7325140 
1978.728 7318131 7281066 7195356 7068507 6928330 6805698 6717458 6660087 
1982.585 6613827 6558555 6484053 6399106 6325236 6284591 6285969 6320933 
1986.443 6367028 6403107 6421636 6432968 6459267 6522900 6632498 6776754 
1990.300 6930888 7070023 7181780 7272878 7364130 7476300 7620027 7788392 
1994.157 7963033 8124543 8265243 8391564 8520354 8665171 8826333 8986033 
1998.015 9116253 9189550 9191750 9128705 9019524 8887473 8746235 8594496 
2001.872 8421900 8219418 7989829 7751523 7532599 7359580 7241511 7168609 
2005.730 7115456 7056922 6982099 6898704 6826566 6784394 6776821 6789476 
2009.587 6797183 6777326 6724120 6651474 6587081 6554687 6564173 6604844 
2013.445 6653930 6689596 6703224 6703930 6712175 6745052 6805631 6878640 
2017.302 6940012 6970516 6968664 6953243 6952941 6994019 7085010 7213413 
2021.159 7353582 7483480 7594940 7698198 7814064 7960704 8139566 8335558 
2025.017 8521401 8674060 8786704 8871038 8950348 9044288 9158483 9279682 
2028.874 9386491 9459089 9494206 9506398 9520961 9559539 9629523 9720763 
2032.732 9812938 9888047 9939574 9974324 10005618 10041527 10076623 10094665 
2036.589 10076658 10015247 9921234 9822394 9749091 9722864 9743161 9790096 
2040.447 9831714 9842831 9815073 9760105 9701585 9661572 9650867 9665434 
2044.304 9691183 9715986 9737875 9765967 9815683 9897098 10007483 10130750 
2048.161 10245639 10333378 10386485 10410614 10417538 10416723 10410512 
2051.537 10393408 10358421 10304877 10241806 10185664 10152796 10152457 
2054.912 10179388 10217177 10245029 10248896 10227557 10192075 10158223 
2058.287 10137839 10131768 10130004 10117557 10082762 10024063 9950491 
2061.662 9875641 9808329 9748820 9687795 9612043 9512968 9392957 9263874 
2065.520 9143154 9043882 8968816 8910167 8855989 8796747 8731427 8667841 
2069.377 8618561 8592131 8589630 8602845 8620149 8633229 8641374 8651650 
2073.235 8673350 8712293 8765844 8824508 8875299 8909659 8927822 8937766 
2077.092 8950653 8975210 9012589 9057550 9101974 9140954 9174659 9209855 
2080.949 9253991 9309910 9374234 9437484 9490617 9528785 9555001 9578135 
2084.807 9608216 9650494 9702195 9753971 9795315 9820089 9829782 9832460 
2088.664 9837408 9850423 9870659 9891335 9904522 9907031 9902386 9900318 
2092.522 9910217 9936557 9975273 10016435 10047800 10061839 10059736 
2095.897 10049360 10040408 10038475 10041696 10041866 10030913 10004364 
2099.272 9966187 9926014 9895098 9879369 9876726 9878523 9874285 9857846 
2103.130 9829544 9795484 9763019 9734860 9707379 9672008 9619361 9546058 
2106.987 9456074 9359371 9266481 9183458 9108910 9035864 8955929 8865729 
2110.844 8768447 8672844 8587805 8516941 8456461 8397138 8329817 8249843 
2114.702 8161072 8073299 7997760 7941334 7902967 7875535 7851074 7824118 
2118.559 7795645 7771695 7758674 7759147 7770076 7783333 7791665 7792643 
2122.417 7790282 7792812 7807419 7836027 7872195 7904688 7922505 7920615 
2126.274 7903237 7881305 7865751 7863659 7873747 7888188 7897939 7898581 
2130.132 7893283 7891698 7904519 7937859 7989998 8053181 8118163 8179879 
2133.989 8240185 8305668 8382780 8472172 8566548 8653712 8723246 8772098 
2137.846 8806856 8840130 8882773 8938408 9000748 9056433 9092128 9102989 
2141.704 9094598 9079508 9069865 9071354 9078932 9082011 9069053 9036777 
2145.561 8991581 8947338 8915376 8899277 8890620 8873473 8833299 8764221 
2149.419 8671694 8569995 8472645 8385010 8302189 8212260 8104659 7979400 
2153.276 7848780 7730948 7643531 7593861 7574945 7572315 7574304 7579429 
2157.134 7602560 7665114 7782928 7953550 8154287 8349812 8507075 8612882 
2160.991 8673858 8711955 8750156 8800973 8863903 8928566 8983768 9025850 
2164.848 9060020 9096120 9140041 9188941 9229587 9245867 9228877 9180649 
2168.706 9116456 9056603 9017731 9004300 9009307 9017798 9018171 9009713 
2172.563 9003692 9016343 9061880 9143323 9250775 9365973 9470806 9556389 
2176.421 9623967 9682273 9738858 9796128 9848932 9890081 9916013 9932488 
2180.278 9951677 9988056 10048546 10127054 10205135 10261483 10280244 
2183.653 10258938 10209138 10148522 10094326 10053937 10024437 9996939 
2187.029 9966729 9936049 9916387 9921471 9959339 10026539 10109825 10189497 
2190.886 10250694 10289337 10313597 10337586 10374370 10429450 10498454 
2194.261 10572426 10644068 10712698 10785246 10871395 10976354 11097007 
2197.636 11221061 11333041 11421918 11485433 11531195 11571993 11618582 
2201.012 11672492 11727873 11774239 11803077 11813665 11813358 11812746 
2204.387 11820407 11837329 11856295 11866102 11858814 11833651 11798208 
2207.762 11764639 11742647 11736452 11742885 11755208 11768349 11782955 
2211.137 11804745 11840699 11894093 11960401 12028730 12087222 12127664 
2214.513 12151107 12166202 12185830 12219328 12269088 12329658 12391089 
2217.888 12446017 12491675 12530314 12567932 12606986 12644884 12674700 
2221.263 12688858 12684525 12666819 12647135 12638437 12649558 12681454 
2224.638 12727820 12778456 12825788 12868142 12909476 12955764 13008988 
2228.014 13064881 13113678 13144039 13149058 13129934 13095135 13057506 
2231.389 13027254 13008441 12997584 12988538 12974847 12954160 12929616 
2234.764 12905346 12884286 12865617 12844319 12815039 12775761 12730038 
2238.139 12686197 12652935 12635776 12633626 12639903 12645771 12645157 
2241.515 12637720 12628578 12624519 12631751 12651604 12680704 12714446 
2244.890 12749214 12784872 12824082 12870668 12924735 12983279 13040672 
2248.265 13090935 13132392 13168014 13203638 13244867 13294129 13347667 
2251.640 13398068 13438017 13463957 13477458 13485011 13492941 13504869 
2255.016 13519533 13531326 13534675 13527019 13511091 13493453 13480567 
2258.391 13476022 13477867 13480909 13478858 13469152 13453840 13439350 
2261.766 13432037 13435284 13447484 13462829 13475544 13483131 13487472 
2265.141 13495060 13512628 13543393 13585133 13630980 13673276 13707026 
2268.517 13732366 13754152 13779665 13814759 13860835 13915880 13975312 
2271.892 14035642 14095124 14154341 14213908 14273073 14328239 14375295 
2275.267 14411052 14436194 14455343 14476239 14505975 14548116 14601021 
2278.642 14659347 14717098 14769476 14816682 14861185 14906995 14956755 
2282.018 15009469 15061779 15109874 15151457 15186867 15219294 15251998 
2285.393 15286626 15322047 15355137 15381946 15400931 15412225 15418577 
2288.768 15422971 15426748 15429151 15428087 15421529 15409308 15393309 
2292.143 15377415 15364783 15356716 15351979 15347516 15340514 15330354 
2295.519 15318649 15308696 15304509 15306876 15314736 15324896 15334267 
2298.894 15341441 15347756 15356201 15369829 15390289 15416346 15444841 
2302.269 15472789 15498302 15521824 15545519 15571654 15601087 15632480 
2305.644 15662914 15689468 15710905 15728185 15744265 15762063 15783502 
2309.020 15807968 15833741 15858896 15882369 15905637 15931655 15963485 
2312.395 16002880 16049637 16101589 16156130 16211122 16265949 16321231 
2315.770 16377725 16435361 16492799 16548246 16599985 16647942 16693871 
2319.145 16740426 16790224 16844334 16901756 16959462 17013938 17061560 
2322.521 17099608 17126250 17140138 17140382 17126698 17100400 17065248 
2325.896 17026754 16992298 16969076 16961598 16970970 16994502 17027340 
2329.271 17063696 17100022 17134832 17169128 17204770 17242384 17281446 
2332.646 17320064 17356444 17389622 17420316 17451116 17484368 17522074 
2336.021 17564956 17612570 17664402 17719932 17779506 17842716 17908764 
2339.397 17974996 18038128 18094982 18143900 18185430 18222124 18256644 
2342.772 18290234 18321340 18346120 18360326 18360706 18348366 18328424 
2346.147 18309968 18303194 18316948 18357768 18428666 18529070 18656372 
2349.522 18806096 18972450 19147736 19323818 19492104 19644788 19777306 
2352.898 19887976 19978622 20052562 20114192 20166182 20210092 20246124 
2356.273 20274316 20295388 20311290 20323928 20335492 20347054 20359380 
2359.648 20373064 20388828 20407928 20431614 20459920 20491110 20522442 
2363.023 20550790 20574656 20595708 20618190 20647724 20689804 20747008 
2366.399 20818332 20900236 20988068 21078074 21168726 21260022 21352554 
2369.774 21446118 21538830 21627976 21710590 21785904 21855274 21921796 
2373.149 21988816 22058532 22130630 22203368 22273778 22339876 22401276 
2376.524 22458914 22514118 22567828 22619416 22667274 22709866 22746804 
2379.900 22779380 22810738 22844404 22883066 22928020 22978916 23034676 
2383.275 23094390 23158270 23227372 23303194 23386582 23477330 23573942 
2386.650 23674842 23778950 23885956 23996138 24109570 24225416 24341326 
2390.025 24454324 24561110 24659994 24750484 24833486 24910256 24981178 
2393.401 25045550 25102030 25149284 25187134 25217296 25242334 25265442 
2396.776 25288516 25312294 25335932 25358552 25379874 25400670 25422452 
2400.151 25446728 25473712 25502420 25531304 25558502 25583980 25608864 
2403.526 25635472 25665840 25700642 25738716 25777988 25815752 25850670 
2406.902 25883164 25914642 25946192 25978306 26009438 26037196 26059572 
2410.277 26075934 26087508 26097254 26108340 26122556 26140500 26161052 
2413.652 26182626 26204376 26226758 26251010 26278184 26308846 26341656 
2417.027 26374752 26406792 26437392 26468310 26502154 26541742 26588378 
2420.403 26641890 26700026 26760422 26820792 26880536 26939300 26997440 
2423.778 27054564 27109930 27162412 27211868 27259106 27306490 27356526 
2427.153 27410556 27468368 27527674 27585430 27639172 27688010 27733252 
2430.528 27776942 27821628 27867944 27915570 27963096 28009602 28055444 
2433.904 28102350 28152336 28206676 28264490 28323442 28379822 28431220 
2437.279 28476998 28519490 28562306 28608912 28661506 28719874 28782040 
2440.654 28845736 28909798 28974434 29041312 29112134 29187574 29266854 
2444.029 29348170 29429608 29510068 29589584 29668902 29748556 29828258 
2447.405 29907550 29985542 30063088 30142456 30227170 30320390 30423474 
2450.780 30534794 30650552 30765204 30874726 30977872 31076380 31174126 
2454.155 31275634 31383612 31498488 31618782 31742136 31866812 31992198 
2457.530 32118548 32246004 32373536 32499250 32620284 32734632 32841940 
2460.906 32943692 33042610 33141158 33240874 33341006 33440300 33537324 
2464.281 33632264 33726648 33822804 33922784 34027120 34133960 34240284 
2467.656 34343368 34441924 34536736 34630492 34726316 34826788 34932708 
2471.031 35042748 35155152 35268016 35380620 35492860 35605524 35719116 
2474.406 35833672 35949016 36064824 36181200 36298872 36418660 36541080 
2477.782 36665624 36791648 36918288 37045176 37173076 37303328 37437264 
2481.157 37575036 37715852 37857796 37998816 38137780 38275340 38412908 
2484.532 38552436 38695196 38841160 38988872 39136640 39283692 39430324 
2487.907 39578240 39729364 39884428 40042816 40202392 40360968 40516948 
2491.283 40670548 40823836 40979144 41138804 41303484 41471944 41642616 
2494.658 41813800 41984500 42154720 42324892 42494444 42661976 42825368 
2498.033 42983004 43134548 43282008 43428716 43578916 43735616 43899780 
2501.408 44070016 44244100 44419320 44595048 44771844 44951060 45133952 
2504.784 45320488 45509056 45697080 45882276 46063648 46241664 46417872 
2508.159 46594048 46770808 46947860 47123732 47296716 47466112 47631688 
2511.534 47794072 47954080 48111592 48266456 48418224 48566344 48711584 
2514.909 48855092 48998392 49142736 49288840 49436588 49585836 49737248 
2518.285 49891392 50049568 50212564 50379568 50548940 50717712 50883452 
2521.660 51044528 51201336 51355516 51508780 51662588 51816704 51969684 
2525.035 52119020 52263324 52401992 52535996 52667680 52799220 52932220 
2528.410 53067848 53206252 53347584 53491696 53638740 53788988 53942440 
2531.786 54098800 54258592 54423028 54594172 54774820 54967352 55172608 
2535.161 55388840 55612788 55840088 56066760 56291812 56516072 56742568 
2538.536 56974580 57214280 57461256 57712840 57964684 58212012 58451676 
2541.911 58680772 58897732 59100948 59288532 59458264 59607992 59736252 
2545.287 59842108 59925060 59983756 60016092 60018756 59988016 59921028 
2548.662 59817128 59678276 59508344 59312764 59096468 58862524 58613004 
2552.037 58348920 58071548 57783120 57487012 57186836 56885508 56584728 
2555.412 56284568 55984392 55683972 55383908 55085632 54791808 54504008 
2558.788 54223716 53951224 53686808 53431252 53186104 52953820 52736852 
2562.163 52537080 52354704 52189632 52041732 51911616 51801324 51713752 
2565.538 51651800 51616536 51606796 51619444 51650680 51696844 51756268 
2568.913 51828468 51914828 52016296 52133216 52264892 52409620 52565836 
2572.289 52732996 52910736 53099448 53299068 53508896 53727680 53954412 
2575.664 54188616 54431476 54685296 54952572 55234912 55532956 55845328 
2579.039 56169804 56503848 56845584 57193224 57545188 57899372 58252248 
2582.414 58598820 58933556 59250932 59545736 59814692 60054592 60262764 
2585.790 60436380 60571552 60664204 60710460 60706916 60651324 60542564 
2589.165 60379948 60163728 59894136 59572148 59199212 58778180 58313332 
2592.540 57809768 57273440 56711264 56129608 55535892 54937420 54340860 
2595.915 53752804 53178536 52621264 52082748 51563252 51062640 50580992 
2599.291 50119216 49678700 49261300 48868480 48500984 48158936 47842420 
2602.666 47551716 47287368 47049800 46838856 46653476 46491292 46349152 
2606.041 46223716 46112612 46014284 45927980 45853736 45790992 45739228 
2609.416 45697708 45665868 45643892 45632188 45631784 45642640 45664100 
2612.792 45693988 45729660 45768388 45808484 45849356 45891484 45936120 
2616.167 45984112 46035648 46090244 46146952 46204884 46263596 46322980 
2619.542 46383104 46444240 46506192 46569296 46633920 46700736 46770808 
2622.917 46845168 46924384 47008076 47095628 47185892 47278240 47372572 
2626.292 47469324 47569128 47672436 47779056 47888444 47999928 48112996 
2629.668 48228316 48346852 48469900 48598024 48730788 48866700 49003656 
2633.043 49139844 49274476 49407592 49540264 49673684 49808404 49944212 
2636.418 50080208 50214836 50346640 50474872 50598864 50718532 50833948 
2639.793 50945036 51052316 51156492 51259012 51361856 51466960 51575156 
2643.169 51686544 51800276 51914640 52027912 52139452 52248972 52356984 
2646.544 52464276 52571332 52677668 52783096 52886524 52987212 53085184 
2649.919 53180332 53272808 53362608 53449124 53531496 53608900 53680924 
2653.294 53747176 53807928 53863216 53913408 53958084 53997444 54031252 
2656.670 54060332 54085364 54107468 54127208 54144772 54159712 54171240 
2660.045 54178480 54180884 54178708 54172704 54163616 54152656 54140836 
2663.420 54128824 54117376 54107204 54098836 54092608 54088104 54084464 
2666.795 54080036 54072904 54061420 54044008 54019132 53985400 53941016 
2670.171 53882984 53808528 53714180 53597056 53455532 53289180 53099076 
2673.546 52887648 52658368 52415600 52164264 51910456 51660532 51421492 
2676.921 51200256 51003124 50835252 50700508 50600944 50538036 50511088 
2680.296 50519164 50559812 50629204 50723444 50837488 50966312 51105648 
2683.672 51251704 51401312 51552356 51702556 51850384 51994484 52134112 
2687.047 52269712 52401956 52532480 52662672 52793684 52925596 53057740 
2690.422 53189172 53318624 53445228 53568192 53687180 53801292 53909540 
2693.797 54010688 54103452 54186968 54260432 54323324 54375252 54415252 
2697.173 54441540 54452096 54444736 54417728 54370072 54301468 54212264 
2700.548 54102512 53972228 53820308 53645268 53445412 53218500 52962280 
2703.923 52674828 52353732 51996872 51602504 51169948 50700024 50194976 
2707.298 49659012 49096992 48514208 47916008 47307540 46693728 46079856 
2710.674 45471600 44874924 44295688 43739024 43208768 42707708 42236952 
2714.049 41797200 41388288 41009984 40661160 40340536 40045688 39774064 
2717.424 39522856 39289788 39073192 38871960 38685348 38512860 38353472 
2720.799 38206080 38069336 37942332 37825012 37717372 37619948 37532876 
2724.175 37455616 37387572 37327268 37273616 37226320 37184772 37149436 
2727.550 37120492 37098112 37082308 37072888 37070072 37074080 37085196 
2730.925 37103708 37129080 37160876 37197912 37239064 37283760 37331852 
2734.300 37382912 37436652 37492276 37548088 37602028 37652720 37698688 
2737.676 37740104 37777692 37812864 37846988 37880972 37915392 37950720 
2741.051 37987640 38027096 38070896 38120808 38178624 38245484 38322096 
2744.426 38408564 38504932 38610628 38725300 38847900 38977276 39111840 
2747.801 39250144 39390960 39533852 39678936 39826388 39976584 40128864 
2751.177 40282036 40434172 40583700 40728916 40869300 41004852 41136112 
2754.552 41263512 41387304 41507196 41622812 41733616 41839664 41941396 
2757.927 42038664 42131972 42220916 42305096 42383448 42455456 42520460 
2761.302 42578788 42630652 42676704 42717688 42753772 42785512 42813228 
2764.677 42837616 42858972 42877476 42893608 42907212 42918588 42928172 
2768.053 42936912 42946424 42958276 42973820 42994416 43020536 43052400 
2771.428 43090272 43134108 43184208 43240832 43303972 43373168 43447828 
2774.803 43526972 43609868 43696444 43787140 43882768 43984212 44092092 
2778.178 44206792 44327684 44454592 44586936 44724128 44865740 45011180 
2781.554 45159944 45311332 45464832 45620376 45778440 45939764 46105132 
2784.929 46275096 46449512 46627540 46807820 46989136 47170488 47351620 
2788.304 47532720 47714296 47896764 48080424 48264972 48450084 48635384 
2791.679 48820648 49006072 49191828 49378896 49567636 49759432 49954732 
2795.055 50154212 50358060 50565692 50775808 50986616 51196080 51402212 
2798.430 51604072 51801360 51994968 52186268 52377136 52569204 52763676 
2801.805 52961080 53161312 53363544 53566844 53769228 53969004 54164820 
2805.180 54355316 54540368 54720244 54896208 55069196 55240372 55409580 
2808.556 55576368 55739304 55897180 56049380 56195824 56337228 56474564 
2811.931 56608772 56740260 56868812 56993888 57114876 57231400 57343876 
2815.306 57453124 57560396 57666864 57773620 57881536 57991340 58103444 
2818.681 58218528 58337360 58460428 58587824 58719384 58854628 58992232 
2822.057 59130752 59268592 59403780 59534756 59660444 59780204 59894288 
2825.432 60003576 60109272 60212328 60313280 60411476 60505428 60593152 
2828.807 60671940 60739724 60794988 60836720 60864812 60879528 60880904 
2832.182 60868972 60844116 60806116 60755352 60692324 60617648 60531936 
2835.558 60435960 60329576 60212140 60082636 59939288 59780700 59605520 
2838.933 59413772 59206728 58986996 58758340 58525752 58293212 58064696 
2842.308 57842812 57628536 57422756 57225356 57037032 56858996 56693068 
2845.683 56541172 56404948 56285320 56182700 56096844 56027664 55974968 
2849.059 55939012 55919792 55917304 55930872 55959176 56001016 56054468 
2852.434 56118260 56190960 56271028 56356540 56445660 56536376 56626852 
2855.809 56716628 56805816 56895628 56987652 57082980 57181884 57283496 
2859.184 57386564 57489468 57591152 57691084 57789212 57885968 57981724 
2862.560 58076136 58168864 58259448 58347440 58432376 58513960 58591308 
2865.935 58663100 58727504 58782392 58826020 58857320 58876184 58882936 
2869.310 58878608 58863928 58839340 58804736 58759708 58703680 58636168 
2872.685 58556540 58464412 58359380 58241564 58111512 57970780 57821920 
2876.061 57668032 57513000 57360436 57212652 57071572 56937784 56811328 
2879.436 56692276 56580536 56476488 56380500 56292944 56213816 56143256 
2882.811 56080932 56026724 55980208 55940748 55907352 55878376 55851960 
2886.186 55826600 55800756 55774120 55746688 55719040 55691692 55664272 
2889.562 55636136 55606044 55572756 55535440 55493572 55447224 55396404 
2892.937 55341300 55281500 55216816 55146800 55071528 54991416 54906812 
2896.312 54818160 54725620 54629304 54528988 54424980 54317840 54208848 
2899.687 54099096 53990052 53882420 53776352 53671284 53566732 53461716 
2903.063 53355564 53247824 53137904 53024980 52909052 52789680 52667420 
2906.438 52543248 52418628 52295428 52174836 52058204 51945896 51838320 
2909.813 51735252 51636124 51540004 51444844 51347608 51244920 51133268 
2913.188 51010280 50875480 50730636 50579464 50426192 50274764 50127620 
2916.563 49985140 49846644 49710424 49575544 49442008 49310852 49183444 
2919.939 49061340 48945132 48834552 48728820 48627152 48529180 48435192 
2923.314 48345816 48262268 48185328 48115772 48054072 48000704 47955968 
2926.689 47920188 47893216 47874496 47863064 47857920 47858144 47863544 
2930.064 47874420 47891812 47916968 47951120 47995340 48050740 48118400 
2933.440 48199400 48295008 48406000 48532884 48674816 48830920 48999096 
2936.815 49177280 49363376 49554932 49749364 49943804 50134504 50317544 
2940.190 50488940 50645100 50782992 50901224 50998656 51075272 51131664 
2943.565 51169164 51189556 51195744 51190972 51178596 51161712 51142736 
2946.941 51123168 51103936 51085708 51069648 51057456 51051236 51052952 
2950.316 51063720 51083548 51111052 51143928 51179340 51215356 51250400 
2953.691 51284140 51316696 51348652 51380468 51412356 51444396 51476700 
2957.066 51508780 51539896 51568700 51593548 51612616 51624260 51627768 
2960.442 51623548 51612616 51596980 51578064 51557508 51535756 51512924 
2963.817 51488820 51463232 51436116 51407468 51377296 51345372 51311324 
2967.192 51274636 51235000 51192388 51147060 51099684 51050676 51000628 
2970.567 50949952 50899284 50849484 50801208 50754764 50709780 50665020 
2973.943 50618332 50567552 50511088 50448672 50381764 50313156 50245972 
2977.318 50183296 50126912 50077420 50034476 49997332 49965700 49939416 
2980.693 49919084 49904588 49895816 49891544 49890316 49890760 49892064 
2984.068 49894404 49898676 49906112 49917784 49934136 49954844 49979304 
2987.444 50006740 50036372 50067940 50100736 50133944 50166036 50195492 
2990.819 50220640 50240128 50253784 50261780 50265052 50264528 50261036 
2994.194 50254636 50245264 50232356 50215392 50194008 50168044 50137364 
2997.569 50102036 50061916 50017072 49967744 49914140 49857124 49797260 
3000.945 49735652 49672788 49609420 49545836 49482036 49417688 49352388 
3004.320 49285684 49217252 49146820 49074696 49001732 48928740 48857132 
3007.695 48787504 48720516 48655912 48593172 48531848 48471124 48411112 
3011.070 48351964 48294340 48238908 48186332 48136944 48091084 48048668 
3014.446 48009736 47973912 47940868 47910012 47880748 47852372 47823924 
3017.821 47795036 47765040 47733308 47699728 47663892 47625588 47585136 
3021.196 47542624 47498524 47452728 47405052 47354576 47300296 47240928 
3024.571 47175880 47105188 47029492 46950000 46867352 46781580 46691436 
3027.947 46595116 46490332 46375364 46249924 46115044 45973064 45826892 
3031.322 45679520 45532900 45388164 45245760 45105680 44968512 44835060 
3034.697 44706464 44584144 44469016 44361516 44261600 44168200 44080616 
3038.072 43997704 43918768 43843768 43772812 43706188 43644016 43585804 
3041.448 43529760 43473028 43411908 43341976 43259240 43160936 43046184 
3044.823 42916356 42774320 42623924 42469340 42313900 42160156 42010008 
3048.198 41864840 41726064 41595612 41475440 41367808 41274480 41196436 
3051.573 41133744 41085412 41049972 41024808 41007512 40995312 40985664 
3054.948 40976376 40966144 40953768 40938652 40920268 40897660 40869556 
3058.324 40834500 40791260 40739248 40679136 40612512 40541864 40469956 
3061.699 40398748 40329332 40261968 40195736 40129412 40062220 39993184 
3065.074 39921952 39848436 39772464 39694004 39612976 39529860 39444876 
3068.449 39359072 39273536 39189620 39109192 39033892 38965680 38906420 
3071.825 38857068 38817536 38786016 38759748 38734536 38706064 38670784 
3075.200 38626308 38571228 38505112 38427132 38336028 38229744 38106164 
3078.575 37963884 37803464 37627608 37441200 37249608 37058528 36872040 
3081.950 36692700 36521332 36357952 36202664 36056036 35919540 35794704 
3085.326 35683392 35586500 35504436 35436632 35381628 35337484 35301040 
3088.701 35268984 35236748 35199524 35152420 35090844 35011068 34910264 
3092.076 34786404 34638604 34466676 34271832 34056508 33824776 33582392 
3095.451 33336066 33092454 32857698 32636392 32430444 32240580 32065750 
3098.827 31903968 31753256 31612008 31478788 31352234 31231694 31115958 
3102.202 31004132 30894968 30787362 30679924 30571410 30460506 30346646 
3105.577 30229478 30109286 29986572 29861904 29735392 29606682 29475456 
3108.952 29341294 29204266 29065510 28926832 28790466 28658354 28532300 
3112.328 28412754 28299394 28191544 28087750 27986384 27885926 27784996 
3115.703 27682394 27577770 27471510 27365348 27261152 27160860 27065176 
3119.078 26973286 26882650 26789884 26692096 26588062 26478804 26367674 
3122.453 26259354 26158236 26066890 25985974 25913270 25846346 25781644 
3125.829 25717166 25651852 25585844 25519670 25453966 25389112 25324798 
3129.204 25261088 25197282 25132644 25066330 24997252 24924010 24846396 
3132.579 24764690 24680616 24596734 24515846 24439986 24369888 24305022 
3135.954 24243424 24183376 24123162 24061904 23999290 23934864 23867438 
3139.330 23795682 23717814 23632752 23540850 23443756 23344274 23245302 
3142.705 23148870 23055814 22965292 22876256 22787484 22698448 22609606 
3146.080 22522040 22436444 22353586 22273256 22195450 22120170 22047900 
3149.455 21979440 21915348 21855308 21798238 21741558 21682968 21620312 
3152.831 21552792 21480860 21405912 21330176 21255254 21182432 21111814 
3156.206 21043188 20975758 20908546 20840752 20771788 20701100 20628752 
3159.581 20555026 20480656 20406262 20332298 20258762 20185064 20110618 
3162.956 20035106 19958778 19882912 19808898 19738190 19670824 19605718 
3166.332 19541108 19474256 19403432 19328114 19248720 19166850 19083646 
3169.707 18999624 18914408 18826822 18736208 18642846 18548088 18454248 
3173.082 18363712 18277932 18197210 18120582 18046556 17973786 17901858 
3176.457 17830840 17761488 17694254 17629136 17565542 17502548 17439698 
3179.833 17377068 17314788 17253346 17192638 17131626 17068936 17003118 
3183.208 16933174 16859042 16782098 16704099 16627457 16554339 16486259 
3186.583 16423868 16367644 16316863 16270731 16227460 16185155 16141273 
3189.958 16093956 16041797 15984317 15922135 15856421 15788725 15720043 
3193.333 15651269 15583056 15515678 15449888 15385894 15324312 15264696 
3196.709 15206425 15148574 15090663 15032828 14976132 14922050 14872088 
3200.084 14826898 14785759 14747365 14709935 14672439 14634536 14597114 
3203.459 14561239 14527867 14496793 14467058 14437051 14405161 14370671 
3206.834 14333478 14293755 14251570 14205828 14155299 14098102 14033452 
3210.210 13962002 13886321 13809422 13735205 13666163 13603286 13546229 
3213.585 13493829 13444545 13397180 13351255 13306223 13261469 13216071 
3216.960 13168800 13118971 13066451 13012197 12957437 12904083 12853057 
3220.335 12804561 12758290 12713252 12668900 12625303 12582701 12541841 
3223.711 12502997 12466169 12431150 12397669 12365622 12335112 12306376 
3227.086 12279074 12252183 12224134 12193156 12157819 12117987 12074549 
3230.461 12029206 11984107 11940681 11899610 11860517 11822416 11784453 
3233.836 11746153 11707483 11668680 11630016 11591628 11553312 11514659 
3237.212 11475396 11435593 11395182 11354638 11313894 11273256 11232621 
3240.587 11192364 11152621 11113527 11075151 11036676 10996982 10955217 
3243.962 10910195 10861917 10811063 10758515 10705261 10652149 10598704 
3247.337 10544757 10490104 10435185 10381564 10331817 10287810 10251101 
3250.713 10221485 10197571 10176709 10156459 10134786 10110537 10083237 
3254.088 10052716 10018740 9981207 9939913 9895233 9848626 9801923 9757427 
3257.945 9716697 9680274 9647478 9616955 9587112 9556762 9525534 9493359 
3261.803 9460375 9426242 9390011 9350569 9307033 9259643 9209280 9158584 
3265.660 9110162 9066752 9030180 9001425 8980114 8964960 8953697 8943617 
3269.518 8931576 8914699 8890788 8859067 8820315 8776528 8731089 8687041 
3273.375 8646614 8611023 8579762 8551577 8525152 8499303 8473286 8446967 
3277.232 8419602 8391057 8360656 8328330 8294624 8261055 8229819 8202603 
3281.090 8180318 8162727 8147838 8133422 8117184 8097975 8076000 8052101 
3284.947 8027393 8002653 7977612 7951323 7922605 7891089 7857114 7822263 
3288.805 7788291 7757325 7730206 7706967 7686630 7667474 7647848 7626670 
3292.662 7603100 7577474 7550737 7523800 7498043 7474311 7452974 7433761 
3296.520 7416133 7399214 7382227 7365006 7347819 7331509 7317187 7305326 
3300.377 7295925 7288512 7282312 7276719 7271497 7266746 7262501 7258727 
3304.234 7254380 7247912 7237501 7221364 7198186 7167699 7129906 7085313 
3308.092 7034292 6977149 6914762 6848546 6780692 6714328 6652416 6597409 
3311.949 6549742 6508572 6471239 6434784 6396685 6355394 6310880 6264153 
3315.807 6216387 6168762 6121949 6075880 6030353 5985335 5941195 5898201 
3319.664 5857495 5819480 5784692 5753498 5725967 5701425 5679033 5657213 
3323.521 5633716 5606461 5573300 5533632 5487893 5437630 5385226 5332795 
3327.379 5281912 5233249 5186503 5141706 5098725 5058395 5021623 4989211 
3331.236 4961360 4937397 4916218 4896748 4878251 4861296 4847090 4836468 
3335.094 4829968 4826484 4823737 4817873 4805309 4783399 4751206 4709637 
3338.951 4661875 4611942 4564224 4522036 4487820 4461273 4440652 4422342 
3342.809 4402392 4377289 4345026 4305871 4261667 4215828 4172168 4133865 
3346.666 4102924 4079745 4063691 4053022 4045296 4037939 4027805 4011686 
3350.523 3986806 3951462 3905623 3851698 3793736 3736583 3684918 3641680 
3354.381 3607500 3581106 3560594 3543724 3529426 3518102 3510219 3505910 
3358.238 3504374 3503372 3500366 3493050 3480659 3463725 3444587 3425518 
3362.096 3408653 3395095 3385444 3379834 3378966 3384242 3396965 3417937 
3365.953 3446157 3478488 3510286 3535974 3550338 3549803 3532834 3499764 
3369.811 3453271 3396764 3334589 3271421 3211666 3159263 3116611 3084374 
3373.668 3061049 3043397 3027915 3011766 2993583 2974666 2957252 2944508 
3377.525 2938270 2939004 2944775 2952715 2959520 2962289 2960121 2953115 
3381.383 2942273 2928796 2913719 2897807 2881397 2864920 2849044 2834236 
3385.240 2821329 2810691 2802687 2798052 2797585 2802620 2814226 2832702 
3389.098 2856915 2883765 2909215 2928196 2936602 2932132 2914953 2888034 
3392.955 2855314 2821629 2791215 2766372 2748199 2736528 2730527 2729893 
3396.813 2734261 2743731 2757902 2775876 2795484 2813625 2826465 2830467 
3400.670 2823030 2803754 2773942 2736462 2695785 2655811 2619609 2589142 
3404.527 2564844 2546146 2532481 2522949 2516951 2514251 2513785 2514584 
3408.385 2515084 2513685 2509619 2503054 2494856 2486291 2479093 2473595 
3412.242 2469396 2465497 2460266 2452702 2442572 2430843 2418715 2407986 
3416.100 2399790 2394626 2392294 2392160 2392893 2393760 2393826 2391927 
3419.957 2387762 2380499 2370372 2357878 2344086 2330295 2317736 2307010 
3423.814 2298250 2291055 2284693 2278431 2272069 2265108 2258213 2251319 
3427.672 2245124 2239728 2234999 2231036 2227206 2222610 2216282 2207523 
3431.529 2195601 2181115 2165397 2150213 2137459 2128037 2121910 2117315 
3435.387 2111921 2103364 2090413 2073300 2053957 2035215 2019735 2009183 
3439.244 2004057 2003058 2004423 2005954 2006287 2004656 2001061 1996101 
3443.102 1990176 1983852 1977395 1970205 1961950 1951499 1937754 1919549 
3446.959 1896685 1869797 1840647 1811632 1785115 1762558 1744028 1728359 
3450.816 1713489 1697955 1680891 1662963 1646066 1631898 1621122 1613639 
3454.674 1607653 1601401 1593719 1584740 1576060 1569941 1568112 1571205 
3458.531 1577690 1584939 1589894 1590227 1585371 1575894 1563723 1551386 
3462.389 1540912 1533929 1531834 1535225 1544503 1559832 1580051 1603263 
3466.246 1626976 1648361 1664992 1675835 1680725 1680891 1677299 1670846 
3470.104 1662298 1651721 1639647 1627375 1616533 1609316 1607420 1611843 
3473.961 1621588 1635856 1652785 1671810 1693065 1717947 1748220 1785082 
3477.818 1828768 1878216 1931130 1985050 2037512 2087316 2134329 2180149 
3481.676 2226973 2278231 2337124 2406220 2486191 2576043 2671880 2768606 
3485.533 2859850 2939938 3004860 3053174 3085708 3104797 3113240 3112639 
3489.391 3103428 3084574 3054075 3010298 2952882 2882331 2800353 2709788 
3493.248 2613209 2513351 2412051 2310508 2208755 2106627 2003524 1899348 
3497.105 1794930 1692733 1596479 1510554 1439040 1383958 1344903 1317949 
3500.963 1297211 1276175 1248394 1210614 1162206 1105664 1045410 986559 
3504.820 934390 892088 862041 845010 839632 843549 852546 862274 868084 
3509.160 866889 857792 842288 823996 806435 792792 784327 779879 777124 
3513.500 773241 766171 755284 741211 725379 709349 694049 679912 667235 
3517.839 656118 647324 642148 642247 648619 661594 680277 703143 726872 
3522.179 748679 764710 772311 769590 756313 733676 704337 671582 638332 
3526.518 606710 577346 549411 521942 494276 466413 439911 416794 398686 
3530.858 386249 378854 374642 371558 368109 363732 358990 354413 350169 
3535.198 345195 338032 326194 308521 285444 258456 230873 205943 187048 
3539.537 176474 175712 185623 206242 237337 277486 323807 372055 416727 
3543.877 451387 471156 472151 453510 416893 366451 308057 248410 194407 
3548.216 151979 125331 116415 124303 144985 171966 197656 214728 217778 
3552.556 205115 178629 143195 105180 70713 44567 29291 25083 30683 42943 
3557.378 58518 73563 85162 91194 91559 87350 81583 77739 79197 89172 109588 
3562.682 141207 184330 238067 300364 366948 431984 486448 520781 526852 
3567.021 500313 442896 362604 271518 182474 105246 45760 4937 -19780 -32933 
3571.843 -38930 -41514 -43436 -46285 -51420 -59438 -70934 -85477 -101808 
3576.183 -118371 -132814 -143711 -150568 -154410 -156629 -158914 -162160 
3580.040 -166002 -169248 -169613 -164512 -151926 -130031 -97370 -52911 3015 
3584.380 69056 141240 212872 275762 319927 336606 321220 274469 202893 
3588.719 117310 30219 -46948 -105949 -142386 -155304 -146593 -121088 -84947 
3593.059 -44794 -7653 20344 36150 38205 28264 9575 -13452 -36644 -56688 
3597.881 -72060 -82363 -89287 -94819 -101510 -111249 -124798 -141823 -160007 
3602.220 -175873 -186074 -186968 -176204 -152754 -117808 -74081 -25611 22100 
3606.560 63721 94144 110018 110748 98850 79794 59943 45495 39762 42546 50134 
3611.864 57126 58087 50101 33897 14645 -198 -2849 11895 45429 94210 151482 
3617.168 206673 248874 268236 257726 215424 145051 55436 -41945 -135298 
3621.507 -214589 -273898 -310090 -323334 -314394 -283932 -231677 -156530 
3625.365 -57583 63423 200043 338364 458187 536008 550804 494210 376532 
3629.704 225038 72304 -55794 -145665 -197003 -218894 -224491 -225517 -230419 
3634.044 -242076 -258567 -275554 -288799 -296614 -299759 -301348 -303898 
3637.901 -309163 -317208 -325353 -331843 -334127 -331743 -325055 -315189 
3641.759 -302077 -284097 -258070 -219027 -162127 -83953 16202 135207 266413 
3646.098 399382 522042 622106 688938 715455 698662 640223 545828 424256 
3650.438 287698 150520 26342 -72226 -136954 -165737 -161763 -133509 -93527 
3654.778 -56489 -35054 -37340 -64242 -108931 -161332 -210913 -251182 -280256 
3659.117 -299660 -312606 -321910 -329955 -337008 -342967 -347768 -351376 
3662.975 -354124 -355581 -354323 -347238 -330585 -300322 -253202 -188193 
3666.832 -107009 -15009 78998 163514 224972 252820 242741 201435 144687 
3671.172 94839 72569 89172 145217 229745 323210 399183 432083 405650 320756 
3675.993 196794 61965 -57218 -147719 -209952 -252043 -284561 -315420 -347933 
3680.333 -380510 -409112 -429701 -440161 -440525 -431257 -412025 -380576 
3684.190 -333862 -269064 -186504 -90347 11530 107632 186651 239625 262931 
3688.530 258323 232596 193512 147007 95999 41452 -16102 -74346 -129501 
3692.870 -177628 -215483 -242109 -258666 -267905 -272442 -274197 -272640 
3696.727 -266249 -252209 -228829 -195844 -155702 -112707 -72888 -43270 
3700.584 -29355 -35418 -61459 -103432 -154443 -206011 -249328 -277938 
3704.442 -288104 -279163 -252209 -210085 -156364 -93759 -25048 46489 117840 
3708.781 184131 239094 275563 286339 266015 213468 132390 31975 -75472 
3713.121 -176502 -260587 -321479 -357170 -370181 -364851 -347205 -322738 
3716.979 -295554 -268137 -240519 -211906 -180443 -145400 -107307 -68018 
3720.836 -30382 2584 29192 49604 64549 76248 85825 92917 95933 91724 77805 
3726.140 54111 23558 -7256 -29819 -35982 -20244 18688 77805 150322 229182 
3730.962 307327 381142 450691 518890 587831 655985 715323 752529 753624 
3735.301 708187 615469 487841 347052 216551 114493 50366 24784 33135 70249 
3740.123 132390 218209 325929 451586 584811 707490 796842 829208 792825 
3744.463 696671 573133 462466 394573 381938 418286 487542 568554 642480 
3748.802 694215 714692 701682 656881 584314 488106 373680 250035 129407 
3753.142 25977 -49068 -90579 -100583 -87133 -60034 -29422 -2021 19350 34394 
3757.964 43374 45396 37708 17329 -16102 -58510 -101510 -134569 -149143 
3762.303 -142386 -117245 -82760 -49300 -26208 -18157 -23557 -35882 -46285 
3766.643 -49400 -43635 -32569 -23259 -23955 -40686 -75837 -127083 -188293 
3770.982 -252109 -311149 -360348 -397261 -421591 -434600 -438274 -434302 
3774.840 -423015 -404345 -377100 -340616 -296514 -248831 -203792 -169116 
3778.697 -151495 -153217 -171434 -199023 -226445 -245652 -252672 -248500 
3782.555 -237737 -226345 -219921 -221212 -230220 -244592 -261382 -278303 
3786.412 -294263 -309295 -323201 -335352 -344258 -348330 -346675 -339226 
3790.270 -327969 -314295 -299594 -283832 -265620 -243764 -217039 -186074 
3794.127 -153416 -122512 -96740 -77559 -63413 -49797 -30548 165 45130 103324 
3798.949 168651 230375 275829 292042 270988 214164 134511 52553 -11762 
3803.288 -44331 -41978 -10867 35156 78170 101733 92818 48610 -23093 -105750 
3808.110 -182828 -241744 -278038 -293203 -292110 -278700 -254494 -218066 
3811.968 -166830 -99788 -19316 66969 147537 208164 237171 230176 194009 
3816.307 146543 109289 101567 131959 197556 284681 373548 441039 465749 
3820.647 436495 356436 244167 126756 29125 -33696 -59537 -56589 -38466 
3824.986 -18587 -7753 -10602 -24916 -43005 -55230 -53773 -34888 563 47715 
3829.808 99280 148233 188474 217480 235613 247084 258157 275033 303182 
3834.148 344200 396066 452813 505322 544103 561355 553724 523070 476994 
3838.487 424919 374576 330704 293567 260544 228254 194341 157680 118404 
3842.827 77341 35123 -7190 -48141 -85245 -114761 -132250 -133874 -117079 
3847.167 -81104 -26440 46588 138356 249968 382568 535312 701317 866756 
3851.506 1010304 1103305 1118719 1041989 881364 668529 447739 257063 115023 
3855.846 22730 -29720 -54601 -61691 -56125 -39096 -9542 33069 87449 150056 
3860.667 215490 278216 333456 378058 409099 424720 423394 405683 375869 
3865.007 342708 318468 315650 342906 400908 481472 570445 647789 694149 
3869.347 698297 660598 595462 523568 464887 430060 418485 420475 422100 
3873.686 411454 381606 334086 277818 226165 191556 181413 197755 236243 
3878.026 288295 342276 386548 412549 415666 398387 369270 340419 322547 
3882.365 323475 344266 379650 418950 447971 454704 431951 382369 317308 
3886.705 254245 209192 191722 203391 237901 283554 325730 351827 352788 
3891.045 326327 277155 215060 151647 96695 57292 37277 38437 60672 102893 
3895.866 162884 236343 317308 399017 473810 535809 582190 613678 633985 
3900.206 648718 662357 676295 688341 692589 682235 651306 597851 524331 
3904.546 437987 349373 267938 201369 153702 125430 114493 117442 130567 
3908.885 150587 174585 200672 227359 254013 281067 309549 341381 378588 
3913.225 422167 472151 525790 578740 625590 660399 678784 679049 662290 
3917.564 631928 592741 549477 506019 465517 430359 403229 386017 379981 
3921.904 384823 397790 413975 427108 431586 423593 402533 371757 336838 
3926.244 303613 276823 258953 250001 248974 254146 263992 277752 293633 
3930.583 309416 321585 325796 318534 298275 266379 227359 187081 151448 
3934.923 124336 107036 98518 96397 98253 102893 110946 123972 144090 172165 
3939.745 207336 246753 285543 318534 341348 351197 348179 334915 316313 
3944.084 297844 284051 277984 279774 287135 296186 302287 302022 293766 
3948.424 277752 257030 235116 215358 199910 189800 184463 183037 184463 
3952.763 188010 193114 199512 206772 214098 220894 226497 231204 235249 
3957.103 239359 243901 249338 255041 260246 264523 267142 267805 266512 
3961.443 262965 257096 249106 239426 229248 220695 215490 215557 221192 
3965.782 231701 245194 259682 272778 283255 290914 295921 299038 300662 
3970.122 300961 299999 297910 295291 292672 290550 288958 286637 282824 
3974.461 276525 267175 256234 245559 237735 234586 236674 243305 251924 
3978.801 260279 266512 269363 269363 266910 262965 258025 252389 245791 
3983.141 238498 231105 224441 219502 216783 216750 219004 223480 229513 
3987.480 237370 246786 257527 268800 279442 288030 293666 296253 296352 
3991.820 295523 295125 296120 299104 303680 309118 314953 320458 325597 
3996.159 330107 333788 335843 335280 331168 323143 310908 295092 276359 
4000.499 255903 
##END=
