
##TITLE=Z140a_3_a
##JCAMP-DX=5.01  $$ Nicolet v. 1
##DATATYPE=INFRARED SPECTRUM
##ORIGIN=UniL
##OWNER=Nicolet
##LONGDATE=2011/09/20
##TIME=11:17:05
##SPECTROMETER/DATA SYSTEM=Nicolet iS5
##DATA PROCESSING=
Ratio against background
%Transmittance->Absorbance
Truncated
ElementMultiply or ElementDivide
##COMMENTS=
Number of sample scans: 32
Collection length: 51.17 sec
Sample gain: 2.0
Background collected on: Mar Sep 20 11:15:18 2011 (GMT+02:00);
Number of background scans: 32
Background gain: 2.0
Sample spacing:  1.000
Number of scan points: 12415
Resolution points: 8192
Number of FFT points: 65536
Apodization: N-B fort;
Phase correction: Mertz;
Laser frequency: 15798.0 cm-1
Number of rejected sample scans: 0
Number of rejected background scans: 0
Bench serial number: ASB1000141;
##RESOLUTION=4.000
##XUNITS=1/CM
##YUNITS=ABSORBANCE
##FIRSTX=649.893372
##LASTX=4000.122314
##FIRSTY=0.079313
##MAXX=4000.122314
##MINX=649.893372
##MAXY=0.539674
##MINY=-0.003357
##XFACTOR=1.000000
##YFACTOR=1.000000E-009
##NPOINTS=6950
##DELTAX=0.482117
##ZPD=6100
##XYDATA=(X++(Y..Y))
649.893 79313016 75365968 72326608 70173680 68838336 68210328 68141208 
653.268 68480088 69105376 69944976 70985184 72250808 73775496 75574080 
656.643 77640056 79962200 82548360 85448536 88751944 92557576 96963616 
660.018 102049368 107884120 114566896 122234864 131035536 141075808 
662.911 152326112 164573472 177371280 190120208 202106368 212397936 
665.803 219887344 223222128 221003520 212485840 198301120 180630000 
668.696 162169168 145000368 130032168 117243696 106253672 96675072 88265472 
672.071 80956280 74762504 69680528 65643200 62501596 60076888 58196100 
675.446 56739280 55636852 54840940 54304172 53967656 53764728 53645568 
678.820 53588660 53601408 53703044 53905152 54195672 54541800 54904104 
682.195 55258244 55606120 55975948 56405136 56919844 57524460 58200952 
685.570 58922628 59669304 60438856 61246704 62116956 63068100 64104616 
688.945 65219536 66402956 67652640 68980536 70410912 71972320 73691656 
692.320 75589104 77684160 80005696 82595920 85515464 88836456 92625488 
695.694 96942736 101833952 107339176 113510656 120431368 128227144 137088192 
699.069 147254384 158993584 172568432 188148016 205709776 224868784 
701.962 244805216 264121984 280819328 292708096 297710688 294486176 
704.855 282933280 264213024 240463488 214097296 187454176 162347584 
707.747 139870080 120604072 104642728 91765280 81594728 73689232 67620080 
711.122 62981748 59436644 56712548 54587556 52907296 51565120 50488980 
714.497 49634232 48963716 48441712 48034200 47709044 47442304 47223456 
717.872 47050904 46929144 46861852 46848012 46881968 46957904 47071252 
721.247 47222052 47412816 47644368 47912600 48209580 48524068 48848236 
724.621 49179920 49524036 49888680 50281012 50702668 51149856 51615040 
727.996 52092348 52580648 53084920 53613400 54173192 54767264 55393920 
731.371 56048136 56726556 57429792 58163636 58937052 59759440 60636236 
734.746 61569864 62560096 63607068 64713172 65885188 67131216 68461584 
738.121 69885392 71411624 73049472 74809104 76702584 78744680 80950896 
741.496 83339904 85933800 88759304 91852056 95257160 99027208 103228144 
744.870 107934672 113229704 119212736 125992136 133686824 142429408 
747.763 152353584 163592576 176268400 190472544 206233104 223451696 
750.656 241866144 260934912 279769856 297224960 311874496 322265088 
753.548 327249216 326141312 318919264 306165824 288935232 268503232 
756.441 246127376 222994160 200063792 178064816 157575712 138981568 
759.334 122529296 108362248 96485896 86797984 79096632 73119528 68571072 
762.709 65158980 62641656 60813624 59512484 58616604 58020652 57636668 
766.083 57399460 57259372 57188992 57177880 57223160 57322324 57469540 
769.458 57655664 57874232 58126624 58423016 58778256 59206008 59712072 
772.833 60292688 60937664 61636684 62385940 63189984 64059072 65002820 
776.208 66026344 67127848 68301984 69545720 70861952 72261408 73759664 
779.583 75372472 77111528 78986928 81009464 83197696 85584008 88213952 
782.958 91145752 94449912 98199928 102474504 107352160 112896384 119140200 
786.332 126055064 133534088 141358928 149200832 156676688 163352112 
789.225 168830352 172826880 175189056 175932704 175214848 173308256 
792.118 170529312 167185344 163570224 159924720 156449744 153329152 
795.010 150716016 148749344 147557728 147247728 147918992 149666656 
797.903 152575424 156725216 162175152 168944112 176978304 186108448 
800.796 196031328 206220960 215930128 224254192 230114576 232491808 
803.689 230628256 224154416 213251680 198607680 181321424 162628944 
806.581 143727152 125654000 109106168 94503496 82017024 71610736 63135416 
809.956 56374724 51097896 47069332 44068260 41908664 40422788 39474156 
813.331 38960060 38794312 38908888 39249020 39762844 40406748 41147040 
816.706 41958548 42827448 43748004 44716896 45730100 46780880 47861952 
820.081 48967940 50099320 51262628 52466860 53720928 55029028 56389516 
823.455 57797844 59250060 60746700 62295020 63906572 65593524 67366952 
826.830 69235072 71205968 73292792 75517464 77912488 80523040 83399920 
830.205 86598176 90176544 94192640 98708648 103795216 109528936 115999736 
833.580 123308688 131558848 140850032 151254448 162788992 175361776 
836.473 188721440 202438208 215813024 227928432 237741728 244123696 
839.365 246137872 243230544 235362880 223071712 207352240 189495680 
842.258 170764512 152283104 134946096 119310936 105699696 94217248 84791264 
845.633 77240512 71313096 66744036 63266864 60648240 58705428 57287012 
849.008 56279248 55597156 55168392 54935840 54854704 54888388 55010820 
852.382 55203648 55452984 55748688 56083496 56452524 56855292 57294348 
855.757 57773772 58296320 58860472 59459060 60081916 60716828 61353964 
859.132 61988104 62618040 63243984 63865544 64479300 65079184 65659196 
862.507 66214672 66745356 67254560 67747520 68228584 68699944 69160856 
865.882 69609304 70044864 70469408 70887264 71304504 71726296 72154944 
869.256 72591304 73034760 73485864 73947560 74425216 74924528 75451392 
872.631 76009072 76599536 77223648 77883472 78582296 79325464 80118576 
876.006 80967064 81876416 82852400 83903448 85042872 86288144 87661864 
879.381 89188792 90891112 92784848 94873288 97141680 99548648 102021368 
882.756 104463616 106749248 108745184 110335512 111430040 111989536 
885.648 112028856 111614320 110844584 109831392 108687432 107503224 
888.541 106349480 105283208 104349632 103594000 103063648 102799704 
891.434 102834720 103183856 103842016 104786136 105981984 107394800 
894.327 108991728 110748712 112650056 114685016 116847480 119133264 
897.219 121541240 124074232 126739040 129547584 132513464 135650464 
900.112 138970016 142480192 146184992 150087152 154189504 158497312 
903.005 163020480 167773312 172775840 178054224 183640192 189574320 
905.897 195906880 202696896 210015200 217939568 226548720 235922384 
908.790 246133040 257244144 269305472 282348896 296377472 311335936 
911.683 327096640 343416032 359882368 375946016 390882688 403831232 
914.575 413933344 420366976 422482496 419930240 412690048 401118272 
917.468 385883296 367916480 348264160 327922368 307826080 288716064 
920.361 271115200 255398928 241756112 230233888 220776256 213233984 
923.254 207395792 203003968 199795728 197507824 195889488 194733312 
926.146 193856608 193106688 192367712 191541264 190550752 189343424 
929.039 187882944 186151488 184146608 181875008 179347840 176577776 
931.932 173578768 170367264 166963952 163395696 159691920 155882416 
934.824 151995344 148054400 144080304 140094080 136115584 132166144 
937.717 128266368 124432656 120677776 117011248 113439616 109970600 
940.610 106612720 103373536 100260080 97275512 94418984 91688336 89080368 
943.985 86593200 84227136 81983168 79861480 77860520 75977104 74207504 
947.359 72549056 71000208 69560776 68229128 67002332 65874316 64837716 
950.734 63886076 63014732 62221904 61507972 60872556 60313512 59826556 
954.109 59405908 59046852 58747720 58510284 58338988 58239368 58216708 
957.484 58274872 58418240 58653088 58989384 59441772 60030892 60780008 
960.859 61718372 62881476 64309432 66052964 68170240 70719208 73755664 
964.233 77318936 81421720 86037960 91095320 96477128 102008376 107477584 
967.608 112655472 117295392 121179104 124128280 126008688 126744984 
970.501 126311200 124727128 122050896 118381208 113860208 108660280 
973.394 102996448 97114248 91252848 85652528 80517344 75986344 72143128 
976.768 69003952 66533124 64658180 63289948 62340188 61722536 61364456 
980.143 61206532 61197948 61301496 61490720 61748584 62066148 62438732 
983.518 62861792 63329352 63833220 64365000 64918668 65491684 66085680 
986.893 66703820 67349344 68023504 68725056 69452088 70203784 70981520 
990.268 71789656 72633832 73519968 74453608 75440584 76487888 77606616 
993.643 78811856 80123752 81568064 83172984 84969368 86987680 89249744 
997.017 91761552 94499544 97406392 100379176 103279416 105962448 108289320 
1000.392 110171032 111591992 112620648 113401152 114121776 114998808 
1003.285 116223672 117944088 120261760 123225552 126848576 131120624 
1006.178 136021856 141525744 147593472 154173568 161180160 168479264 
1009.070 175893968 183176272 190015456 196071808 200960720 204307776 
1011.963 205803792 205221664 202481376 197666528 191031392 182958864 
1014.856 173898896 164340816 154716736 145384416 136627440 128625064 
1017.748 121481104 115236192 109876328 105353136 101595288 98525856 96066368 
1021.123 94144976 92702808 91687720 91055968 90772312 90804896 91126960 
1024.498 91716488 92551512 93609184 94863232 96277448 97808248 99404664 
1027.873 101007080 102558712 104007808 105313272 106454512 107432512 
1030.766 108274272 109026944 109759160 110552272 111484904 112629968 
1033.659 114039136 115731184 117687024 119843528 122102120 124321208 
1036.552 126337736 127986792 129104064 129560528 129273864 128213960 
1039.446 126408488 123933904 120907200 117457120 113714240 109796792 
1042.339 105794288 101776568 97797624 93899976 90126472 86521216 83124952 
1045.714 79975944 77103064 74522128 72237736 70242888 68521280 67047500 
1049.089 65790100 64715864 63789120 62979988 62265532 61629768 61064412 
1052.464 60565076 60127692 59746972 59416052 59126956 58873564 58652596 
1055.840 58463196 58305904 58180192 58083864 58012964 57963208 57931892 
1059.215 57918488 57925080 57954496 58008532 58087572 58190872 58317388 
1062.590 58468392 58647888 58862028 59118412 59423500 59782108 60197676 
1065.965 60672548 61209928 61814324 62490608 63243216 64074896 64985888 
1069.341 65974356 67037292 68172336 69377912 70653504 71999184 73414880 
1072.716 74900944 76457704 78087520 79794864 81587376 83476576 85476528 
1076.091 87604864 89883360 92336296 94993056 97887288 101054128 104530760 
1079.466 108351872 112543184 117115592 122055160 127317456 132813288 
1082.359 138409648 143941712 149205728 153994752 158122432 161432304 
1085.252 163832896 165306576 165920800 165818512 165212192 164374448 
1088.146 163584944 163128032 163265248 164194800 166056272 168905824 
1091.039 172706144 177307216 182432032 187699712 192584224 196474240 
1093.932 198765120 198886560 196458016 191367184 183796432 174199360 
1096.825 163203776 151545232 139896608 128816648 118721648 109831784 
1099.718 102219720 95839528 90570336 86253512 82718848 79814128 77396816 
1103.093 75342680 73552544 71942248 70449880 69036896 67681176 66375048 
1106.468 65119096 63918396 62780156 61713940 60733820 59855992 59096692 
1109.844 58469640 57980512 57626944 57399460 57286484 57276916 57362588 
1113.219 57537964 57796900 58130452 58527268 58974808 59462976 59987368 
1116.594 60549076 61152440 61801488 62497460 63237892 64018832 64838908 
1119.969 65701284 66613696 67586440 68628072 69742504 70928888 72183312 
1123.344 73501760 74882088 76324648 77831936 79408968 81064048 82815472 
1126.720 84697024 86758816 89075816 91745016 94877448 98611752 103103224 
1130.095 108514216 115009560 122705336 131615816 141563936 152132992 
1132.988 162625232 172044288 179317952 183452816 183792480 180249168 
1135.881 173332560 164060528 153624624 143240400 133899776 126214056 
1138.774 120492016 116739656 114758328 114209744 114693176 115813072 
1141.667 117168272 118416592 119297680 119635176 119374696 118575472 
1144.560 117397760 116049984 114749568 113686040 112978896 112685960 
1147.453 112811824 113329608 114200048 115383272 116846704 118559056 
1150.346 120490312 122614584 124910592 127367840 129986304 132771864 
1153.240 135726464 138839808 142082352 145409888 148771856 152118592 
1156.133 155415696 158645280 161803040 164892832 167919696 170887616 
1159.026 173800432 176666496 179502208 182330016 185176720 188066624 
1161.919 191017200 194041392 197152464 200369008 203723136 207257696 
1164.812 211019680 215057232 219409376 224105760 229172496 234636240 
1167.705 240530592 246897632 253780640 261217152 269231136 277829664 
1170.598 287004928 296738912 307014848 317812832 329105984 340855840 
1173.491 352993696 365420672 378024256 390680224 403283392 415762112 
1176.384 428071904 440186752 452077120 463690784 474950784 485761248 
1179.277 496015712 505607616 514418368 522293696 529033120 534376160 
1182.170 538018048 539673664 539096896 536119744 530673696 522764160 
1185.063 512469824 499943392 485420160 469228096 451763936 433483200 
1187.956 414831648 396189088 377872672 360101216 343013728 326702784 
1190.849 311214368 296563680 282740768 269706592 257402928 245761440 
1193.742 234718832 224225040 214247744 204767856 195772528 187247968 
1196.635 179176864 171544848 164347504 157596480 151326320 145589296 
1199.529 140445536 135964432 132210616 129239200 127100784 125830024 
1202.422 125444696 125941160 127290592 129437384 132296472 135767776 
1205.315 139733296 144063168 148635120 153325664 158018880 162619312 
1208.208 167044736 171239328 175180800 178885152 182409792 185843392 
1211.101 189307088 192929472 196829600 201112336 205846224 211057408 
1213.994 216719392 222750320 229007728 235279088 241313680 246824928 
1216.887 251513088 255119808 257429984 258289872 257612912 255357472 
1219.780 251519056 246126016 239241536 230973856 221473952 210939424 
1222.673 199594864 187668864 175399392 163011120 150709968 138699152 
1225.566 127151936 116212328 105998008 96582856 88009312 80296128 73437128 
1228.941 67410984 62179960 57692556 53882608 50674032 47992784 45766140 
1232.317 43931600 42440952 41252764 40332644 39651056 39178772 38890188 
1235.692 38764784 38786088 38941976 39222180 39613556 40100012 40662108 
1239.067 41277720 41927496 42595012 43267476 43935152 44588620 45217080 
1242.442 45809552 46356268 46851740 47297268 47700944 48076392 48438488 
1245.818 48802816 49184260 49597312 50061840 50603480 51253716 52052752 
1249.193 53043028 54268280 55775248 57609200 59814428 62430504 65479824 
1252.568 68954320 72794600 76885440 81035896 84989400 88471320 91200936 
1255.943 92961792 93651112 93296256 92057000 90177776 87963376 85701328 
1259.319 83618152 81873616 80537688 79614248 79065704 78845856 78921392 
1262.694 79285256 79955464 80965984 82353016 84139664 86330504 88906992 
1266.069 91832816 95050872 98487816 102061104 105671120 109211312 112579592 
1269.444 115675784 118420072 120761912 122682440 124200392 125367088 
1272.337 126265984 126997336 127673056 128416464 129344416 130570680 
1275.230 132200960 134316848 136979136 140220560 144047296 148441216 
1278.124 153365456 158775264 164614128 170819808 177328160 184060752 
1281.017 190928576 197834528 204662704 211294576 217615648 223514976 
1283.910 228900896 233702784 237873040 241395184 244291232 246632448 
1286.803 248532912 250152016 251678944 253290512 255143936 257348384 
1289.696 259948848 262929792 266214304 269681952 273163424 276462720 
1292.589 279383296 281730400 283356800 284188320 284239552 283619648 
1295.482 282512192 281163712 279827424 278746880 278146336 278196992 
1298.375 279026592 280707936 283247712 286579296 290553824 294965824 
1301.268 299544800 303993824 308041280 311437760 313992128 315580768 
1304.161 316128256 315609088 314037248 311463136 307964192 303632960 
1307.054 298567136 292848448 286537088 279674048 272287648 264406976 
1309.947 256069280 247320208 238212720 228803584 219150480 209319808 
1312.840 199391424 189453296 179604208 169938640 160530448 151438256 
1315.733 142701104 134345104 126399800 118897928 111874584 105365720 
1318.626 99395288 93972200 89089360 84726992 80856168 77441688 74444992 
1322.002 71821632 69520440 67489008 65671684 64014608 62471632 60999892 
1325.377 59560064 58118180 56640592 55100228 53481276 51781688 50016072 
1328.752 48211028 46401836 44621488 42896020 41244348 39677628 38203764 
1332.127 36829660 35560388 34398096 33338570 32372002 31484808 30663922 
1335.503 29901232 29194698 28547196 27962178 27440732 26978964 26570802 
1338.878 26210568 25897724 25636596 25434748 25297682 25224566 25207640 
1342.253 25234678 25293960 25377626 25484358 25617546 25781996 25980066 
1345.628 26210182 26467464 26748088 27051390 27382464 27750170 28165382 
1349.004 28636056 29166666 29758740 30413418 31134752 31930998 32813884 
1352.379 33795800 34887788 36098020 37432172 38897076 40502144 42262332 
1355.754 44198500 46334480 48695720 51307300 54190304 57361568 60831308 
1359.129 64603812 68672352 73016424 77600912 82362672 87209704 92026648 
1362.505 96675776 101025776 104975888 108468616 111494024 114072576 
1365.398 116236528 118011440 119410288 120437848 121100096 121414136 
1368.291 121411640 121129608 120603320 119854352 118885904 117682680 
1371.184 116214272 114440824 112312672 109778360 106798816 103359664 
1374.077 99490816 95268880 90807384 86227528 81630800 77093048 72660904 
1377.452 68369776 64263984 60396360 56825080 53599792 50741248 48239572 
1380.827 46059852 44161196 42508696 41082060 39873096 38874244 38068216 
1384.203 37426432 36910424 36483960 36124304 35826116 35600452 35465140 
1387.578 35433788 35508032 35679112 35935196 36268756 36679144 37169828 
1390.953 37742632 38393904 39112708 39887732 40711664 41587408 42527328 
1394.328 43548512 44662212 45866108 47146776 48487648 49879388 51326092 
1397.704 52845208 54459720 56188964 58038260 59997412 62047800 64172596 
1401.079 66365740 68633192 70988896 73446784 76011680 78676640 81420080 
1404.454 84208232 87001768 89757688 92432816 94986664 97380528 99582904 
1407.829 101575528 103355792 104942424 106373656 107707736 109012592 
1410.722 110354608 111797344 113390144 115169104 117162240 119388480 
1413.615 121857712 124565720 127491848 130589664 133779880 136958688 
1416.509 139975840 142629136 144682064 145864288 145939216 144787440 
1419.402 142453744 139134224 135082560 130525976 125610248 120410688 
1422.295 114990648 109442520 103917264 98640152 93842104 89702816 86304720 
1425.670 83615344 81525680 79898000 78618304 77609864 76833944 76277248 
1429.045 75930496 75777600 75798000 75972048 76290912 76754584 77362408 
1432.420 78099296 78929024 79787968 80597072 81274152 81737288 81926552 
1435.796 81815976 81424560 80810824 80049960 79204408 78304080 77352152 
1439.171 76340560 75266072 74141832 73001840 71893952 70882352 70038600 
1442.546 69431680 69133384 69208760 69708424 70669688 72112928 74048776 
1445.921 76486624 79441824 82932680 86968696 91539240 96617208 102184504 
1449.297 108262456 114937416 122353728 130660696 139947312 150160480 
1452.190 161100064 172404288 183631136 194378640 204235808 212775696 
1455.083 219497360 223771264 225014400 222995008 218146304 211446352 
1457.976 203938672 196312864 188760176 181163152 173313776 165076352 
1460.869 156418544 147382256 137997056 128260792 118149024 107667704 
1463.762 96956072 86335200 76240440 67112304 59234300 52665884 47284300 
1467.137 42875464 39230088 36181236 33617868 31464822 29657160 28127624 
1470.512 26809656 25647914 24623382 23759072 23107494 22717650 22607792 
1473.888 22759898 23142022 23733874 24544806 25611078 26989188 28739522 
1477.263 30911798 33552680 36703268 40395440 44633420 49358252 54421072 
1480.638 59538440 64335948 68420072 71443576 73216192 73718600 73082048 
1484.013 71517048 69260336 66533624 63496104 60257704 56880788 53389208 
1487.389 49788228 46076136 42258712 38363388 34454372 30636650 27047510 
1490.764 23823192 21057554 18784090 16969936 15538170 14392899 13445058 
1494.139 12627828 11900019 11248399 10677618 10197265 9811718 9513442 
1497.514 9287941 9122174 9009578 8949570 8942907 8986744 9072977 9191276 
1501.372 9332796 9494206 9677868 9888521 10129326 10398295 10685802 10978868 
1505.229 11265298 11541504 11816184 12105654 12423001 12765149 13115830 
1508.604 13456096 13773168 14062678 14326527 14569736 14795803 15004873 
1511.980 15195136 15364989 15516226 15653880 15784120 15910242 16029902 
1515.355 16134877 16215352 16267119 16295636 16315589 16342321 16383093 
1518.730 16429339 16457936 16436566 16339293 16160669 15927978 15691083 
1522.105 15502079 15387611 15340480 15330731 15323695 15295722 15238511 
1525.481 15160138 15076770 15003398 14945300 14898937 14857482 14819184 
1528.856 14789667 14780034 14798718 14844796 14904355 14955211 14973594 
1532.231 14945472 14876374 14793232 14735813 14735471 14804238 14932097 
1535.606 15099103 15283984 15471588 15653331 15820235 15960287 16056994 
1538.982 16094953 16073223 16015772 15969673 15981017 16073979 16241802 
1542.357 16456077 16682612 16896864 17093300 17284550 17492718 17735774 
1545.732 18019444 18334610 18665122 18996126 19322188 19649052 19989620 
1549.107 20356568 20755348 21182328 21627488 22082970 22548074 23030586 
1552.483 23542424 24093004 24683738 25306674 25947950 26596236 27245276 
1555.858 27891862 28531096 29144060 29693596 30132938 30428770 30600172 
1559.233 30725156 30909876 31217346 31643264 32142312 32659576 33155426 
1562.608 33609316 34024648 34422016 34831600 35280160 35783012 36342568 
1565.984 36953712 37613516 38328028 39113108 39990136 40979104 42091448 
1569.359 43330296 44694012 46177504 47777836 49484968 51276944 53109412 
1572.734 54917640 56624736 58130788 59330960 60124000 60425260 60200304 
1576.109 59485200 58388260 57044328 55571852 54046336 52500696 50947124 
1579.485 49397160 47870204 46402904 45044480 43841164 42833008 42041764 
1582.860 41470008 41104496 40921688 40895296 40998152 41209260 41516124 
1586.235 41912568 42396452 42965332 43613096 44331240 45113144 45960320 
1589.610 46886176 47916156 49083192 50417336 51943360 53677400 55629092 
1592.986 57804240 60203384 62815996 65609596 68525480 71491536 74439056 
1596.361 77344592 80258224 83328104 86785848 90915184 96045952 102499216 
1599.736 110581512 120585648 132760168 147282288 164165840 183176336 
1602.629 203643936 224313808 243475216 258984512 268714400 271144448 
1605.522 265637968 252666800 233585872 210388080 185234176 160027344 
1608.415 136349648 115209104 97076216 82053528 69948248 60419852 53056432 
1611.791 47453468 43236984 40071888 37695216 35894956 34502332 33396854 
1615.166 32485824 31710022 31051608 30527010 30173854 30022928 30079350 
1618.541 30315914 30685542 31132546 31608626 32081730 32535064 32968466 
1621.916 33391702 33816860 34251540 34696452 35150948 35616420 36099784 
1625.292 36609600 37150664 37720188 38306820 38898524 39489472 40088092 
1628.667 40715376 41398568 42157272 42994524 43895452 44833812 45784696 
1632.042 46727412 47653392 48562304 49453220 50320892 51154252 51946268 
1635.417 52703816 53457292 54251044 55113616 56045948 57016932 57979984 
1638.792 58884908 59695836 60403936 61025632 61595824 62149832 62709332 
1642.168 63274188 63827312 64343712 64803520 65198020 65528484 65803872 
1645.543 66037840 66256696 66504240 66846788 67363312 68110704 69106976 
1648.918 70321104 71689520 73121880 74516736 75786632 76858624 77713880 
1652.293 78416232 79140240 80099368 81412328 83076080 85000720 87095056 
1655.669 89305416 91611984 94012888 96503608 99079200 101734232 104464800 
1659.044 107279440 110195936 113234224 116412896 119745424 123244696 
1661.937 126928288 130827872 134982848 139417008 144134224 149105584 
1664.830 154282032 159606688 165036512 170562880 176198144 181988144 
1667.723 188002000 194322480 201030384 208187648 215836496 223966704 
1670.616 232526240 241434384 250605728 259974992 269514336 279261632 
1673.509 289282464 299637376 310320128 321194688 331989632 342369408 
1676.402 352048576 360852064 368703936 375555040 381348640 386027904 
1679.295 389564736 392017440 393523360 394240544 394222048 393327808 
1682.188 391194592 387355872 381490016 373793952 365132288 356766592 
1685.082 349685408 344148096 339779840 335918336 331974816 327542016 
1687.975 322463296 316774752 310628704 304196704 297609248 290969024 
1690.868 284369152 277911072 271693760 265738720 259931536 253985312 
1693.761 247484384 240005088 231344912 221755296 211971872 202912336 
1696.654 195168288 188767024 183194512 177674496 171353264 163595248 
1699.547 154280336 143991760 133843872 124857504 117463592 111442848 
1702.440 106278592 101447312 96604416 91605352 86483808 81382040 76480424 
1705.815 71934736 67829584 64191684 61016632 58287112 55972824 54016016 
1709.190 52332280 50820500 49395932 48020504 46707896 45507216 44464244 
1712.566 43594008 42863180 42206824 41556704 40881204 40199772 39573704 
1715.941 39068116 38714720 38493020 38349020 38236332 38154708 38148160 
1719.316 38273564 38557144 38974776 39459572 39926272 40310176 40582936 
1722.691 40766436 40913604 41083080 41304324 41567756 41837332 42081004 
1726.067 42295312 42513956 42792348 43182376 43710476 44366544 45116744 
1729.442 45925552 46780364 47697468 48711288 49852628 51132636 52537864 
1732.817 54047764 55656476 57397080 59322676 61485988 63891604 66492228 
1736.192 69225352 72046512 74957248 78005424 81284736 84904944 88955752 
1739.568 93466576 98405528 103716664 109372016 115409384 121935096 129079488 
1742.943 136954736 145606560 155006912 165061232 175645440 186652848 
1745.836 197971216 209466000 220952848 232128672 242583904 251848064 
1748.729 259404384 264790272 267663088 267862672 265475728 260843184 
1751.622 254514880 247081568 239049168 230756080 222338688 213802256 
1754.515 205090992 196154336 187022064 177839344 168838816 160302080 
1757.408 152461504 145426832 139178320 133590280 128493416 123722872 
1760.301 119171720 114816512 110720400 107003728 103788192 101146080 
1763.194 99067712 97470344 96223024 95188352 94237256 93257312 92164320 
1766.570 90895896 89418776 87731528 85860344 83843480 81706256 79442464 
1769.945 77004152 74316368 71302824 67937056 64280888 60492480 56775232 
1773.320 53296708 50132680 47258440 44590420 42034868 39532400 37071372 
1776.695 34683392 32413058 30294810 28334230 26509058 24786966 23148312 
1780.071 21600498 20174130 18904996 17809954 16875748 16063046 15326167 
1783.446 14628950 13960906 13334786 12775659 12302116 11914492 11594249 
1786.821 11316478 11062372 10827130 10618703 10448592 10321095 10227150 
1790.196 10145335 10052276 9936388 9806499 9690133 9617700 9607572 9654864 
1794.054 9738824 9834426 9926828 10017520 10119694 10249236 10414110 
1797.429 10608619 10815648 11015809 11196886 11360249 11519592 11691042 
1800.804 11882140 12085928 12283267 12453688 12583042 12670162 12722327 
1804.179 12748736 12751431 12721782 12643929 12503133 12294072 12025016 
1807.555 11714733 11383107 11043916 10697789 10336365 9950016 9537998 
1810.930 9113343 8700225 8322150 7992326 7707676 7453008 7208899 6963647 
1814.787 6718501 6486105 6282944 6118421 5989837 5883692 5784860 5684674 
1818.645 5587329 5506551 5457930 5447797 5469170 5504000 5533330 5546351 
1822.502 5545243 5542525 5554137 5589612 5646975 5714485 5779521 5837782 
1826.360 5896253 5970016 6071579 6204388 6358891 6517485 6663014 6790519 
1830.217 6909847 7042610 7207652 7410673 7641440 7880226 8107764 8313099 
1834.074 8498560 8675311 8855178 9041141 9223732 9384425 9506195 9581557 
1837.932 9617464 9631149 9641313 9657947 9677326 9684611 9662284 9599814 
1841.789 9497017 9365364 9220483 9077173 8942163 8816223 8699007 8595375 
1845.647 8516570 8475618 8479537 8524679 8596828 8677711 8752421 8816223 
1849.504 8875401 8942501 9026120 9123494 9219163 9291089 9321149 9302734 
1853.362 9243735 9160311 9068240 8972571 8865830 8732509 8560228 8347414 
1857.219 8106380 7857248 7618509 7398236 7191617 6985600 6769653 6543351 
1861.076 6318479 6113515 5942303 5806887 5695047 5588337 5470009 5335478 
1864.934 5192807 5057960 4943865 4852317 4771908 4684951 4578623 4454611 
1868.791 4331003 4233761 4182874 4180331 4209839 4245673 4266619 4264110 
1872.649 4245205 4225263 4219475 4233259 4259592 4283919 4294493 4289440 
1876.506 4279703 4282212 4309753 4363634 4432384 4498265 4546210 4574169 
1880.364 4593089 4621787 4675138 4756801 4856169 4956098 5041333 5107039 
1884.221 5161153 5218058 5288721 5372881 5456923 5520477 5547895 5534001 
1888.078 5488497 5429947 5377309 5339470 5313273 5287379 5251124 5202498 
1891.936 5148110 5097820 5057826 5024841 4986865 4929958 4846721 4741994 
1895.793 4632001 4536333 4465759 4417957 4377256 4325280 4249554 4152732 
1899.651 4050112 3963132 3906592 3880782 3871956 3859755 3829301 3778160 
1903.508 3717267 3663299 3628782 3613513 3604927 3584781 3541786 3476016 
1907.365 3401339 3335791 3292119 3269751 3255596 3231094 3183761 3115209 
1911.223 3039827 2977202 2940272 2929130 2931498 2930564 2914352 2882664 
1915.080 2846843 2821930 2816860 2828300 2841340 2839672 2815226 2775709 
1918.938 2739630 2727459 2748466 2794817 2845175 2875560 2872358 2839038 
1922.795 2795717 2767339 2771807 2810791 2870056 2929297 2975233 3008196 
1926.653 3041362 3091281 3166639 3261672 3358429 3436505 3484366 3507246 
1930.510 3524616 3558823 3622868 3712153 3806671 3883691 3928291 3942869 
1934.367 3945343 3958284 3995166 4053356 4114063 4154572 4161764 4138448 
1938.225 4102021 4074226 4068005 4078909 4087772 4071417 4016903 3929829 
1942.082 3833045 3752258 3703565 3681744 3665303 3627446 3553344 3447894 
1945.940 3333687 3238371 3179055 3153923 3144211 3125688 3082805 3018139 
1949.797 2949479 2899609 2880763 2886433 2893938 2878528 2826332 2743464 
1953.655 2651711 2578143 2538547 2529748 2532248 2523483 2494356 2454401 
1957.512 2430610 2450502 2527349 2650011 2788548 2907914 2989312 3038892 
1961.369 3084507 3157294 3276929 3439077 3621465 3795106 3943705 4069878 
1965.227 4193747 4338566 4512762 4704244 4883076 5019177 5095674 5118673 
1969.084 5107508 5082499 5047099 4984251 4860861 4649550 4343520 3965439 
1972.942 3559091 3169943 2829033 2539480 2285559 2047699 1822712 1628805 
1976.799 1496656 1449379 1483988 1566051 1647563 1684051 1658140 1583975 
1980.656 1496390 1429665 1399814 1397487 1396224 1370064 1308211 1221712 
1984.514 1137821 1084106 1072081 1093606 1125828 1147289 1151010 1149481 
1988.371 1165096 1218489 1312465 1431361 1547994 1640612 1707103 1768147 
1992.229 1857085 2000329 2204459 2449636 2700352 2921524 3095253 3225619 
1996.086 3332619 3436138 3542688 3638104 3697015 3693974 3619561 3485034 
1999.944 3317393 3145612 2984775 2832235 2670613 2485091 2271369 2044802 
2003.801 1830798 1654248 1524253 1431361 1352448 1268000 1174797 1089321 
2007.658 1037206 1037505 1088291 1165096 1231647 1257931 1235867 1182306 
2011.516 1129515 1104601 1117590 1154664 1188718 1195064 1166823 1117490 
2015.373 1073975 1060024 1081116 1121908 1156093 1163302 1141043 1109949 
2019.231 1099618 1136259 1224968 1348526 1476707 1585970 1670679 1746323 
2023.088 1840713 1975930 2154974 2360044 2559844 2726659 2851712 2944141 
2026.946 3025412 3114174 3214637 3314121 3395328 3445923 3471073 3492349 
2030.803 3536742 3619026 3735246 3860590 3964135 4026133 4047437 4048273 
2034.660 4057035 4092187 4151561 4213553 4249387 4241858 4193613 4126740 
2038.518 4069644 4043490 4049544 4070648 4081986 4066968 4027304 3983094 
2042.375 3961226 3979283 4037303 4116872 4192275 4243197 4267522 4280171 
2046.233 4304399 4357074 4440484 4540183 4636187 4711043 4760988 4794723 
2050.090 4826015 4863105 4904020 4936828 4949261 4936962 4908678 4882037 
2053.948 4876073 4899898 4946949 4998361 5031780 5034059 5007411 4967862 
2057.805 4934750 4920775 4924730 4931566 4921747 4881636 4810938 4722030 
2061.662 4633642 4558833 4499471 4446142 4385088 4307243 4215226 4121321 
2065.520 4042052 3986806 3953435 3928659 3896863 3848723 3787051 3725922 
2069.377 3682245 3667174 3679872 3708077 3735179 3750519 3753728 3754096 
2073.235 3764858 3793635 3837892 3886499 3925148 3945644 3951028 3953870 
2077.092 3969218 4006503 4064795 4132862 4197594 4249989 4290845 4330066 
2080.949 4379799 4447012 4528632 4612812 4685487 4737237 4767955 4786046 
2084.807 4803836 4829499 4862670 4896078 4919938 4929656 4928081 4925534 
2088.664 4933074 4956802 4992965 5030439 5055613 5060508 5046093 5022763 
2092.522 5003087 4996283 5003087 5016629 5026115 5024674 5011635 4993200 
2096.379 4977883 4970308 4968599 4965851 4955595 4935889 4911828 4893028 
2100.237 4887332 4895709 4910018 4916251 4902076 4863206 4806448 4745243 
2104.094 4693827 4659731 4639000 4619878 4588333 4536601 4465624 4385824 
2107.951 4308749 4242461 4186554 4133999 4075765 4007573 3932170 3858484 
2111.809 3795307 3746342 3706974 3667709 3618893 3556986 3487473 3421811 
2115.666 3372220 3344338 3335223 3333520 3327744 3309514 3278899 3242477 
2119.524 3208829 3182460 3162600 3143009 3118045 3087210 3057078 3037925 
2123.381 3038692 3061082 3097522 3134732 3158896 3163235 3150418 3129926 
2127.239 3112706 3104396 3103362 3102661 3095519 3080936 3065587 3061449 
2131.096 3078801 3119047 3173848 3227822 3266914 3285142 3288647 3290884 
2134.953 3306142 3340499 3388549 3436138 3470238 3484800 3486470 3488842 
2138.811 3505509 3541586 3590995 3637871 3667074 3671151 3654109 3629050 
2142.668 3608268 3596207 3586585 3566641 3523647 3454874 3369950 3285976 
2146.526 3219077 3173915 3142342 3106799 3052106 2971997 2873358 2771207 
2150.383 2679982 2602342 2528848 2442205 2328863 2186876 2030787 1883341 
2154.240 1765253 1684051 1631200 1586469 1533929 1471022 1415603 1395426 
2158.098 1434220 1535857 1679827 1831330 1955859 2039443 2088115 2122875 
2161.955 2164065 2219079 2280030 2332194 2362476 2372004 2376135 2398024 
2165.813 2454934 2549545 2666446 2780311 2869756 2923993 2947644 2955217 
2169.670 2960688 2968628 2973132 2962222 2927796 2874592 2819428 2785280 
2173.528 2791215 2842073 2927462 3027014 3120415 3198281 3264143 3330115 
2177.385 3405046 3490044 3573656 3639274 3672822 3672454 3648429 3620363 
2181.242 3605461 3610774 3630821 3652572 3663900 3661026 3650334 3643985 
2185.100 3652004 3677233 3711385 3743434 3765092 3776990 3788588 3812822 
2188.957 3857916 3921972 3994063 4058607 4104697 4132226 4151662 4178692 
2192.815 4225029 4294393 4379900 4471316 4559603 4643589 4729399 4826182 
2196.672 4937732 5060005 5180702 5285702 5365870 5422465 5465748 5510007 
2200.530 5565313 5632407 5703003 5765183 5810481 5839193 5858940 5880098 
2204.387 5909319 5944419 5977037 5995682 5996051 5982580 5968438 5969412 
2208.244 5994976 6044968 6109381 6173400 6225631 6265060 6298509 6337474 
2212.102 6390834 6457888 6530401 6596703 6646999 6679972 6702349 6725399 
2215.959 6757773 6802669 6855918 6910251 6960382 7005400 7048739 7094305 
2219.817 7142066 7186227 7217658 7228843 7219275 7198557 7182892 7187574 
2223.674 7221734 7282043 7355469 7425099 7478154 7510989 7529699 7545511 
2227.531 7567022 7597469 7632032 7662450 7681032 7685551 7679042 7667441 
2231.389 7655030 7641643 7623365 7595614 7557379 7512741 7470030 7436761 
2235.246 7416167 7405112 7395304 7377779 7349133 7312335 7276450 7250809 
2239.104 7241679 7248182 7264421 7282919 7299396 7314828 7335250 7365984 
2242.961 7409527 7461907 7515472 7561897 7597435 7624579 7649938 7681167 
2246.819 7721032 7766803 7811332 7847599 7872836 7890449 7908130 7933876 
2250.676 7971706 8019293 8070092 8117656 8159350 8197672 8238937 8288376 
2254.533 8345624 8403691 8450953 8476159 8474536 8449602 8412102 8374808 
2258.391 8347414 8333161 8329445 8330763 8332857 8335897 8343429 8359236 
2262.248 8384841 8416899 8448758 8474536 8491261 8501702 8512008 8528734 
2266.106 8554687 8588278 8623427 8654591 8680212 8703977 8732542 8773823 
2269.963 8830695 8900529 8975886 9047908 9110839 9164372 9212529 9260896 
2273.821 9313906 9371865 9431558 9488754 9540402 9587077 9631658 9677970 
2277.678 9727507 9779048 9829511 9875777 9917030 9955813 9996125 10041798 
2281.535 10093817 10149540 10204558 10255308 10300499 10342132 10384007 
2284.911 10429314 10477952 10526731 10570559 10604884 10628584 10644339 
2288.286 10656836 10671098 10689096 10709438 10728016 10740480 10744521 
2291.661 10741125 10733551 10725434 10718982 10714193 10709268 10702714 
2295.036 10694223 10685972 10680640 10680300 10684783 10691711 10697789 
2298.412 10700778 10701152 10701898 10706993 10719219 10738340 10760383 
2301.787 10779744 10791700 10794383 10789866 10782563 10777502 10777434 
2305.162 10782665 10791020 10799581 10807258 10814731 10823903 10836744 
2308.537 10853390 10872177 10890524 10905983 10918826 10930752 10944718 
2311.913 10962863 10985189 11009080 11031238 11049252 11063561 11076544 
2315.288 11092384 11114242 11142388 11174515 11206780 11235953 11261013 
2318.663 11283525 11306548 11332837 11363175 11395624 11426851 11453793 
2322.038 11475124 11491421 11504111 11513944 11520239 11520647 11513468 
2325.414 11498667 11479138 11460053 11447364 11444506 11451957 11466211 
2328.789 11482609 11496831 11507786 11517857 11531297 11551985 11581283 
2332.164 11617254 11655678 11693119 11728213 11762085 11797935 11838282 
2335.539 11883503 11930737 11976069 12015785 12049203 12078535 12108142 
2338.915 12142282 12183683 12232109 12285653 12341658 12398862 12456928 
2342.290 12515752 12574378 12629772 12678521 12718233 12749794 12779173 
2345.665 12814970 12867186 12942280 13041560 13160807 13292660 13428277 
2349.040 13559356 13680628 13787908 13878385 13949991 14000976 14030405 
2352.416 14039783 14033075 14016751 13997486 13980890 13968674 13959538 
2355.791 13950026 13937024 13920225 13901819 13885842 13875921 13873014 
2359.166 13875237 13878657 13879547 13876365 13871063 13867437 13870242 
2362.541 13882900 13907361 13943764 13992387 14053369 14126991 14212642 
2365.917 14308412 14409682 14511662 14609724 14702737 14792512 14883884 
2369.292 14981550 15089016 15206529 15331727 15461253 15593085 15726605 
2372.667 15863329 16004357 16149767 16297219 16442690 16582187 16713120 
2376.042 16835102 16950022 17059836 17165958 17267586 17362722 17449772 
2379.417 17528180 17599804 17668474 17738258 17812438 17891706 17974858 
2382.793 18060096 18145698 18231486 18318436 18407820 18500336 18595188 
2386.168 18690960 18786270 18881080 18976882 19076374 19181290 19291360 
2389.543 19403710 19513418 19615010 19705112 19782888 19850344 19911320 
2392.918 19968282 20022512 20073278 20118392 20156604 20188224 20214604 
2396.294 20238382 20261122 20283028 20302748 20318930 20330908 20339796 
2399.669 20348200 20359242 20374832 20395286 20418728 20442902 20466344 
2403.044 20488818 20511638 20536510 20564130 20593484 20622220 20647618 
2406.419 20667982 20683966 20697692 20711976 20728796 20748538 20769878 
2409.795 20791116 20810928 20829594 20848088 20868078 20890118 20913344 
2413.170 20935874 20955868 20972698 20987372 21001874 21018498 21038112 
2416.545 21060336 21083432 21106110 21128302 21151992 21179856 21214372 
2419.920 21256298 21304006 21354572 21404660 21452732 21499626 21547536 
2423.296 21599488 21657090 21719926 21785730 21851928 21916220 21978466 
2426.671 22039500 22100542 22161628 22221676 22278488 22330180 22375634 
2430.046 22415860 22452808 22488748 22524238 22559312 22592538 22623150 
2433.421 22652088 22681308 22713986 22752496 22797190 22846220 22896548 
2436.797 22945660 22992750 23039602 23089532 23145060 23207342 23274806 
2440.172 23343960 23410956 23473764 23532420 23589230 23647376 23708574 
2443.547 23773562 23841464 23911336 23982902 24057666 24138048 24225730 
2446.922 24321140 24421972 24524610 24625312 24721724 24813768 24903834 
2450.298 24994760 25088830 25186854 25288446 25391852 25496514 25602328 
2453.673 25710238 25820814 25933812 26048032 26161544 26272516 26380630 
2457.048 26486728 26592852 26700800 26811418 26924108 27037390 27149504 
2460.423 27259848 27367994 27475006 27580806 27684762 27785350 27881016 
2463.799 27971084 28056610 28140316 28224920 28312832 28404476 28498226 
2467.174 28592244 28684866 28776164 28867868 28962958 29063560 29170458 
2470.549 29282486 29397450 29512692 29627220 29740856 29854486 29968146 
2473.924 30081480 30192750 30300386 30404070 30505292 30607246 30713600 
2477.300 30826668 30946630 31070862 31195628 31317580 31435684 31550936 
2480.675 31666606 31785984 31911026 32041278 32175064 32309894 32444120 
2484.050 32577780 32711804 32847940 32987590 33130754 33276930 33425522 
2487.425 33576236 33729512 33885672 34044608 34205148 34365212 34522888 
2490.801 34676928 34828080 34978276 35130000 35285156 35443676 35604264 
2494.176 35765164 35924612 36082396 36239724 36398520 36559748 36723096 
2497.551 36887120 37049576 37209536 37367204 37524568 37684340 37848252 
2500.926 38016572 38187416 38358288 38526800 38692300 38856128 39020412 
2504.302 39187696 39359072 39533380 39708524 39882104 40052044 40218528 
2507.677 40382424 40545540 40709480 40875016 41042324 41211444 41381836 
2511.052 41552948 41723732 41892352 42056476 42213616 42362188 42502444 
2514.427 42637084 42769420 42903664 43042672 43186768 43335384 43486176 
2517.802 43638112 43790988 43945972 44104272 44266260 44430920 44595600 
2521.178 44757076 44913428 45064256 45211380 45357416 45505084 45655448 
2524.553 45807564 45959248 46108080 46252244 46391440 46526476 46658600 
2527.928 46788888 46917924 47045844 47173588 47302956 47436132 47576304 
2531.303 47725764 47885448 48054996 48233388 48419116 48610920 48808856 
2534.679 49013264 49224336 49442008 49665360 49893400 50124944 50359440 
2538.054 50596516 50836036 51077136 51318040 51557020 51791468 52019396 
2541.429 52239480 52450556 52651224 52839672 53013116 53168540 53303488 
2544.804 53416000 53505340 53571380 53613588 53630648 53619696 53577336 
2548.180 53500616 53388236 53241384 53063096 52858420 52632560 52390068 
2551.555 52134296 51868600 51595340 51317928 51039680 50763144 50490096 
2554.930 50220528 49952536 49684308 49414272 49141920 48868740 48597176 
2558.305 48329668 48068580 47815380 47570796 47335768 47111908 46900976 
2561.681 46705200 46526072 46365080 46222352 46098168 45992768 45907280 
2565.056 45842212 45798432 45775896 45773580 45790072 45824132 45875208 
2568.431 45943452 46029204 46132508 46252020 46385504 46529796 46681660 
2571.806 46839780 47003752 47175104 47355612 47546800 47749320 47963404 
2575.182 48188292 48424336 48671592 48930632 49202256 49486008 49780572 
2578.557 50084672 50396200 50713948 51037036 51364912 51695616 52026976 
2581.932 52354852 52674152 52980020 53268128 53534836 53777592 53993204 
2585.307 54178292 54328692 54439516 54506336 54526248 54497020 54417880 
2588.683 54288816 54109644 53880132 53600920 53272996 52899588 52485516 
2592.058 52037136 51561012 51063312 50549088 50021908 49485376 48943388 
2595.433 48400448 47862252 47334328 46820920 46325336 45849652 45394456 
2598.808 44961092 44550768 44164900 43804988 43471416 43163020 42877880 
2602.184 42613360 42367484 42139380 41929392 41738136 41566660 41414932 
2605.559 41282348 41167512 41069312 40986320 40917540 40862164 40818848 
2608.934 40786092 40762468 40746492 40737976 40736812 40743544 40758792 
2612.309 40782376 40813280 40850264 40891764 40936760 40984352 41034204 
2615.685 41085956 41138952 41192464 41245840 41299148 41353156 41409284 
2619.060 41468844 41532604 41600464 41671172 41743136 41815148 41886512 
2622.435 41957636 42029392 42102652 42178156 42256376 42337572 42422284 
2625.810 42511584 42606564 42708072 42816152 42929596 43046256 43164080 
2629.186 43281168 43397080 43512616 43629176 43748040 43870160 43995468 
2632.561 44123156 44252832 44383756 44515892 44649248 44783412 44917328 
2635.936 45049808 45179136 45304456 45425648 45543720 45659648 45774608 
2639.311 45888904 46001980 46113276 46222276 46329096 46435020 46541596 
2642.687 46650300 46761472 46874992 46989800 47104748 47219136 47332888 
2646.062 47446188 47559668 47672840 47785120 47895028 48001260 48102632 
2649.437 48198620 48289340 48375184 48456492 48533184 48605140 48672220 
2652.812 48734532 48792544 48846788 48897516 48944836 48988300 49027136 
2656.188 49060932 49089424 49113096 49132644 49148860 49161996 49172276 
2659.563 49179248 49182920 49183480 49181552 49178208 49174796 49172052 
2662.938 49170604 49170120 49170120 49169676 49167820 49163628 49156468 
2666.313 49145892 49131496 49113388 49091392 49065012 49033148 48993904 
2669.688 48944244 48880496 48798960 48696500 48571380 48423448 48253788 
2673.064 48065064 47859992 47642596 47416176 47185336 46955392 46732060 
2676.439 46521644 46330316 46163204 46024596 45916928 45841584 45798908 
2679.814 45788088 45807820 45855872 45928864 46023012 46133724 46256484 
2683.189 46387680 46524040 46663252 46803648 46943428 47081188 47215732 
2686.565 47346520 47473720 47598336 47721988 47845972 47971360 48098228 
2689.940 48225796 48353184 48479348 48603288 48724448 48842116 48954996 
2693.315 49061564 49159844 49248164 49325032 49389736 49441636 49480364 
2696.690 49504908 49514080 49506508 49481108 49437628 49376592 49299084 
2700.066 49205748 49096436 48969500 48822132 48650728 48452044 48223540 
2703.441 47963812 47672512 47349660 46995340 46609392 46191652 45742360 
2706.816 45262492 44754172 44220844 43666696 43096892 42517284 41933732 
2710.191 41352828 40780888 40223616 39686232 39171812 38682772 38220192 
2713.567 37784272 37375656 36994880 36642552 36318864 36023132 35753328 
2716.942 35506740 35279948 35069976 34874612 34692216 34522028 34362988 
2720.317 34214364 34074680 33943168 33819476 33703980 33597932 33502680 
2723.692 33419222 33347518 33286910 33235866 33192408 33155176 33122956 
2727.068 33095136 33071466 33051692 33035710 33023734 33015724 33012402 
2730.443 33014796 33023160 33037856 33058736 33085014 33115912 33150598 
2733.818 33188614 33229712 33273246 33318822 33365298 33411958 33458192 
2737.193 33503432 33547706 33591308 33634124 33676052 33716584 33755544 
2740.569 33793332 33831188 33871164 33915584 33966816 34026300 34094532 
2743.944 34171380 34256240 34348284 34447520 34553924 34667312 34787552 
2747.319 34913460 35044040 35177608 35313080 35449680 35586964 35724584 
2750.694 35862568 36000420 36137376 36272644 36405836 36536180 36663392 
2754.070 36786744 36905660 37019088 37126880 37228776 37325352 37417544 
2757.445 37506580 37592740 37676284 37756548 37832492 37903352 37968616 
2760.820 38028580 38083628 38134524 38181404 38224316 38262820 38296652 
2764.195 38325280 38348912 38367696 38381884 38391948 38398428 38402048 
2767.571 38404364 38407188 38412652 38422608 38438392 38460508 38489036 
2770.946 38523468 38563844 38610156 38662964 38722656 38789636 38863080 
2774.321 38941756 39024288 39109484 39196724 39286196 39378844 39475572 
2777.696 39577296 39684272 39797048 39915520 40039620 40169460 40304756 
2781.072 40445080 40589304 40736304 40884992 41034820 41185764 41338468 
2784.447 41493304 41651040 41811464 41974352 42139164 42305572 42473544 
2787.822 42643552 42815676 42990244 43166824 43344720 43523168 43701976 
2791.197 43880640 44059968 44240320 44421964 44605108 44789732 44975680 
2794.573 45163140 45352560 45544384 45738640 45934684 46131404 46327068 
2797.948 46520316 46710292 46896844 47080928 47263648 47445820 47627768 
2801.323 47809536 47990936 48172004 48352740 48533812 48715700 48898516 
2804.698 49081780 49264752 49446612 49627172 49806436 49985176 50163620 
2808.073 50341580 50517676 50690156 50856928 51016204 51167376 51310952 
2811.449 51448236 51580824 51710096 51837016 51962028 52085400 52207232 
2814.824 52327756 52446852 52564564 52680400 52793872 52904676 53013304 
2818.199 53120980 53229208 53340352 53455608 53575540 53699520 53826348 
2821.574 53954184 54081760 54208136 54332972 54456264 54577900 54697208 
2824.950 54813500 54925764 55032824 55134048 55228892 55316912 55397872 
2828.325 55471092 55536044 55592036 55638660 55675420 55702240 55718892 
2831.700 55724656 55718928 55700848 55669768 55625252 55567484 55497036 
2835.075 55414852 55321916 55218848 55105796 54982128 54846920 54698636 
2838.451 54536464 54359744 54169096 53966304 53754224 53536932 53318436 
2841.826 53102296 52891912 52689304 52495760 52312392 52140536 51981376 
2845.201 51836416 51706772 51592880 51494420 51410376 51339296 51280376 
2848.576 51233320 51198612 51177140 51169688 51176468 51196972 51229932 
2851.952 51273780 51327208 51389004 51458268 51534448 51616536 51703900 
2855.327 51795688 51891340 51990896 52094436 52202112 52313592 52428012 
2858.702 52543776 52659452 52773704 52885588 52995032 53102184 53207412 
2862.077 53310568 53411428 53509272 53603992 53695508 53784076 53870304 
2865.453 53954108 54034368 54109308 54176608 54233624 54278564 54310632 
2868.828 54330044 54337400 54333872 54319828 54295236 54259680 54212192 
2872.203 54151908 54078120 53990612 53889508 53775864 53651040 53517708 
2875.578 53378904 53237824 53097656 52960968 52829308 52703480 52583972 
2878.954 52470748 52364460 52265564 52174800 52092236 52017564 51949968 
2882.329 51888016 51830260 51775940 51724576 51676504 51631984 51591160 
2885.704 51553812 51519188 51486624 51455212 51424328 51393596 51362340 
2889.079 51330008 51295516 51258376 51217812 51173376 51125180 51073336 
2892.455 51018072 50959232 50896828 50830632 50760760 50687360 50610368 
2895.830 50530180 50446588 50358992 50266988 50170312 50069200 49964360 
2899.205 49857012 49748432 49639616 49531240 49423408 49316084 49209048 
2902.580 49102444 48996128 48889840 48783204 48675668 48566824 48456344 
2905.956 48344812 48233128 48122212 48012696 47904796 47798032 47691628 
2909.331 47585324 47479524 47375156 47273068 47173516 47074944 46975032 
2912.706 46870084 46756892 46633664 46500624 46359548 46213212 46064460 
2916.081 45914612 45764156 45612388 45458464 45302504 45145532 44989644 
2919.457 44837120 44690228 44550036 44417264 44291944 44174180 44064260 
2922.832 43962616 43869352 43784576 43707984 43639144 43578220 43526060 
2926.207 43483572 43451860 43431500 43421792 43421136 43427068 43437760 
2929.582 43451968 43469988 43492840 43522764 43561588 43610936 43672076 
2932.958 43745656 43832332 43932772 44047320 44176236 44319244 44475808 
2936.333 44644916 44825180 45015148 45212740 45415348 45619492 45820744 
2939.708 46014096 46195152 46359696 46504936 46629460 46732872 46815644 
2943.083 46878424 46922536 46949188 46960780 46960004 46949964 46933760 
2946.458 46914376 46894004 46874512 46857424 46844392 46837124 46837124 
2949.834 46845684 46863216 46888832 46920836 46957016 46995152 47033552 
2953.209 47071584 47109324 47146812 47184484 47222384 47260320 47297968 
2956.584 47334992 47371168 47405684 47438168 47467404 47492500 47512680 
2959.959 47527652 47537488 47542884 47544508 47543032 47538744 47531796 
2963.335 47522552 47511388 47499080 47486512 47474240 47462228 47450176 
2966.710 47436948 47421720 47403464 47381848 47356904 47328748 47297344 
2970.085 47262980 47225448 47184968 47141936 47096732 47049724 47001096 
2973.460 46950520 46897728 46842660 46785936 46729036 46674244 46623372 
2976.836 46577928 46538056 46502580 46470016 46438524 46407476 46377060 
2980.211 46348228 46322460 46300860 46284052 46272000 46264700 46262416 
2983.586 46265288 46273880 46288032 46306868 46329060 46352912 46377284 
2986.961 46401912 46427832 46456484 46488860 46525040 46563432 46601276 
2990.337 46635472 46663400 46683912 46697160 46704240 46706676 46705496 
2993.712 46701068 46693468 46682620 46668932 46653400 46636840 46619868 
2997.087 46602052 46582132 46558192 46528396 46491772 46448188 46398816 
3000.462 46344876 46288220 46229576 46169396 46107676 46044268 45978772 
3003.838 45911404 45842176 45771628 45700136 45628288 45556856 45486832 
3007.213 45418992 45354584 45293896 45237228 45184316 45134904 45088588 
3010.588 45045216 45004712 44967116 44932024 44898992 44867320 44836240 
3013.963 44805488 44774888 44744732 44715276 44686816 44658976 44631584 
3017.339 44604080 44575516 44545444 44513104 44477972 44439688 44398068 
3020.714 44353332 44306328 44258336 44210384 44163432 44117328 44070896 
3024.089 44021868 43967968 43906964 43837536 43759548 43673544 43580564 
3027.464 43481672 43377124 43267076 43150904 43028584 42900228 42766748 
3030.840 42629808 42491084 42352692 42216756 42084656 41957492 41835612 
3034.215 41718588 41605676 41495640 41387556 41281220 41177348 41077360 
3037.590 40983004 40896020 40817136 40746164 40681644 40622080 40565148 
3040.965 40509056 40452208 40392820 40329044 40258624 40179092 40088492 
3044.341 39985524 39870300 39743960 39608696 39467120 39322072 39176384 
3047.716 39032952 38894608 38764172 38643840 38535272 38439044 38354848 
3051.091 38281636 38218456 38164404 38119472 38083516 38056280 38037004 
3054.466 38023624 38013856 38005180 37995560 37983772 37969092 37951224 
3057.842 37929276 37902016 37868176 37826272 37776500 37719900 37658540 
3061.217 37594836 37531000 37467608 37404544 37340700 37275204 37207584 
3064.592 37138212 37067840 36997404 36927232 36857036 36786164 36714264 
3067.967 36641288 36568188 36496064 36425976 36358924 36295268 36235116 
3071.343 36179148 36128048 36083044 36044700 36012980 35986020 35960644 
3074.718 35932604 35897080 35849832 35787652 35708392 35611024 35495412 
3078.093 35361856 35211596 35046840 34870408 34686152 34498028 34309984 
3081.468 34125500 33947364 33777964 33619516 33473722 33342220 33225708 
3084.844 33124388 33036892 32961958 32897692 32842652 32796234 32757606 
3088.219 32725666 32697656 32669182 32634356 32586638 32520034 32430052 
3091.594 32314282 32172390 32005608 31816214 31607270 31382472 31146250 
3094.969 30904148 30661860 30425180 30198966 29986180 29788050 29603880 
3098.344 29431806 29270328 29117556 28972736 28835326 28704972 28581308 
3101.720 28463554 28350994 28242742 28138194 28036146 27935322 27834028 
3105.095 27729930 27621164 27506280 27384616 27256672 27123862 26987884 
3108.470 26850750 26714014 26578868 26446196 26316662 26190684 26068650 
3111.845 25950518 25836322 25725462 25617406 25511414 25406854 25302846 
3115.221 25198722 25093886 24988338 24881938 24776056 24671602 24569946 
3118.596 24471500 24375916 24281720 24186914 24089712 23989554 23887076 
3121.971 23784376 23684010 23588390 23498350 23414208 23334554 23258306 
3125.346 23184484 23112734 23043096 22975422 22909192 22843286 22776482 
3128.722 22708014 22637742 22566676 22495936 22426744 22359204 22292754 
3132.097 22226138 22158036 22088164 22017084 21945878 21875832 21807574 
3135.472 21741210 21676178 21612026 21548510 21485978 21424464 21363588 
3138.847 21301988 21237126 21166464 21088160 21001664 20907988 20809676 
3142.223 20709474 20609676 20511256 20414318 20318580 20224046 20131128 
3145.598 20040764 19953366 19869176 19787362 19706880 19626760 19547176 
3148.973 19469406 19395186 19325722 19261050 19199230 19137762 19073326 
3152.348 19003882 18929152 18850524 18770252 18690546 18612896 18537368 
3155.724 18463446 18390710 18318920 18248764 18180868 18115642 18052600 
3159.099 17990778 17928722 17865778 17801496 17736568 17671856 17607534 
3162.474 17542946 17476364 17406312 17331236 17251002 17166784 17080170 
3165.849 16993228 16907372 16822978 16740084 16658166 16577231 16497204 
3169.225 16418122 16339637 16260790 16180340 16097257 16010959 15922477 
3172.600 15833363 15745742 15661815 15582369 15507745 15436876 15368833 
3175.975 15302517 15237516 15173244 15109497 15045657 14980351 14912996 
3179.350 14843081 14770744 14696910 14622713 14549349 14477609 14407901 
3182.726 14340190 14274819 14211923 14151808 14094406 14039064 13984448 
3186.101 13928846 13870277 13807644 13740608 13669719 13596243 13521858 
3189.476 13447963 13375686 13306087 13239846 13177680 13119278 13063959 
3192.851 13010627 12957403 12902649 12845549 12786066 12725261 12664704 
3196.227 12605929 12549310 12494847 12441618 12388532 12335078 12281256 
3199.602 12227848 12175471 12125245 12077070 12031251 11987956 11947664 
3202.977 11911018 11878598 11850404 11825241 11801681 11777202 11750069 
3206.352 11718750 11683010 11642711 11598026 11548514 11493633 11432566 
3209.728 11365454 11293251 11218375 11143306 11070733 11002080 10937548 
3213.103 10876390 10817857 10761164 10706755 10655342 10608042 10564991 
3216.478 10525713 10488440 10451274 10412549 10371554 10328017 10282585 
3219.853 10235632 10187665 10138585 10088425 10037661 9987072 9937744 
3223.229 9890759 9846525 9804804 9764645 9725135 9685526 9645480 9605031 
3227.086 9564451 9523908 9483234 9442427 9401456 9360929 9321725 9284928 
3230.943 9251283 9220178 9190565 9160141 9126810 9089218 9047164 9001527 
3234.801 8954204 8906887 8860758 8816561 8773958 8732610 8691706 8650737 
3238.658 8609300 8567426 8524679 8480989 8436291 8390044 8342348 8293206 
3242.516 8242482 8190549 8138149 8086228 8036102 7989526 7947340 7910222 
3246.373 7877357 7847093 7817337 7786065 7751793 7714219 7673848 7631796 
3250.230 7588769 7545848 7503404 7461839 7421324 7382329 7345224 7309943 
3254.088 7275607 7240870 7204081 7164196 7120677 7074670 7027456 6981223 
3257.945 6937420 6896549 6858342 6822056 6786480 6750773 6714362 6676877 
3261.803 6637814 6596770 6553543 6508605 6463000 6418508 6377082 6339861 
3265.660 6307250 6278439 6252119 6226673 6201633 6177602 6154984 6134551 
3269.518 6115732 6096713 6074738 6047891 6014865 5976298 5934443 5892794 
3273.375 5853197 5817532 5785431 5755412 5725833 5695584 5664464 5633078 
3277.232 5602064 5571924 5542089 5511953 5480545 5447663 5414011 5380328 
3281.090 5347789 5316795 5287413 5259039 5231137 5203202 5175303 5147708 
3284.947 5120651 5093830 5066911 5039557 5012171 4985659 4961862 4942424 
3288.805 4928315 4919100 4912565 4905964 4896245 4880999 4859621 4833051 
3292.662 4803233 4772277 4742229 4713723 4686927 4660904 4634647 4607153 
3296.520 4578087 4547784 4516914 4486950 4459532 4436099 4417722 4404601 
3300.377 4396334 4391982 4389975 4388870 4387832 4386092 4383347 4379197 
3304.234 4372704 4363266 4349745 4331706 4308849 4281342 4249487 4212783 
3308.092 4170897 4122893 4068507 4007907 3942735 3875734 3809980 3748314 
3311.949 3692537 3642883 3598512 3557754 3519138 3481460 3444187 3406783 
3315.807 3368981 3330549 3291051 3250689 3210264 3170811 3133731 3099691 
3319.664 3068990 3040627 3013334 2985676 2957052 2927495 2897441 2867522 
3323.521 2837238 2805522 2770707 2731194 2686816 2638677 2589342 2541780 
3327.379 2498355 2460399 2427145 2396858 2367040 2335225 2300515 2263043 
3331.236 2223709 2184611 2147715 2114884 2087483 2066675 2052559 2044802 
3335.094 2042173 2042406 2042672 2040042 2031686 2015874 1991907 1960453 
3338.951 1923609 1884239 1845106 1809004 1777463 1750681 1726995 1703876 
3342.809 1678330 1647497 1610114 1566383 1518633 1470490 1425144 1386052 
3346.666 1355340 1333270 1319378 1311701 1307580 1303459 1295649 1280030 
3350.523 1253611 1214701 1163701 1103638 1039132 975500 917455 867984 827913 
3354.863 796808 773407 757308 748645 748446 756910 772776 792891 812178 
3359.203 825091 827814 818784 799564 774303 748347 726541 711971 706262 
3363.542 709050 719272 735402 755981 779282 803348 825755 843749 854638 
3367.882 856464 847832 828212 797638 756611 706329 648486 586205 523833 
3372.221 465782 416694 380048 356735 345526 343669 346919 351197 353750 
3376.561 352656 347516 338430 326128 311273 294628 277088 259318 242310 
3380.901 226596 212374 199744 188673 179192 171436 165536 160762 156553 
3385.240 151714 145416 137992 130733 126457 128115 138290 157017 182176 
3389.580 209026 232000 245857 247581 236442 214728 186286 154995 124336 
3393.919 96497 72370 52553 37807 28761 26739 32837 47284 68990 95436 123209 
3399.223 147836 165204 171933 165933 146941 116912 78866 37144 -4307 -41945 
3404.045 -74280 -100682 -121949 -138478 -151031 -159676 -164148 -164379 
3407.903 -161399 -156430 -151495 -148613 -148878 -152224 -158285 -165936 
3411.760 -174647 -184020 -194618 -206939 -220848 -235585 -249626 -261216 
3415.617 -269230 -272971 -272872 -269792 -264527 -257805 -250454 -243367 
3419.475 -237771 -235651 -238334 -247242 -262044 -281150 -301779 -321182 
3423.332 -336809 -347834 -354919 -359355 -362500 -366076 -369949 -373690 
3427.190 -376670 -378490 -378854 -378226 -377166 -375643 -374253 -372598 
3431.047 -371240 -370843 -372200 -376372 -384085 -395837 -411429 -430462 
3434.905 -452607 -477497 -504636 -533527 -562748 -591040 -616418 -637263 
3438.762 -653011 -664094 -671372 -676897 -681959 -687616 -694067 -701047 
3442.619 -707960 -714841 -721788 -729429 -738625 -750400 -765119 -783178 
3446.477 -804147 -826933 -850082 -871643 -889135 -900973 -906032 -904279 
3450.334 -897303 -887251 -876405 -866980 -860168 -856200 -854646 -855043 
3454.192 -857027 -860466 -865393 -872271 -880736 -890590 -901204 -912975 
3458.049 -925837 -940881 -958172 -977711 -998009 -1016752 -1031561 -1040354 
3461.906 -1041941 -1036883 -1026405 -1012191 -996125 -979496 -963396 -948518 
3465.764 -935789 -926300 -920878 -920216 -923986 -931557 -941807 -953775 
3469.621 -966173 -978471 -990240 -1000951 -1009810 -1016190 -1019232 
3472.997 -1018967 -1015728 -1009810 -1001811 -990670 -975529 -954767 -927292 
3476.854 -893136 -854084 -812745 -772429 -735681 -703627 -675045 -647916 
3480.711 -618403 -582966 -538855 -484116 -417950 -341312 -256083 -165704 
3484.569 -74445 12789 91890 159503 214761 258290 291776 317440 336275 347847 
3489.391 350699 342774 322480 289124 243437 186054 118172 40491 -46385 
3493.730 -141691 -243069 -347668 -451647 -552159 -647354 -737632 -823858 
3497.588 -907817 -989645 -1067987 -1140432 -1204010 -1257370 -1301342 
3500.963 -1339232 -1375301 -1413811 -1456711 -1503172 -1549727 -1591919 
3504.338 -1626317 -1650876 -1666456 -1675070 -1679691 -1683157 -1687283 
3507.713 -1693224 -1701475 -1711607 -1722696 -1733653 -1742299 -1746953 
3511.089 -1746524 -1741408 -1733158 -1725435 -1721772 -1725237 -1736590 
3514.464 -1754741 -1776752 -1799322 -1819582 -1836244 -1849508 -1860560 
3517.839 -1870722 -1880487 -1890153 -1898863 -1906087 -1911497 -1915258 
3521.214 -1918194 -1921031 -1924132 -1928057 -1933368 -1940427 -1950587 
3524.590 -1964738 -1983670 -2007352 -2035385 -2066252 -2098370 -2130552 
3527.965 -2161314 -2189766 -2214853 -2235225 -2249663 -2257706 -2259486 
3531.340 -2256355 -2250784 -2244982 -2240631 -2238851 -2238983 -2239708 
3534.715 -2240763 -2241719 -2243796 -2248542 -2257245 -2270166 -2286283 
3538.091 -2303422 -2318781 -2330448 -2337467 -2339576 -2338094 -2333644 
3541.466 -2327152 -2319045 -2309849 -2300225 -2291788 -2286547 -2286547 
3544.841 -2293699 -2308531 -2330151 -2356318 -2383999 -2410228 -2432107 
3548.216 -2448153 -2457214 -2460047 -2457807 -2452700 -2446835 -2442717 
3551.592 -2441893 -2444825 -2450954 -2458960 -2466834 -2473588 -2478233 
3554.967 -2480507 -2480803 -2479518 -2476883 -2473555 -2469931 -2467065 
3558.342 -2466076 -2468185 -2473753 -2482286 -2492235 -2501229 -2506994 
3561.717 -2508806 -2506368 -2501295 -2496386 -2494245 -2497210 -2507422 
3565.093 -2525573 -2552486 -2587401 -2628505 -2672931 -2716660 -2754920 
3568.468 -2783728 -2801440 -2807563 -2804469 -2795778 -2784617 -2774115 
3571.843 -2766082 -2760649 -2757357 -2755447 -2754558 -2754624 -2756171 
3575.218 -2759464 -2764436 -2770164 -2775629 -2779021 -2779876 -2777309 
3578.594 -2771448 -2763020 -2752780 -2741257 -2729930 -2719591 -2711063 
3581.969 -2704872 -2700954 -2698188 -2695553 -2692162 -2688210 -2685378 
3585.344 -2687288 -2697463 -2719690 -2754920 -2800979 -2852202 -2901048 
3588.719 -2940410 -2965652 -2975919 -2972497 -2959367 -2940805 -2920499 
3592.094 -2901114 -2884657 -2871326 -2861517 -2854572 -2849338 -2845058 
3595.470 -2840977 -2836928 -2832813 -2829323 -2826854 -2826064 -2827250 
3598.845 -2830344 -2835216 -2841503 -2848613 -2855592 -2861550 -2864973 
3602.220 -2864446 -2858884 -2848350 -2833735 -2817341 -2802428 -2792486 
3605.595 -2790444 -2797621 -2813983 -2837125 -2863821 -2889890 -2911613 
3608.971 -2926423 -2933499 -2933631 -2929385 -2923889 -2920565 -2922309 
3612.346 -2930175 -2943076 -2957984 -2970161 -2974965 -2969239 -2952949 
3615.721 -2928793 -2902233 -2879555 -2867178 -2869384 -2887059 -2917570 
3619.096 -2955582 -2994150 -3026529 -3049199 -3060550 -3061438 -3054397 
3622.472 -3041631 -3024916 -3005601 -2983225 -2956997 -2927345 -2895189 
3625.847 -2863920 -2839594 -2830508 -2845157 -2889594 -2963085 -3054529 
3629.222 -3146710 -3219270 -3259623 -3265641 -3244002 -3205522 -3162137 
3632.597 -3123683 -3095062 -3077362 -3067755 -3061636 -3054595 -3044625 
3635.973 -3031760 -3017579 -3004252 -2992340 -2982271 -2972892 -2963546 
3639.348 -2953969 -2945347 -2938864 -2935770 -2936231 -2939127 -2941859 
3642.723 -2942648 -2939423 -2931985 -2921849 -2911152 -2902463 -2898645 
3646.098 -2901278 -2911646 -2930274 -2957326 -2993064 -3037222 -3088482 
3649.474 -3142894 -3195326 -3237951 -3262945 -3265773 -3244857 -3203285 
3652.849 -3147532 -3087298 -3032122 -2991221 -2971345 -2973780 -2994973 
3656.224 -3025048 -3053213 -3070190 -3071966 -3059793 -3039065 -3016230 
3659.599 -2996256 -2982007 -2973978 -2970127 -2968976 -2968877 -2969470 
3662.975 -2971049 -2974241 -2978519 -2982501 -2984410 -2982271 -2974965 
3666.350 -2963579 -2950876 -2941595 -2941529 -2956306 -2989411 -3040414 
3669.725 -3102300 -3162861 -3208449 -3228216 -3218218 -3182991 -3133650 
3673.100 -3085587 -3054430 -3054233 -3090950 -3159341 -3241075 -3311811 
3676.476 -3352813 -3356791 -3329337 -3282742 -3230189 -3181182 -3140032 
3679.851 -3106774 -3078612 -3052654 -3027647 -3003890 -2982764 -2964928 
3683.226 -2948474 -2929747 -2904800 -2871425 -2830871 -2789259 -2754163 
3686.601 -2735033 -2738162 -2765061 -2810658 -2865631 -2919117 -2963579 
3689.977 -2996157 -3017579 -3030181 -3035314 -3032287 -3019685 -2997309 
3693.352 -2967199 -2933664 -2902693 -2879818 -2868363 -2868561 -2877053 
3696.727 -2888409 -2897625 -2901015 -2898119 -2890943 -2883998 -2881563 
3700.102 -2887224 -2902759 -2927082 -2957162 -2988161 -3015308 -3034787 
3703.478 -3044922 -3045349 -3038078 -3025903 -3011524 -2997111 -2984113 
3706.853 -2972168 -2960880 -2949395 -2938304 -2929254 -2926061 -2932742 
3710.228 -2952883 -2987240 -3033372 -3084501 -3132104 -3167828 -3185919 
3713.603 -3185327 -3168190 -3139309 -3105129 -3070650 -3039690 -3015111 
3716.979 -2997210 -2985133 -2977433 -2972497 -2969601 -2968219 -2968745 
3720.354 -2970588 -2973517 -2975524 -2974274 -2968120 -2956339 -2940509 
3723.729 -2924152 -2912008 -2908453 -2916484 -2935770 -2962295 -2989806 
3727.104 -3010372 -3017776 -3009451 -2986746 -2954430 -2919972 -2891239 
3730.479 -2874222 -2871556 -2882352 -2901739 -2923395 -2942418 -2958313 
3733.855 -2974504 -2997375 -3031629 -3077888 -3130789 -3179867 -3213876 
3737.230 -3225387 -3213218 -3181182 -3136019 -3083547 -3027647 -2969601 
3740.605 -2909243 -2848153 -2790938 -2746788 -2728218 -2747117 -2809012 
3743.980 -2904668 -3011096 -3096181 -3136776 -3127696 -3080356 -3013564 
3747.356 -2946992 -2896078 -2869450 -2868561 -2889133 -2923757 -2965948 
3750.731 -3012610 -3062359 -3113880 -3162236 -3198714 -3214863 -3205062 
3754.106 -3169670 -3114899 -3051041 -2988029 -2934783 -2896999 -2875704 
3757.481 -2869483 -2875506 -2890976 -2913160 -2939061 -2964731 -2984015 
3760.857 -2991912 -2984574 -2962756 -2931492 -2899007 -2874124 -2863624 
3764.232 -2869746 -2889857 -2916813 -2942451 -2960551 -2969404 -2971773 
3767.607 -2972629 -2977170 -2988391 -3005864 -3026792 -3046665 -3061438 
3770.982 -3068775 -3068841 -3063083 -3053575 -3042618 -3031727 -3021790 
3774.358 -3012807 -3003791 -2993459 -2980823 -2965586 -2949559 -2936033 
3777.733 -2928925 -2932380 -2947256 -2971674 -2999316 -3022876 -3035478 
3781.108 -3034294 -3020672 -2999382 -2976643 -2958248 -2947190 -2943274 
3784.483 -2944426 -2947025 -2947848 -2945709 -2940246 -2932446 -2923165 
3787.859 -2912995 -2901871 -2890351 -2878831 -2868594 -2860529 -2855197 
3791.234 -2852136 -2850095 -2848284 -2846605 -2846902 -2852564 -2867113 
3794.609 -2892490 -2928102 -2968680 -3006490 -3032221 -3039394 -3026167 
3797.984 -2996552 -2958346 -2922606 -2900093 -2899402 -2923790 -2969404 
3801.360 -3024620 -3073250 -3099832 -3097299 -3066900 -3018105 -2963710 
3804.735 -2918327 -2893511 -2895913 -2924547 -2970950 -3020408 -3057951 
3808.110 -3074697 -3069828 -3048376 -3018829 -2987601 -2958313 -2930833 
3811.485 -2902957 -2871787 -2837652 -2803547 -2776321 -2764040 -2773720 
3814.861 -2807201 -2860266 -2919972 -2970127 -2997441 -2995302 -2966837 
3818.236 -2921980 -2875309 -2840516 -2830245 -2850490 -2898546 -2961999 
3821.611 -3021889 -3061340 -3070585 -3051140 -3011294 -2964039 -2921421 
3824.986 -2891305 -2876724 -2875078 -2879555 -2882122 -2876724 -2861517 
3828.362 -2838738 -2813720 -2791564 -2776387 -2769802 -2770790 -2777045 
3831.737 -2785243 -2792420 -2796173 -2795383 -2789358 -2778922 -2765884 
3835.112 -2753537 -2746459 -2748237 -2761604 -2785967 -2817242 -2848745 
3838.487 -2873762 -2888606 -2892721 -2889232 -2882846 -2877679 -2876132 
3841.863 -2878798 -2884591 -2891503 -2897822 -2902233 -2903384 -2900455 
3845.238 -2891963 -2877711 -2857238 -2831628 -2801605 -2768617 -2733025 
3848.613 -2694006 -2649977 -2600938 -2548336 -2498297 -2461695 -2451711 
3851.988 -2482187 -2560688 -2681262 -2822279 -2953508 -3048804 -3095884 
3855.364 -3098747 -3069828 -3023403 -2970325 -2917405 -2868265 -2824023 
3858.739 -2785243 -2752813 -2727658 -2710437 -2700361 -2696475 -2696607 
3862.114 -2699406 -2704708 -2713730 -2727098 -2743660 -2758838 -2765785 
3865.489 -2757752 -2731576 -2689066 -2639077 -2593527 -2565365 -2564377 
3868.865 -2593923 -2647606 -2710371 -2763876 -2794889 -2798543 -2780765 
3872.240 -2751595 -2722950 -2703325 -2695718 -2697365 -2701678 -2701217 
3875.615 -2690252 -2667728 -2636277 -2602222 -2572777 -2554495 -2552453 
3878.990 -2567836 -2597908 -2635256 -2670560 -2693874 -2698945 -2684390 
3882.365 -2654719 -2618328 -2585556 -2566452 -2568297 -2592868 -2634894 
3885.741 -2683435 -2724629 -2746953 -2744911 -2720941 -2682909 -2641020 
3889.116 -2606274 -2587763 -2590036 -2612960 -2650339 -2692721 -2729864 
3892.491 -2754262 -2762559 -2756073 -2738622 -2714224 -2687123 -2660219 
3895.866 -2634828 -2612037 -2593198 -2579002 -2570768 -2569450 -2574391 
3899.242 -2583745 -2595075 -2605977 -2615068 -2623268 -2632588 -2646355 
3902.617 -2666114 -2691668 -2719690 -2745142 -2762394 -2766806 -2757192 
3905.992 -2734770 -2702501 -2664731 -2624717 -2584832 -2546952 -2511474 
3909.367 -2478497 -2448054 -2419488 -2392369 -2365413 -2337533 -2307542 
3912.743 -2275505 -2242807 -2211853 -2186370 -2170578 -2167248 -2177403 
3916.118 -2200117 -2232291 -2269440 -2307542 -2343070 -2374377 -2400903 
3919.493 -2422255 -2438532 -2449702 -2455566 -2456752 -2455171 -2453062 
3922.868 -2453556 -2459223 -2470722 -2486931 -2505445 -2522246 -2534171 
3926.244 -2539837 -2539178 -2534171 -2527319 -2520500 -2515098 -2511178 
3929.619 -2508707 -2507554 -2508015 -2511375 -2518326 -2529428 -2543658 
3932.994 -2558514 -2571459 -2579792 -2582098 -2578738 -2571492 -2562039 
3936.369 -2552354 -2543329 -2534599 -2525804 -2516317 -2505808 -2495464 
3939.745 -2487096 -2481792 -2480704 -2483999 -2490028 -2496814 -2502118 
3943.120 -2504062 -2502151 -2496748 -2489105 -2481330 -2475598 -2473753 
3946.495 -2476718 -2485185 -2497539 -2512100 -2526265 -2537630 -2544383 
3949.870 -2546063 -2543131 -2537004 -2529329 -2521093 -2512726 -2504325 
3953.246 -2495562 -2486206 -2477047 -2468844 -2462222 -2457807 -2454644 
3956.621 -2452074 -2448581 -2443211 -2436028 -2427626 -2419323 -2412436 
3959.996 -2407592 -2404759 -2402584 -2400343 -2396620 -2391314 -2384988 
3963.371 -2379287 -2374937 -2373520 -2375629 -2380671 -2388118 -2396949 
3966.747 -2405846 -2413622 -2419685 -2423969 -2426802 -2429471 -2432931 
3970.122 -2438170 -2445484 -2454347 -2463078 -2470129 -2473950 -2473687 
3973.497 -2469536 -2462847 -2455303 -2448417 -2443442 -2440707 -2440147 
3976.872 -2441168 -2443277 -2445847 -2449076 -2451975 -2454841 -2457280 
3980.248 -2458729 -2459915 -2461134 -2462946 -2466076 -2470557 -2476125 
3983.623 -2481890 -2487030 -2490324 -2491247 -2489797 -2486107 -2480638 
3986.998 -2474280 -2467197 -2460376 -2454018 -2448384 -2443442 -2438697 
3990.373 -2433030 -2425419 -2415204 -2402650 -2388349 -2374443 -2362546 
3993.749 -2354044 -2349859 -2349463 -2351671 -2355428 -2359745 -2364556 
3997.124 -2370159 -2377375 -2386009 -2396356 -2407395 -2417939 -2427264 
4000.499 -2435040 
##END=
