
##TITLE=Z140a_3_e
##JCAMP-DX=5.01  $$ Nicolet v. 1
##DATATYPE=INFRARED SPECTRUM
##ORIGIN=UniL
##OWNER=Nicolet
##LONGDATE=2011/09/20
##TIME=11:27:53
##SPECTROMETER/DATA SYSTEM=Nicolet iS5
##DATA PROCESSING=
Ratio against background
%Transmittance->Absorbance
Truncated
ElementMultiply or ElementDivide
##COMMENTS=
Number of sample scans: 32
Collection length: 51.16 sec
Sample gain: 2.0
Background collected on: Mar Sep 20 11:15:18 2011 (GMT+02:00);
Number of background scans: 32
Background gain: 2.0
Sample spacing:  1.000
Number of scan points: 12415
Resolution points: 8192
Number of FFT points: 65536
Apodization: N-B fort;
Phase correction: Mertz;
Laser frequency: 15798.0 cm-1
Number of rejected sample scans: 0
Number of rejected background scans: 0
Bench serial number: ASB1000141;
##RESOLUTION=4.000
##XUNITS=1/CM
##YUNITS=ABSORBANCE
##FIRSTX=649.893372
##LASTX=4000.122314
##FIRSTY=0.085798
##MAXX=4000.122314
##MINX=649.893372
##MAXY=0.658061
##MINY=-0.002097
##XFACTOR=1.000000
##YFACTOR=1.000000E-009
##NPOINTS=6950
##DELTAX=0.482117
##ZPD=6100
##XYDATA=(X++(Y..Y))
649.893 85797728 81538880 78304040 76057392 74707320 74118920 74120528 
653.268 74547928 75274816 76232224 77413256 78846696 80564088 82572800 
656.643 84856648 87397392 90207008 93347920 96931216 101078088 105904384 
660.018 111499512 117936272 125316144 133782760 143497424 154583952 
662.911 167023504 180601376 194845568 209108464 222606304 234299168 
665.803 242933408 246964448 244781616 235510128 219846416 200241680 
668.696 179723920 160620128 143941664 129667120 117380224 106660240 97243760 
672.071 89058856 82122296 76427320 71896032 68360736 65621040 63485944 
675.446 61824260 60560812 59644332 59023016 58630064 58388260 58238456 
678.820 58152840 58137456 58214700 58400312 58686196 59041084 59424752 
682.195 59810128 60197256 60611400 61087448 61649092 62298040 63015036 
685.570 63774964 64562560 65384088 66263376 67231192 68306368 69488056 
688.945 70758392 72095280 73486960 74941224 76484096 78151816 79981400 
692.320 82002424 84243064 86738584 89535952 92701568 96313144 100443184 
695.694 105157360 110507704 116540320 123317664 130938408 139551088 
698.587 149378288 160698112 173820160 189046528 206574768 226387920 
701.480 248058672 270662976 292605024 311573760 325015264 330505088 
704.373 326512608 313004672 291445952 264400688 234671344 204889232 
707.265 177028112 152229376 131066192 113585624 99508848 88402360 79773992 
710.640 73153648 68100432 64247736 61299436 59012880 57217832 55796644 
714.015 54669812 53788056 53112444 52604956 52228980 51948696 51736072 
717.390 51575600 51461556 51393820 51371740 51390164 51440180 51513744 
720.765 51607580 51726292 51879800 52079012 52329324 52629116 52969912 
724.139 53341252 53734992 54147404 54578768 55030608 55502492 55991292 
727.514 56492448 57002840 57523172 58057840 58612848 59192300 59796480 
730.889 60423280 61070016 61738232 62435784 63175232 63971876 64838068 
734.264 65779580 66795936 67883080 69037512 70259640 71556152 72937320 
737.639 74416328 76004376 77711176 79544800 81513416 83627752 85902456 
741.013 88355448 91010168 93894216 97038592 100481520 104268192 108450240 
744.388 113094400 118280488 124103848 130684864 138159952 146680896 
747.281 156416176 167534688 180202816 194571632 210757056 228801712 
750.174 248600960 269859040 291947200 313815904 334091968 351052128 
753.066 362935072 368362464 366556416 357579072 342235200 321875360 
755.959 298061152 272277728 245876896 219918784 195186544 172288256 
758.852 151616864 133414280 117810392 104784912 94202928 85823888 79345600 
762.227 74435088 70767872 68077872 66141664 64783716 63872984 63295424 
765.601 62955396 62780192 62713540 62722312 62791108 62912920 63081892 
768.976 63290096 63528016 63791156 64084492 64423604 64828680 65316616 
772.351 65894596 66556952 67289688 68077832 68913928 69800008 70746464 
775.726 71764560 72862000 74040560 75298304 76635312 78057976 79579456 
779.101 81217784 82989832 84908080 86981928 89221744 91645248 94285000 
782.475 97188104 100415496 104042632 108150360 112826776 118162120 124231752 
785.850 131078512 138678688 146921984 155574448 164278416 172611904 
788.743 180091888 186271344 190823376 193564864 194499984 193792336 
791.636 191737632 188684800 184976864 180944672 176861584 172958080 
794.528 169445072 166498592 164277312 162927648 162569296 163312784 
797.421 165262080 168508512 173137776 179212160 186752176 195698560 
800.314 205865680 216919056 228273152 239089712 248346368 254820224 
803.206 257354416 255097424 247653312 235264128 218748160 199375024 
806.099 178544672 157588000 137637952 119439736 103430248 89777456 78426512 
809.474 69204104 61866436 56155664 51809316 48582240 46268052 44682372 
812.849 43677136 43142272 42986700 43139380 43541844 44137644 44877752 
816.224 45722848 46642592 47620632 48650204 49729484 50856928 52028136 
819.598 53236888 54477676 55748764 57053924 58399972 59794424 61241784 
822.973 62742636 64294988 65897912 67554384 69272768 71064480 72941280 
826.348 74913824 76990456 79180360 81498904 83970896 86632680 89534896 
829.723 92734672 96295568 100286544 104776696 109839888 115558560 122020224 
833.098 129325760 137588912 146926992 157457376 169269056 182390976 
835.990 196727568 211996400 227701856 243024800 256878848 268022240 
838.883 275112896 277052512 273223776 263648592 249040304 230634960 
841.776 209976384 188527760 167553328 148027808 130534040 115388896 
844.669 102672312 92275440 83976928 77484136 72496264 68714032 65876856 
848.043 63780992 62257428 61178684 60449788 59990640 59739444 59649044 
851.418 59682416 59814160 60026668 60305668 60639972 61019836 61438044 
854.793 61891768 62382264 62913188 63487248 64103460 64754748 65430776 
858.168 66119476 66811392 67501936 68190904 68879568 69568048 70252704 
861.543 70926664 71582488 72213744 72819168 73401336 73965752 74517920 
864.917 75061216 75596400 76122768 76639816 77148968 77653336 78156888 
868.292 78663464 79175192 79693416 80219752 80756984 81309992 81884496 
871.667 82485016 83114600 83773232 84460112 85175168 85921080 86703632 
875.042 87531288 88412432 89354664 90364544 91448720 92616504 93883312 
878.417 95269008 96799032 98501040 100398376 102506728 104826800 107338576 
881.792 109992968 112706360 115369800 117842856 119978864 121651592 
884.684 122765464 123282896 123227056 122678088 121751176 120573232 
887.577 119269904 117939480 116656208 115477328 114447248 113611232 
890.470 113017616 112710016 112724192 113078144 113768272 114771880 
893.362 116053448 117576080 119304880 121213400 123284616 125506488 
896.255 127871576 130374696 133012816 135786208 138699424 141761584 
899.148 144985184 148384416 151973536 155765200 159770224 163998320 
902.040 168458320 173160224 178115936 183339792 188850864 194674672 
904.933 200843440 207401808 214407968 221932688 230063312 238898128 
907.826 248538064 259088272 270646752 283302112 297128544 312180768 
910.719 328481824 345989824 364581440 383996960 403773952 423271744 
913.611 441616576 457736576 470530016 478916096 482024672 479379488 
916.504 470951904 457218176 439061952 417683392 394395456 370412864 
919.397 346840192 324526144 304049952 285815040 270012032 256673936 
922.289 245723024 236980064 230199632 225086496 221340800 218663312 
925.182 216768992 215421712 214413312 213568912 212755120 211858672 
928.075 210790544 209489392 207912144 206036944 203859248 201384320 
930.967 198623088 195588288 192295072 188762672 185015760 181086608 
933.860 177009824 172819488 168546512 164215200 159846336 155459904 
936.753 151076064 146717136 142406144 138161936 133999960 129931640 
939.646 125964312 122106280 118366112 114751728 111270800 107927784 
942.538 104723688 101658136 98730144 95939976 93289720 90781096 88414256 
945.913 86186512 84092768 82126544 80282568 78557160 76948760 75455640 
949.288 74074824 72801456 71629416 70553160 69568824 68674568 67869800 
952.663 67153032 66520460 65966524 65484440 65069712 64721288 64442248 
956.037 64238204 64115560 64080000 64135492 64286232 64539148 64904816 
959.412 65399228 66044480 66865460 67892576 69162720 70718120 72611752 
962.787 74905792 77662088 80940792 84784936 89208568 94184768 99636416 
966.162 105439128 111405376 117307680 122898456 127909424 132100608 
969.055 135273840 137276608 138020736 137473008 135652112 132622856 
971.947 128497064 123436528 117636888 111339096 104814816 98326232 92133600 
975.322 86455912 81441272 77177536 73680672 70911248 68790736 67223000 
978.697 66112416 65365256 64902312 64658216 64576820 64617196 64749980 
982.072 64955948 65225080 65551676 65930428 66354780 66816568 67307248 
985.447 67821688 68358448 68919912 69509864 70131656 70785848 71470680 
988.821 72184096 72925800 73698536 74508480 75363328 76270056 77235248 
992.196 78264792 79365928 80550128 81833448 83237632 84790664 86523072 
995.571 88468360 90658928 93117904 95850768 98831184 101995768 105231912 
998.946 108388576 111308088 113840144 115889384 117440232 118570032 
1001.839 119437728 120250088 121243752 122627808 124563336 127161696 
1004.731 130476712 134523824 139293520 144766448 150915776 157701808 
1007.624 165070288 172928368 181128256 189472608 197681344 205401440 
1010.517 212245824 217775952 221566160 223267280 222626768 219561600 
1013.409 214175200 206762912 197761072 187677696 177059184 166384608 
1016.302 156047968 146359792 137514608 129624560 122732016 116820256 
1019.195 111835016 107697592 104323504 101626856 99528808 97964248 96874976 
1022.570 96211568 95933696 96004904 96394872 97079032 98032760 99231072 
1025.945 100644448 102232808 103947656 105732448 107521592 109252680 
1028.838 110869352 112326880 113603048 114699424 115645688 116494048 
1031.731 117319872 118213016 119259392 120539512 122109712 123990944 
1034.624 126162704 128557024 131066816 133538368 135793776 137652320 
1037.517 138933152 139492832 139238736 138135120 136209744 133544328 
1040.410 130265296 126512544 122428392 118142504 113753632 109339704 
1043.303 104962344 100670184 96513000 92541136 88800320 85333136 82171064 
1046.678 79330920 76817336 74622248 72727728 71106120 69723904 68545264 
1050.053 67532240 66652784 65882220 65203100 64605928 64085112 63635760 
1053.429 63251384 62924028 62644908 62407016 62206300 62041152 61911140 
1056.804 61815012 61749688 61710960 61694308 61697552 61720548 61766040 
1060.179 61836788 61934792 62060036 62211580 62388540 62592356 62827328 
1063.554 63099668 63416420 63783176 64203440 64679220 65211988 65804408 
1066.930 66460684 67186056 67985248 68861392 69815144 70845256 71949952 
1070.305 73127688 74378064 75701264 77097760 78567640 80111240 81730056 
1073.680 83428192 85213224 87096384 89093552 91222432 93504056 95962872 
1077.055 98625600 101524416 104696992 108183384 112027664 116272688 
1079.948 120952024 126084656 131662112 137641952 143930560 150382784 
1082.842 156814016 162990768 168670016 173627728 177668912 180671792 
1085.735 182599552 183514896 183572080 183009616 182139568 181286464 
1088.628 180782400 180937488 181990080 184114576 187391888 191796528 
1091.521 197173072 203216736 209495136 215397584 220200640 223177808 
1094.414 223634640 221101008 215431520 206839088 195865216 183258848 
1097.307 169888944 156542816 143864928 132329328 122180376 113494472 
1100.200 106214064 100198768 95266784 91225016 87900816 85132992 82781104 
1103.575 80733688 78896080 77199584 75600856 74074984 72612216 71211824 
1106.950 69877176 68614216 67432072 66344628 65368876 64522116 63818448 
1110.326 63263572 62854400 62580496 62429816 62391560 62458244 62625468 
1113.701 62887488 63234904 63655100 64133652 64658800 65225312 65833904 
1117.076 66489024 67194640 67951160 68754552 69600056 70485536 71414624 
1120.451 72397064 73445600 74570872 75778304 77067208 78433104 79871192 
1123.827 81378600 82955784 84605744 86334432 88151880 90079256 92154976 
1127.202 94436160 97008312 99982392 103486176 107679080 112739824 118855408 
1130.577 126215384 134955408 145095952 156440736 168518032 180529568 
1133.470 191324256 199652784 204351392 204651632 200457520 192378864 
1136.363 181615584 169555600 157595808 146859616 138026384 131430608 
1139.256 127066288 124701072 123949512 124359672 125487032 126882792 
1142.149 128165320 129044536 129324824 128946288 127974016 126584992 
1145.042 125008416 123482840 122216248 121339480 120916872 120954216 
1147.936 121424008 122284696 123494728 125020160 126828568 128889080 
1150.829 131175312 133665608 136349472 139227312 142304240 145580448 
1153.722 149042256 152654624 156367104 160122464 163865648 167558864 
1156.615 171182624 174732832 178214080 181632352 184991824 188296448 
1159.508 191554352 194781872 198001760 201241040 204524320 207869360 
1162.401 211289616 214799824 218422048 222194000 226166688 230396560 
1165.294 234942784 239855968 245177088 250944288 257197712 263985040 
1168.187 271364640 279396448 288135648 297623232 307883616 318925312 
1171.080 330746560 343347072 356722496 370858880 385727008 401257984 
1173.973 417341504 433844768 450610944 467497312 484396480 501228864 
1176.866 517935744 534454816 550693184 566524096 581794688 596334848 
1179.759 609971968 622515648 633726208 643297088 650838016 655898240 
1182.652 658061120 656981632 652448512 644416256 632970880 618320704 
1185.545 600785536 580797760 558898176 535688352 511810592 487852768 
1188.438 464282848 441463008 419616128 398859072 379251136 360799008 
1191.332 343478656 327241920 312013664 297701376 284205248 271435392 
1194.225 259320592 247812768 236882032 226507760 216669392 207344976 
1197.118 198515872 190177104 182341776 175050432 168364160 162352496 
1200.011 157094848 152664560 149123088 146525648 144909920 144294672 
1202.904 144675776 146022448 148274944 151341760 155114352 159464112 
1205.797 164247520 169328688 174569264 179839056 185030288 190050656 
1208.690 194837456 199365840 203653984 207767040 211805552 215906672 
1211.583 220217712 224875264 230000768 235674432 241927104 248727232 
1214.476 255976352 263502384 271046080 278300192 284911456 290509984 
1217.369 294777376 297451648 298351840 297386208 294524224 289785888 
1220.262 283231616 274963424 265131616 253929888 241598464 228400016 
1223.155 214595216 200449120 186208304 172098416 158341648 145128768 
1226.048 132619392 120945632 110190936 100403936 91606168 83790064 76930056 
1229.424 70981008 65881484 61553788 57909404 54862596 52330112 50240352 
1232.799 48538292 47176840 46116592 45323688 44764640 44410400 44237348 
1236.174 44226968 44365812 44642564 45043156 45550232 46142604 46796156 
1239.549 47489656 48204804 48927256 49646376 50351176 51029584 51669080 
1242.925 52258392 52790692 53266252 53692956 54084464 54456416 54825680 
1246.300 55208876 55623256 56092280 56646408 57322740 58167724 59229968 
1249.675 60559288 62208292 64227456 66665964 69566992 72954960 76819864 
1253.050 81095112 85652328 90279408 94691032 98581776 101639384 103622808 
1256.426 104417176 104052736 102707104 100651336 98222904 95739640 93451208 
1259.801 91534000 90065192 89050024 88448504 88211184 88303392 88718616 
1263.176 89478056 90620056 92185136 94199424 96668664 99572696 102871504 
1266.551 106501808 110381392 114418312 118500984 122510144 126331584 
1269.444 129852904 132983968 135666912 137878752 139638224 141000992 
1272.337 142059552 142925760 143725168 144596880 145672416 147080288 
1275.230 148939840 151344304 154364192 158039984 162382640 167376640 
1278.124 172984464 179158448 185835776 192945952 200415296 208153504 
1281.017 216058352 224018816 231902608 239573216 246898112 253747376 
1283.910 260012272 265607920 270476416 274597536 277996704 280759296 
1286.803 283020896 284971616 286836864 288827104 291130080 293876160 
1289.696 297120000 300842880 304951616 309299264 313677568 317843456 
1292.589 321552096 324558752 326676992 327810624 327974304 327300896 
1295.482 326017600 324430368 322854272 321592160 320921728 321053952 
1298.375 322144576 324280608 327468480 331625600 336570688 342054016 
1301.268 347747008 353286944 358339840 362595360 365812672 367831520 
1304.161 368552224 367937728 366003200 362812288 358465056 353082432 
1307.054 346792448 339703616 331898400 323435808 314360864 304720000 
1309.947 294570432 283978304 273017184 261762112 250285888 238668448 
1312.840 227002032 215386592 203932272 192742752 181897472 171457152 
1315.733 161460176 151929616 142892512 134379776 126425104 119063608 
1318.626 112318000 106194384 100682176 95757032 91384920 87525496 84134232 
1322.002 81160456 78545880 76231080 74153232 72251976 70476264 68779016 
1325.377 67118416 65458088 63762800 62004192 60165632 58245280 56258808 
1328.752 54234452 52209288 50218036 48287564 46437380 44679288 43022256 
1332.127 41475112 40045072 38735732 37543824 36459092 35466324 34550336 
1335.503 33701472 32916420 32197722 31548902 30970328 30457414 30002476 
1338.878 29598170 29242436 28939618 28698212 28525292 28421986 28381766 
1342.253 28393262 28444698 28527770 28640342 28785156 28966254 29185270 
1345.628 29439926 29724888 30035922 30372480 30740096 31148352 31608660 
1349.004 32130108 32717556 33373312 34099264 34900644 35786896 36770948 
1352.379 37866148 39084140 40433040 41918736 43548400 45332512 47288144 
1355.754 49439408 51814204 54442744 57355104 60576960 64129696 68027064 
1359.129 72276520 76873376 81797568 87012576 92449464 98004648 103545928 
1362.505 108912520 113948160 118530544 122587608 126103520 129100816 
1365.398 131617296 133683904 135316880 136521488 137302592 137676544 
1368.291 137675344 137338688 136705232 135800752 134630976 133182928 
1371.184 131426888 129321936 126815616 123852416 120389096 116410208 
1374.077 111950088 107096576 101980216 96741024 91496656 86335032 81310144 
1377.452 76461336 71836520 67491520 63487672 59877024 56680156 53884744 
1380.827 51451220 49333384 47491576 45902276 44555252 43441496 42542312 
1384.203 41827368 41255860 40789548 40403984 40092232 39864160 39736156 
1387.578 39719816 39814988 40011280 40296180 40662612 41111196 41646848 
1390.953 42273176 42987684 43780580 44641792 45565060 46554248 47621632 
1394.328 48782944 50046448 51406348 52846820 54350696 55910220 57533236 
1397.704 59240716 61057812 63003852 65081448 67276952 69568624 71939200 
1401.079 74384784 76915136 79548856 82303112 85183744 88182768 91274928 
1404.454 94421008 97575648 100689488 103713216 106600904 109309960 111806216 
1407.829 114071024 116103272 117925000 119578616 121127160 122643624 
1410.722 124199328 125863152 127690088 129722192 131993280 134526448 
1413.615 137333376 140408448 143726512 147234576 150844432 154442880 
1416.509 157866992 160895568 163266112 164671296 164833408 163601136 
1419.402 161007728 157264160 152658112 147456880 141840768 135910064 
1422.295 129749584 123471128 117246000 111322824 105952256 101326088 
1425.188 97529184 94522120 92183784 90362672 88934608 87814952 86959752 
1428.563 86351888 85977248 85815008 85839872 86028384 86369192 86861272 
1431.938 87502640 88276840 89145704 90042888 90886584 91591240 92070392 
1435.313 92257904 92119872 91667216 90953744 90056096 89043720 87956808 
1438.689 86808704 85599904 84333512 83027424 81720176 80463376 79325824 
1442.064 78384640 77715224 77396896 77501960 78087200 79195112 80849736 
1445.439 83065328 85855048 89238720 93238176 97863168 103099568 108914400 
1448.814 115287136 122245928 129895944 138410592 147968304 158676192 
1451.708 170475056 183134608 196237264 209275504 221792656 233329040 
1454.601 243409200 251465136 256760352 258579008 256585456 251209344 
1457.494 243541792 234792160 225789680 216798032 207722560 198357696 
1460.387 188572000 178346944 167743904 156804368 145531056 133899376 
1463.280 121916320 109736424 97713264 86323832 76046256 67183040 59790128 
1466.655 53724828 48747464 44625524 41174580 38272408 35835868 33793332 
1470.030 32070458 30593098 29299464 28166442 27215750 26500606 26071252 
1473.406 25945382 26102954 26510044 27145834 28021724 29178078 30677398 
1476.781 32587602 34966572 37870884 41353484 45457988 50198244 55517252 
1480.156 61255024 67097336 72621576 77377056 80959112 83137672 83876472 
1483.531 83312168 81675664 79231376 76229856 72853848 69232000 65440716 
1486.906 61512020 57456112 53273408 48971388 44579956 40170044 35858396 
1490.282 31798388 28142966 24998480 22403962 20324450 18675534 17351582 
1493.657 16254392 15309828 14472471 13727476 13079325 12538157 12107562 
1497.032 11778222 11532386 11354400 11235273 11172849 11166696 11213172 
1500.407 11303147 11425830 11572266 11739753 11931758 12154514 12412466 
1503.783 12704859 13023498 13356106 13691638 14025957 14365055 14719772 
1507.158 15096598 15486971 15873021 16237125 16569519 16869410 17141794 
1510.533 17393724 17629928 17850690 18054120 18238640 18406438 18563268 
1513.908 18715868 18867240 19013538 19143614 19244426 19308956 19342490 
1517.284 19361476 19385172 19424256 19472246 19505032 19487114 19388326 
1520.659 19199092 18945350 18679442 18458882 18315740 18246138 18220636 
1524.034 18203084 18167462 18103308 18017232 17924198 17838986 17767080 
1527.409 17705022 17646492 17590454 17543774 17518970 17525662 17563956 
1530.785 17619956 17671098 17692528 17668474 17602738 17520832 17461050 
1534.160 17454806 17514864 17633208 17791554 17970748 18157650 18344634 
1537.535 18523192 18679858 18795094 18849208 18837306 18781840 18731884 
1540.910 18737732 18827512 18997028 19218244 19456064 19684900 19898106 
1544.286 20107668 20335352 20598732 20904096 21242728 21599872 21962258 
1547.661 22325960 22697088 23087366 23506362 23955592 24427684 24911412 
1551.036 25400706 25898500 26416688 26969798 27567530 28208586 28881326 
1554.411 29568586 30258286 30946558 31634532 32321386 32991238 33606376 
1557.787 34116216 34479516 34707616 34874756 35090272 35423616 35875272 
1561.162 36402228 36949672 37477608 37965796 38418696 38858772 39317356 
1564.537 39821744 40386532 41013080 41696304 42434740 43237972 44126312 
1567.912 45125640 46258028 47534604 48955072 50512536 52197292 54003596 
1571.288 55920316 57924700 59970632 61990088 63902164 65600268 66971332 
1574.663 67903808 68299776 68111592 67367304 66176160 64684064 63025608 
1578.038 61293024 59531144 57760144 55997396 54265876 52605928 51070876 
1581.413 49710684 48568272 47667000 47009220 46579664 46351916 46296104 
1584.789 46382036 46586888 46897360 47307540 47816120 48420928 49115544 
1588.164 49890796 50739348 51663032 52676512 53808080 55094024 56567436 
1591.539 58256036 60178416 62346504 64768328 67445848 70368448 73499840 
1594.914 76773920 80109128 83428352 86706304 90001104 93482968 97416680 
1598.290 102127496 107996096 115397624 124698072 136257584 150396144 
1601.183 167364080 187232256 209787472 234297120 259300320 282725632 
1604.076 301890816 314062656 317250144 310634240 294878336 271800288 
1606.969 243977728 214100000 184441136 156811872 132306232 111385976 
1609.862 94101144 80182528 69211952 60706648 54202916 49278004 45556748 
1613.237 42745104 40605708 38948896 37638124 36566852 35664548 34906136 
1616.612 34302848 33890400 33699040 33732952 33962840 34339136 34802952 
1619.988 35303884 35808740 36300456 36778992 37253252 37733416 38223632 
1623.363 38721496 39224648 39735356 40263712 40822236 41418540 42051004 
1626.738 42707012 43372476 44039028 44713700 45417960 46180336 47021700 
1630.113 47945236 48935120 49963952 51006072 52042068 53065904 54080900 
1633.489 55089580 56087760 57062236 57999368 58897732 59780624 60690456 
1636.864 61657840 62687972 63753284 64807980 65801248 66695124 67480144 
1640.239 68172376 68807664 69422464 70039880 70660176 71267144 71836720 
1643.614 72351224 72804520 73200392 73548112 73859304 74155040 74473672 
1646.990 74878424 75449536 76248888 77300528 78578440 80021632 81541480 
1650.365 83037976 84427672 85643816 86674176 87584792 88541200 89736344 
1653.740 91267280 93123112 95220856 97483400 99871752 102376688 105001536 
1657.115 107742440 110591680 113540296 116581704 119725824 122994992 
1660.008 126416816 130018576 133820144 137838240 142089840 146601024 
1662.901 151402928 156508992 161914720 167586464 173476736 179536528 
1665.794 185737744 192093232 198641424 205456432 212633456 220272816 
1668.688 228458672 237239312 246629264 256584672 267024848 277856896 
1671.581 289005216 300440352 312196032 324390176 337173952 350665728 
1674.474 364853216 379490624 394100800 408119648 421089024 432772672 
1677.367 443120128 452140544 459812192 466067744 470832576 474122272 
1680.260 476069376 476879744 476681216 475397888 472690528 468063136 
1683.153 461137856 452082592 441816384 431728160 422936960 415768640 
1686.046 409837600 404426016 398888256 392780640 385940576 378419232 
1688.939 370392672 362047744 353519168 344910912 336327424 327896096 
1691.832 319753664 311949088 304370240 296701440 288468480 279182848 
1694.725 268605472 257018864 245257008 234361072 225002336 217215104 
1697.618 210426640 203770896 196299024 187306608 176660128 164993920 
1700.511 153517840 143335392 134905776 127987104 122019296 116438720 
1703.404 110875248 105173056 99366512 93603920 88073792 82939616 78292856 
1706.780 74166480 70560960 67461032 64833140 62610424 60695220 58971812 
1710.155 57345312 55774760 54277588 52910140 51723720 50734468 49904216 
1713.530 49160808 48430040 47679240 46933016 46260792 45733524 45381948 
1716.905 45175604 45046756 44937940 44846192 44822940 44935808 45219728 
1720.281 45652468 46163536 46661000 47074280 47372168 47577336 47746252 
1723.656 47940648 48190216 48482868 48778680 49043164 49274256 49510628 
1727.031 49814052 50241136 50819384 51536092 52352764 53230632 54158328 
1730.406 55157708 56272612 57543296 58988396 60598104 62350940 64234600 
1733.781 66270864 68499872 70964312 73665048 76557920 79589128 82726464 
1737.157 85986536 89434408 93180312 97346896 102027784 107247296 112963592 
1740.532 119115432 125681800 132722704 140378736 148816416 158179696 
1743.425 168535040 179864080 192073552 205037392 218648224 232785008 
1746.318 247285792 261911040 276253792 289758272 301782048 311620096 
1749.211 318641024 322375776 322603136 319434656 313324096 305005536 
1752.104 295270816 284803168 274068192 263267904 252431952 241506400 
1754.997 230432848 219241488 208091856 197241856 187003824 177634000 
1757.890 169250272 161826080 155216752 149229040 143674608 138428288 
1760.783 133455512 128814680 124625880 121011344 118040784 115697928 
1763.677 113889616 112472168 111295248 110217024 109111368 107881096 
1766.570 106450408 104774880 102846648 100692288 98356280 95871928 93239944 
1769.945 90414040 87315176 83860200 80017968 75853624 71538728 67296304 
1773.320 63312136 59672268 56352204 53262396 50301848 47406312 44563728 
1776.695 41809712 39193280 36752016 34491320 32385640 30398492 28507460 
1780.071 26720460 25071630 23600914 22327878 21239144 20291882 19436280 
1783.446 18631988 17865604 17149342 16508183 15960872 15507299 15128263 
1786.821 14798752 14500459 14230239 13997382 13814074 13683192 13592243 
1790.196 13515568 13424996 13306736 13169277 13042619 12959997 12941972 
1793.572 12983962 13064301 13156367 13245243 13333010 13434873 13568518 
1796.947 13743276 13953345 14181111 14405846 14614180 14807289 14997739 
1800.322 15200558 15420637 15648006 15860889 16037604 16165139 16244864 
1803.697 16287828 16305786 16301829 16266465 16181441 16029043 15802229 
1807.073 15508981 15168921 14803345 14427630 14043069 13641545 13213373 
1810.448 12757983 12289197 11832119 11410693 11038240 10710831 10412447 
1813.823 10123866 9834697 9548361 9280257 9048956 8864274 8722468 8607914 
1817.680 8503256 8398320 8297359 8214488 8165495 8156616 8180014 8216819 
1821.538 8247953 8264027 8269059 8277468 8305634 8361026 8438048 8521266 
1825.395 8595612 8657700 8718378 8797491 8911486 9065264 9247459 9436604 
1829.253 9610620 9760918 9896691 10041357 10216804 10431622 10676599 
1832.628 10931839 11176929 11400148 11603913 11800387 12002466 12213399 
1836.003 12423001 12610738 12757368 12853535 12905449 12930093 12947025 
1839.378 12966790 12986318 12991439 12965562 12899510 12794529 12663066 
1842.754 12520765 12380453 12246593 12116863 11990375 11873593 11781117 
1846.129 11730154 11730358 11778903 11860210 11953657 12041640 12117784 
1849.504 12187840 12264486 12356282 12459860 12558177 12627350 12648807 
1852.879 12616434 12540544 12440288 12333578 12226145 12109163 11964931 
1856.255 11778529 11547357 11284580 11012036 10750364 10508739 10281974 
1859.630 10055836 9818021 9567499 9316817 9086308 8891499 8736261 8608826 
1863.487 8490653 8364810 8226678 8084776 7955440 7851445 7772875 7705449 
1867.345 7628289 7525350 7396787 7261153 7146748 7076691 7055710 7069214 
1871.202 7092554 7104982 7098582 7080362 7065409 7067396 7088984 7120206 
1875.060 7144087 7147927 7131220 7107407 7096831 7114850 7163893 7231808 
1878.917 7299531 7351021 7383677 7409190 7447480 7513584 7610147 7724270 
1882.774 7836297 7929017 7997254 8050447 8105368 8175929 8263216 8354339 
1886.632 8428285 8468151 8467610 8435615 8389874 8348630 8319684 8298846 
1890.489 8274395 8236606 8184606 8127176 8075155 8034819 8001202 7960097 
1894.347 7895037 7797838 7674084 7542578 7425773 7336968 7275102 7224295 
1898.204 7165341 7084909 6984860 6880323 6792034 6733610 6703897 6687240 
1902.062 6662813 6616821 6549339 6475040 6413296 6377855 6367331 6366759 
1905.919 6354924 6318747 6258606 6189600 6131493 6097486 6086162 6081827 
1909.776 6063481 6017217 5945024 5863373 5794396 5752793 5739195 5740438 
1913.634 5738155 5719890 5686251 5650030 5627842 5628715 5647613 5666075 
1917.491 5664364 5632541 5579644 5528061 5503698 5520242 5571958 5636905 
1921.349 5688064 5707838 5695785 5668929 5651104 5660436 5699445 5755614 
1925.206 5810581 5853130 5885673 5923056 5981841 6069496 6177501 6284894 
1929.063 6368709 6416961 6436230 6448337 6478907 6542174 6633440 6730817 
1932.921 6809434 6852821 6863458 6860160 6867565 6900757 6957082 7017185 
1936.778 7057562 7064601 7041700 7007689 6985197 6987150 7008296 7027220 
1940.636 7018768 6969203 6884464 6789543 6712309 6670551 6659246 6656689 
1944.493 6634685 6577124 6487854 6388312 6304493 6251614 6225497 6206170 
1948.351 6170308 6105114 6018023 5931420 5871534 5850947 5861290 5876505 
1952.208 5868780 5822939 5745541 5659832 5593707 5562125 5559272 5562896 
1956.065 5548062 5505779 5449038 5408878 5417366 5490612 5617739 5767299 
1959.923 5902467 6004013 6078433 6153908 6261732 6418340 6615408 6826264 
1963.780 7020620 7183464 7322916 7465041 7637124 7847599 8078801 8292159 
1967.638 8449838 8529376 8536370 8494538 8430008 8352582 8248088 8085485 
1971.495 7837343 7498212 7092789 6667388 6269329 5928162 5642712 5391197 
1975.353 5147909 4905863 4683042 4513968 4425990 4421237 4468838 4522404 
1979.210 4538744 4501212 4424317 4342315 4287265 4270701 4278230 4280138 
1983.067 4250123 4181603 4092789 4017739 3988946 4017739 4090448 4175681 
1986.925 4244368 4284421 4307109 4337696 4400719 4502584 4629021 4752043 
1990.782 4848061 4914575 4973224 5059200 5201660 5408106 5657583 5913148 
1994.640 6137407 6312192 6443192 6552635 6662443 6779514 6888133 6959977 
1998.497 6967149 6899343 6768576 6604171 6436668 6280692 6131190 5966859 
2002.354 5768910 5532323 5274802 5026383 4818476 4665291 4559570 4478279 
2006.212 4400217 4320160 4252967 4223590 4249722 4326652 4426459 4508544 
2010.069 4539614 4511758 4444267 4374444 4334551 4337630 4369491 4400752 
2013.927 4402292 4363667 4297739 4233360 4198430 4202445 4233159 4265281 
2017.784 4277460 4265582 4248082 4252967 4304967 4407413 4541690 4676678 
2021.642 4788056 4870846 4942491 5031847 5162360 5337222 5537458 5730466 
2025.499 5887856 6000889 6081122 6152631 6235782 6335524 6438887 6526096 
2029.356 6583852 6617157 6647874 6704570 6803713 6940113 7087434 7212099 
2033.214 7290938 7321669 7322882 7322478 7339495 7373701 7405617 7409931 
2037.071 7373162 7301114 7218197 7153013 7124214 7128693 7145299 7145434 
2040.929 7112627 7050894 6984860 6945702 6954254 7010787 7095013 7178412 
2044.786 7238647 7272103 7294443 7329757 7395338 7492650 7605325 7710104 
2048.644 7787549 7832687 7854549 7868382 7884544 7902359 7911909 7902629 
2052.501 7872498 7832383 7802460 7802224 7840447 7908163 7983247 8039949 
2056.358 8062463 8051831 8024221 7999481 7991415 7999009 8008189 7999278 
2060.216 7959625 7889673 7802494 7717086 7645521 7588331 7534655 7470603 
2064.073 7387721 7290163 7191852 7110034 7053319 7017522 6986981 6944288 
2067.931 6880559 6800953 6721933 6663183 6637208 6642087 6663822 6684044 
2071.788 6691514 6687039 6682866 6694643 6731423 6790317 6857399 6914728 
2075.646 6950719 6966206 6973142 6987957 7021630 7075647 7140786 7205092 
2079.503 7260513 7307887 7356716 7417919 7496695 7588331 7679548 7756617 
2083.360 7811332 7846384 7873039 7904924 7950040 8006265 8062835 8107022 
2087.218 8131565 8138756 8138486 8143044 8159250 8184234 8207802 8218000 
2091.075 8209254 8185653 8160262 8146791 8153544 8177954 8208681 8230899 
2094.933 8235154 8221444 8198719 8179068 8169817 8170256 8172315 8167319 
2098.790 8150471 8125995 8103444 8092709 8097131 8110195 8118466 8108845 
2102.647 8075290 8022230 7961582 7906544 7864300 7831911 7798816 7752636 
2106.505 7687608 7606607 7520967 7442289 7377442 7323489 7271295 7209606 
2110.362 7133274 7045169 6955769 6875206 6808593 6751951 6695484 6629336 
2114.220 6549473 6461251 6376543 6308023 6261967 6235480 6217866 6198070 
2118.077 6168729 6131258 6092748 6061700 6041743 6029479 6016478 5995211 
2121.935 5964272 5930984 5907740 5905322 5927759 5968908 6016074 6055384 
2125.792 6079442 6090127 6095671 6105248 6122319 6143019 6158646 6162007 
2129.649 6152933 6140768 6140129 6163688 6214472 6283953 6355731 6414305 
2133.507 6452204 6474502 6494008 6524279 6570564 6626510 6677853 6712242 
2137.364 6726005 6728327 6735158 6761710 6811824 6876519 6936712 6973445 
2141.222 6978361 6955971 6921327 6889109 6865579 6845113 6813742 6757874 
2145.079 6674387 6573491 6474300 6395105 6342551 6308628 6275918 6227177 
2148.937 6154916 6064624 5970655 5886849 5815484 5746011 5659832 5541988 
2152.794 5389957 5218058 5049211 4905159 4795460 4714627 4647139 4582339 
2156.651 4523409 4491737 4514938 4611406 4775158 4973526 5161489 5299387 
2160.509 5373216 5395458 5396364 5404215 5433437 5479136 5526450 5560513 
2164.366 5579308 5594210 5623747 5680880 5763974 5855749 5931823 5973846 
2168.224 5978179 5957117 5930782 5916507 5917615 5922754 5913013 5873751 
2172.081 5806015 5726303 5660738 5632911 5652782 5713679 5797283 5883591 
2175.938 5962760 6036569 6114926 6204725 6304695 6401897 6479277 6523068 
2179.796 6532924 6520310 6505040 6503426 6520579 6549170 6575038 6587350 
2183.653 6584390 6575207 6573760 6589941 6623919 6665269 6700700 6722169 
2187.511 6733509 6748350 6782644 6845955 6934356 7032642 7119667 7181073 
2191.368 7215670 7235850 7260614 7305596 7376633 7467098 7564998 7659549 
2195.226 7747678 7835353 7931818 8042042 8162423 8280609 8382510 8458961 
2199.083 8511500 8550361 8589935 8639212 8697723 8755667 8801108 8826536 
2202.940 8835058 8837492 8846656 8869381 8901611 8931035 8942670 8929953 
2206.798 8898161 8864139 8847942 8862719 8909085 8975277 9042799 9096086 
2210.655 9131378 9155607 9183052 9225153 9285301 9356967 9427697 9486213 
2214.513 9528311 9557948 9584435 9615973 9655203 9698671 9739908 9774745 
2218.370 9804194 9834120 9870421 9914759 9962560 10004194 10030880 10040238 
2222.228 10038848 10040306 10057837 10098260 10158122 10225522 10285605 
2225.603 10328763 10354858 10372232 10392729 10423646 10465258 10509249 
2228.978 10544893 10563497 10563871 10551140 10533622 10516649 10499880 
2232.353 10477341 10442075 10390999 10327745 10261245 10201539 10154831 
2235.729 10120678 10092631 10063297 10029014 9992599 9961407 9943236 9941981 
2239.586 9954694 9974223 9992700 10006703 10019181 10037729 10069096 
2242.961 10114844 10169315 10222707 10265011 10292594 10309593 10326117 
2246.336 10353060 10395885 10452122 10513050 10568759 10613067 10646717 
2249.712 10676191 10709608 10751586 10801109 10852302 10898678 10937616 
2253.087 10971596 11007007 11049048 11097823 11146502 11183558 11197974 
2256.462 11185123 11148984 11100984 11054112 11018562 10997797 10988962 
2259.837 10986446 10985937 10987229 10993821 11009555 11035487 11068115 
2263.213 11100883 11128179 11147692 11163398 11181858 11209670 11249146 
2266.588 11296754 11344707 11386304 11418959 11446207 11476077 11517006 
2269.963 11573627 11644345 11722631 11800455 11872809 11939387 12003590 
2273.338 12069983 12140510 12213160 12282823 12344180 12395181 12438242 
2276.714 12479502 12525334 12579256 12640415 12704722 12767230 12824628 
2280.089 12877665 12929274 12982836 13039785 13098311 13155069 13207259 
2283.464 13254501 13299117 13345242 13395642 13449945 13504493 13553374 
2286.839 13591697 13617885 13634467 13645750 13656213 13667565 13678370 
2290.215 13685038 13684628 13676592 13663735 13650708 13641579 13637647 
2293.590 13637168 13636553 13632621 13624723 13615287 13608688 13608688 
2296.965 13616449 13630364 13647050 13663154 13678063 13693313 13711745 
2300.340 13735068 13762701 13790747 13814006 13828782 13834050 13832784 
2303.716 13829398 13828885 13833025 13840823 13849238 13855259 13858099 
2307.091 13859604 13863298 13872158 13887039 13905890 13925631 13942601 
2310.466 13956082 13966963 13978084 13991326 14007204 14023801 14038722 
2313.841 14050734 14061207 14073186 14091017 14117167 14150884 14188471 
2317.217 14225378 14258110 14286222 14312384 14340328 14372863 14409510 
2320.592 14446744 14478842 14501316 14512450 14513615 14507961 14498403 
2323.967 14486139 14470381 14449930 14425164 14399064 14376733 14364061 
2327.342 14363959 14376082 14395639 14416772 14434173 14446402 14456096 
2330.718 14468428 14488194 14517178 14553804 14593722 14632993 14670143 
2334.093 14706610 14745548 14789701 14839378 14891256 14940739 14983917 
2337.468 15019793 15051179 15083081 15120304 15165730 15219019 15277909 
2340.843 15339656 15402888 15468017 15535869 15605998 15675694 15741309 
2344.219 15799446 15850648 15900377 15957298 16031519 16129477 16251950 
2347.594 16393449 16544806 16695490 16835756 16959358 17062284 17142690 
2350.969 17199774 17233626 17245210 17237074 17214218 17183504 17151790 
2354.344 17124802 17104500 17089820 17077620 17065212 17052152 17040746 
2357.719 17034680 17036852 17047396 17063490 17080376 17093646 17101778 
2361.095 17106844 17113428 17126560 17149722 17184606 17230904 17288480 
2364.470 17357618 17439528 17535702 17646042 17768114 17898130 18031600 
2367.845 18165906 18300566 18437342 18578762 18726626 18880666 19039468 
2371.220 19201100 19364628 19530504 19700120 19873964 20050548 20226408 
2374.596 20396850 20557702 20707214 20846002 20976940 21102560 21224078 
2377.971 21340514 21449564 21549310 21639816 21723512 21804996 21888586 
2381.346 21977350 22070908 22167206 22263282 22357318 22449458 22541898 
2384.721 22637462 22737970 22843146 22951388 23060112 23168162 23275820 
2388.097 23385252 23498422 23615818 23735450 23853294 23964310 24065056 
2391.472 24154020 24232422 24302640 24366594 24424914 24477144 24521808 
2394.847 24558864 24589686 24617248 24644740 24673848 24704184 24733472 
2398.222 24758798 24778442 24793070 24805384 24819136 24837344 24861062 
2401.598 24889308 24919940 24950928 24981354 25011608 25042530 25074404 
2404.973 25106174 25135908 25161574 25182288 25199354 25215506 25233484 
2408.348 25255398 25281386 25310116 25339374 25367930 25395646 25423436 
2411.723 25452314 25482532 25512714 25540792 25565108 25585386 25603418 
2415.099 25621904 25643662 25670094 25700748 25733654 25767052 25800174 
2418.474 25834424 25871876 25914642 25963322 26016264 26071042 26124700 
2421.849 26176114 26226442 26277904 26332994 26393096 26457148 26522688 
2425.224 26587428 26650064 26710984 26772014 26834962 26899854 26965284 
2428.600 27028538 27087112 27139768 27187564 27232612 27277170 27322334 
2431.975 27367606 27411650 27453192 27492550 27531626 27572932 27618620 
2435.350 27668728 27721524 27774080 27824596 27872994 27921930 27975428 
2438.725 28036500 28106098 28182564 28261874 28340102 28414662 28486090 
2442.101 28556858 28630040 28707522 28789758 28875094 28961862 29048928 
2445.476 29136902 29227266 29321476 29419858 29520920 29622396 29722052 
2448.851 29819316 29915536 30013698 30116494 30225748 30341032 30460684 
2452.226 30582360 30704922 30828126 30952856 31079654 31208194 31337202 
2455.602 31464502 31588458 31709022 31827304 31945620 32065428 32187480 
2458.977 32310606 32433156 32553564 32671470 32787334 32902374 33016690 
2462.352 33129572 33238940 33343044 33441230 33535500 33629328 33726828 
2465.727 33830936 33942276 34058584 34176508 34292844 34406168 34517112 
2469.103 34627944 34740960 34857308 34976520 35097348 35218356 35339536 
2472.478 35461688 35586428 35714224 35844868 35976300 36106376 36233784 
2475.853 36359104 36484460 36612596 36744948 36881672 37020316 37157992 
2479.228 37292352 37423540 37553108 37684196 37819588 37960156 38104860 
2482.604 38251816 38399440 38547692 38698172 38853260 39014972 39183960 
2485.979 39358420 39535596 39712956 39889296 40065016 40241176 40418932 
2489.354 40598396 40778080 40956532 41132504 41306544 41480476 41656948 
2492.729 41837912 42023480 42212556 42402516 42590956 42776808 42960544 
2496.104 43142964 43324804 43505768 43684572 43859896 44031476 44200776 
2499.480 44370836 44545264 44726700 44916036 45111820 45311076 45511264 
2502.855 45710220 45907612 46103880 46299680 46494684 46688376 46879752 
2506.230 47068892 47256812 47445780 47637936 47834652 48035456 48238164 
2509.605 48439892 48638680 48833368 49024504 49213168 49399832 49584088 
2512.981 49764076 49937820 50104492 50264864 50421508 50578200 50738156 
2516.356 50902936 51073076 51247080 51423920 51602656 51783404 51966548 
2519.731 52152268 52339904 52527692 52713692 52896632 53076084 53252920 
2523.106 53428552 53603916 53779204 53953244 54124808 54292720 54456492 
2526.482 54616716 54773916 54928544 55080364 55228744 55373784 55516536 
2529.857 55659980 55807688 55963964 56131948 56312748 56505848 56709756 
2533.232 56922372 57142312 57368944 57602428 57842624 58089392 58341680 
2536.607 58599048 58860776 59126500 59395764 59668124 59941416 60213320 
2539.983 60480900 60741632 60994016 61237472 61471592 61695648 61907396 
2543.358 62103344 62279532 62432188 62559104 62659412 62732988 62780156 
2546.733 62800028 62790268 62747612 62669256 62553360 62400476 62212460 
2550.108 61992764 61745184 61473084 61179828 60869276 60545804 60215032 
2553.484 59882916 59553796 59230460 58913104 58599540 58287600 57975284 
2556.859 57662396 57350380 57041416 56737544 56440000 56149256 55865412 
2560.234 55589400 55323760 55071828 54837708 54624756 54435044 54269104 
2563.609 54126348 54006112 53908340 53832720 53779876 53749952 53742492 
2566.985 53756964 53792704 53849712 53928148 54027836 54147856 54285812 
2570.360 54438348 54601536 54772076 54948884 55132540 55325156 55529452 
2573.735 55747444 55980136 56227616 56489320 56764956 57054416 57357524 
2577.110 57674128 58002660 58341148 58687560 59040324 59398956 59763512 
2580.486 60134044 60509312 60886316 61260132 61624500 61973428 62301828 
2583.861 62605524 62881820 63127444 63338780 63511408 63640328 63720824 
2587.236 63749752 63724540 63643552 63505620 63308804 63051620 62733376 
2590.611 62355488 61922224 61440524 60919404 60367840 59793436 59202208 
2593.987 58597832 57983884 57364484 56744340 56129836 55526932 54940352 
2597.362 54372852 53825932 53299856 52795444 52314376 51858856 51431712 
2600.737 51034540 50667368 50328856 50017112 49729964 49466400 49225748 
2604.112 49007852 48812456 48638532 48484908 48350000 48233388 48134504 
2607.488 48053480 47989788 47941904 47907496 47884264 47869908 47863768 
2610.863 47866100 47877972 47900172 47932100 47971988 48017100 48064692 
2614.238 48113032 48161456 48210504 48261160 48314112 48369372 48426636 
2617.613 48485648 48546928 48611736 48681524 48757256 48838780 48924696 
2620.989 49012448 49099548 49184556 49267204 49348412 49429792 49513600 
2624.364 49601544 49695008 49795140 49902768 50018600 50142272 50272492 
2627.739 50407252 50543432 50679020 50812644 50944664 51077096 51212296 
2631.114 51352380 51497700 51647768 51800728 51954932 52109156 52263436 
2634.490 52418032 52573428 52729444 52884764 53037784 53186852 53331324 
2637.865 53471760 53609012 53744668 53879304 54012864 54144852 54274660 
2641.240 54402180 54528236 54654292 54781808 54911624 55043768 55177572 
2644.615 55312096 55446436 55580288 55713692 55846760 55979152 56110076 
2647.990 56238364 56362728 56482300 56596804 56706284 56810916 56910548 
2651.366 57004992 57093600 57175720 57251476 57321304 57385808 57445596 
2654.741 57501084 57552336 57599060 57640792 57677688 57710040 57738232 
2658.116 57762568 57782892 57798676 57809392 57814988 57816088 57814080 
2661.491 57810748 57807948 57806776 57807648 57810148 57813248 57815788 
2664.867 57816808 57815596 57811620 57804088 57792244 57775212 57751892 
2668.242 57721088 57681280 57630540 57566488 57486216 57386904 57265840 
2671.617 57121152 56952328 56759784 56545208 56311352 56061896 55801168 
2674.992 55534836 55269648 55013308 54773052 54556372 54368756 54214292 
2678.368 54095160 54012192 53965216 53953508 53975980 54030648 54114524 
2681.743 54223564 54352836 54496868 54650948 54810792 54973104 55135664 
2685.118 55296592 55454604 55608948 55759348 55906640 56051980 56197144 
2688.493 56343188 56490752 56639232 56787164 56933328 57076368 57215828 
2691.869 57351700 57484252 57612908 57736532 57852884 57959308 58053448 
2695.244 58133556 58198564 58248044 58281388 58297836 58296168 58275176 
2698.619 58233644 58170980 58087080 57982064 57855684 57706820 57533688 
2701.994 57333704 57103728 56841016 56543172 56208120 55834588 55421512 
2705.370 54968400 54475912 53945668 53380776 52785452 52164452 51523108 
2708.745 50866800 50200740 49530720 48862880 48203880 47560444 46939220 
2712.120 46344800 45781016 45249404 44750832 44285340 43852896 43453360 
2715.495 43086100 42749860 42441756 42158332 41895200 41649072 41417264 
2718.871 41198476 40992544 40799740 40620448 40454208 40300468 40158848 
2722.246 40028828 39910688 39804492 39710376 39627712 39555336 39491648 
2725.621 39434900 39383992 39338212 39297660 39262800 39234260 39212536 
2728.996 39197884 39190308 39189944 39196904 39210544 39230704 39256672 
2732.372 39287576 39322940 39362192 39405436 39452860 39503876 39558136 
2735.747 39614212 39670916 39726932 39780888 39832420 39881524 39928304 
2739.122 39973388 40017096 40060260 40103936 40149688 40199084 40254080 
2742.497 40316064 40385768 40463480 40549392 40643292 40745584 40856924 
2745.873 40977976 41108940 41249228 41397476 41551532 41709324 41869076 
2749.248 42029316 42189404 42348856 42507488 42664824 42820612 42974040 
2752.623 43125032 43273372 43418644 43560344 43698020 43830644 43957704 
2755.998 44079184 44195052 44305960 44412492 44514864 44612636 44705216 
2759.374 44791568 44871248 44944296 45011108 45072304 45128400 45179432 
2762.749 45224728 45263852 45296472 45322624 45343364 45359512 45372792 
2766.124 45384156 45394716 45405380 45416932 45430544 45447432 45468508 
2769.499 45494340 45525064 45560608 45601052 45646800 45698736 45758156 
2772.875 45825936 45902532 45987096 46078088 46173556 46272148 46372744 
2776.250 46475472 46581468 46691808 46807448 46929216 47057404 47192024 
2779.625 47333068 47480448 47634240 47793924 47958668 48127616 48299744 
2783.000 48474644 48651912 48831920 49014676 49200512 49389028 49579816 
2786.375 49772584 49966960 50163064 50361036 50560668 50761692 50963108 
2789.751 51163944 51363608 51562204 51760484 51960124 52162696 52369584 
2793.126 52581316 52797872 53018692 53243256 53470896 53701168 53933100 
2796.501 54165456 54396660 54625168 54849660 55069944 55286580 55501136 
2799.876 55715008 55929628 56145104 56361260 56577256 56792332 57006088 
2803.252 57218736 57430432 57641624 57852240 58062004 58270588 58477868 
2806.627 58683576 58888172 59091532 59293320 59492612 59688120 59878660 
2810.002 60063196 60241752 60414444 60582028 60744984 60903356 61056940 
2813.377 61205504 61348852 61487780 61623396 61757176 61890504 62024372 
2816.753 62158816 62293644 62428284 62562352 62695780 62829240 62963284 
2820.128 63098788 63236320 63376352 63518844 63663580 63810004 63957208 
2823.503 64104348 64249964 64392708 64531340 64664528 64791100 64910160 
2826.878 65020600 65121792 65213264 65294588 65366028 65427928 65480516 
2830.254 65523892 65557144 65579152 65587900 65581536 65558420 65517960 
2833.629 65460324 65386556 65298096 65196632 65083416 64958876 64823024 
2837.004 64674908 64513392 64336984 64144752 63936212 63712380 63475400 
2840.379 63228884 62977420 62725640 62477484 62236284 62003656 61780668 
2843.755 61568028 61366864 61178456 61004848 60847356 60707340 60585036 
2847.130 60479836 60391028 60317964 60260636 60219412 60194592 60186296 
2850.505 60193984 60216552 60252752 60301556 60362280 60434820 60518756 
2853.880 60613304 60717052 60827728 60943384 61062276 61183760 61308020 
2857.256 61435448 61566576 61700840 61836940 61973352 62108236 62240488 
2860.631 62369568 62495472 62618688 62739268 62856852 62971368 63082308 
2864.006 63189604 63292972 63392268 63486980 63575656 63656712 63728532 
2867.381 63789436 63838400 63875020 63899168 63910408 63908300 63892020 
2870.757 63860820 63814380 63752712 63676312 63585624 63480920 63362396 
2874.132 63230344 63085340 62929580 62766260 62599360 62433256 62271884 
2877.507 62117720 61971784 61834380 61705308 61584520 61471860 61367816 
2880.882 61272076 61183872 61102324 61025784 60953108 60883684 60817588 
2884.258 60755504 60697696 60644200 60594332 60547212 60502036 60458012 
2887.633 60415132 60373400 60332508 60291812 60249900 60205632 60157752 
2891.008 60105696 60049572 59989992 59927156 59861128 59791344 59716784 
2894.383 59636880 59550944 59458872 59360968 59257692 59149280 59036336 
2897.759 58919212 58798740 58676068 58552144 58428096 58304276 58180796 
2901.134 58057232 57933256 57808592 57683740 57558772 57433760 57308296 
2904.509 57181508 57052792 56921504 56788296 56654408 56521208 56389668 
2907.884 56259900 56131116 56001920 55871972 55741420 55611732 55484460 
2911.260 55360532 55238976 55116744 54989388 54852372 54702768 54540220 
2914.635 54366464 54185200 54000184 53814308 53628808 53443952 53259548 
2918.010 53075748 52893860 52715604 52542764 52376236 52216424 52062984 
2921.385 51915648 51775080 51642656 51520348 51409856 51311960 51226388 
2924.760 51152128 51088208 51034240 50990272 50956664 50933564 50919964 
2928.136 50914000 50913292 50916236 50922500 50933672 50952676 50983416 
2931.511 51029136 51092044 51173116 51272096 51388484 51521316 51669900 
2934.886 51833316 52010432 52199944 52400384 52610156 52828108 53052948 
2938.261 53282736 53515196 53746276 53971028 54184224 54380512 54555772 
2941.637 54707164 54833312 54934296 55010708 55064268 55096880 55111776 
2945.012 55112680 55103800 55089280 55073072 55057648 55044972 55036208 
2948.387 55032296 55034520 55044144 55062576 55090408 55127348 55171780 
2951.762 55221404 55273632 55326244 55377960 55428252 55477268 55525460 
2955.138 55573472 55621824 55671124 55721524 55773060 55824716 55875208 
2958.513 55922092 55962572 55994644 56016996 56029776 56034604 56033924 
2961.888 56030380 56025972 56021972 56018732 56015944 56012964 56009196 
2965.263 56004108 55997172 55987972 55976024 55961024 55942820 55921376 
2968.639 55896688 55868728 55836964 55801020 55760328 55714860 55665252 
2972.014 55612220 55557016 55500460 55443008 55384700 55325644 55266412 
2975.389 55208088 55152444 55101132 55055352 55014960 54978744 54944712 
2978.764 54910836 54876056 54840528 54805492 54772940 54744864 54722688 
2982.140 54707276 54698972 54697844 54703932 54717012 54736596 54761400 
2985.515 54789856 54820532 54852104 54884400 54917940 54953660 54992056 
2988.890 55032712 55074196 55114184 55150412 55181372 55206620 55226412 
2992.265 55241612 55252748 55259712 55261932 55259036 55251060 55239240 
2995.641 55224944 55209668 55193752 55176368 55155264 55127988 55092516 
2999.016 55048092 54995404 54936100 54872224 54805680 54736932 54666240 
3002.391 54593460 54518620 54442140 54364928 54287648 54210800 54134380 
3005.766 54057972 53981348 53904928 53829420 53756216 53686284 53620524 
3009.142 53559084 53501552 53447436 53396364 53347992 53302552 53259812 
3012.517 53219432 53180896 53143336 53106264 53069232 53032172 52994920 
3015.892 52957448 52919496 52880872 52841244 52800868 52760196 52719568 
3019.267 52679276 52638920 52597628 52554280 52507724 52457660 52404124 
3022.643 52347792 52289108 52227896 52163068 52092944 52015772 51930284 
3026.018 51836340 51734544 51626464 51513072 51394900 51271540 51141580 
3029.393 51003832 50857340 50702596 50541348 50375996 50209924 50046224 
3032.768 49887084 49733976 49587356 49446836 49311480 49180436 49052732 
3036.144 48928332 48807896 48692420 48583500 48482200 48389296 48304152 
3039.519 48225616 48151940 48080944 48010552 47938612 47863024 47781352 
3042.894 47691148 47589984 47475940 47348072 47206908 47054156 46892380 
3046.269 46724828 46554616 46384876 46218704 46059080 45908828 45771040 
3049.645 45647536 45539376 45446364 45367124 45299636 45241604 45191488 
3053.020 45147884 45110016 45077156 45048336 45022724 44999016 44976412 
3056.395 44954216 44931876 44908436 44882420 44851744 44814120 44767544 
3059.770 44711348 44646164 44574304 44498460 44421556 44345224 44270188 
3063.146 44196004 44121840 44046876 43970864 43893984 43816424 43738144 
3066.521 43658852 43577816 43494636 43409344 43322684 43235704 43149440 
3069.896 43065060 42983112 42904288 42829608 42760208 42697872 42643808 
3073.271 42598376 42560000 42525360 42489728 42447712 42393752 42323580 
3076.646 42234024 42123208 41990520 41836564 41662968 41472052 41267700 
3080.022 41054600 40837264 40620624 40408460 40203736 40008664 39825048 
3083.397 39654252 39497852 39356896 39232192 39123480 39029944 38949948 
3086.772 38881456 38822716 38771524 38725588 38681760 38636052 38583324 
3090.147 38518184 38435024 38329004 38196712 38035956 37846520 37629632 
3093.523 37388220 37126912 36851588 36569592 36287848 36013236 35750704 
3096.898 35503032 35271180 35053812 34849296 34656008 34472452 34298260 
3100.273 34133100 33976956 33829680 33690624 33558948 33433714 33313490 
3103.648 33196378 33080120 32961528 32837544 32705586 32564174 32413378 
3107.024 32254786 32091506 31926610 31763062 31602960 31447120 31295716 
3110.399 31148102 31003706 30862026 30722954 30586448 30452722 30321882 
3113.774 30193886 30068448 29944752 29821942 29699238 29576000 29452408 
3117.149 29329276 29207808 29089068 28973444 28860362 28748090 28634642 
3120.525 28518040 28398038 28275948 28154032 28035474 27922638 27816788 
3123.900 27717392 27622928 27531626 27442108 27354126 27267644 27183258 
3127.275 27101114 27020606 26941062 26861748 26782412 26703796 26626636 
3130.650 26551430 26477820 26404432 26329300 26250272 26166788 26079170 
3134.026 25989316 25899660 25812658 25730032 25652098 25578710 25508742 
3137.401 25440546 25372182 25301264 25225304 25141982 25049586 24948120 
3140.776 24838854 24724246 24607462 24491026 24376408 24263430 24151078 
3144.151 24038264 23924676 23810838 23698322 23588496 23482858 23381442 
3147.527 23284384 23191160 23102042 23017696 22938918 22865464 22796248 
3150.902 22728334 22658686 22584128 22502952 22415650 22324356 22231718 
3154.277 22140218 22051108 21964072 21878026 21791652 21704632 21617318 
3157.652 21530646 21445630 21362578 21281316 21201080 21121414 21041728 
3161.028 20962336 20883478 20804706 20725426 20643902 20558918 20469296 
3164.403 20375250 20277612 20177672 20076748 19975602 19874310 19772554 
3167.778 19670302 19567970 19466668 19367226 19270542 19176338 19084198 
3171.153 18992804 18900980 18808622 18715486 18621888 18528518 18435270 
3174.529 18342354 18249732 18158066 18068350 17981970 17899648 17821966 
3177.904 17747612 17674686 17601082 17524662 17444356 17360340 17273276 
3181.279 17184468 17095162 17006320 16918670 16832932 16749760 16669942 
3184.654 16593650 16520711 16449917 16379720 16308330 16234029 16156370 
3188.030 16075252 15991570 15906530 15821334 15737154 15655082 15575981 
3191.405 15500740 15429426 15361934 15297404 15234564 15171666 15107404 
3194.780 15040888 14972291 14902195 14831664 14761591 14693038 14626173 
3198.155 14560930 14497170 14434344 14372075 14309507 14246777 14183644 
3201.531 14121343 14061377 14005766 13956390 13914170 13878863 13848315 
3204.906 13819924 13790303 13756990 13718277 13673583 13622911 13566433 
3208.281 13504254 13436308 13362975 13285110 13204355 13122694 13042072 
3211.656 12963513 12887187 12812308 12738227 12664397 12591534 12520833 
3215.031 12453688 12390851 12331942 12276040 12221237 12166168 12110151 
3218.407 12053598 11996642 11939966 11883026 11825276 11765762 11704011 
3221.782 11640737 11577063 11514863 11455426 11399196 11345931 11294645 
3225.157 11244488 11195458 11147725 11101596 11057103 11013532 10969422 
3228.532 10923515 10875133 10824888 10774649 10726487 10682507 10643117 
3231.908 10607464 10573241 10537866 10499167 10456059 10408476 10357335 
3235.283 10303655 10248319 10192143 10135939 10080388 10026369 9974256 
3238.658 9924488 9876590 9829172 9781081 9730997 9677970 9622206 9564112 
3242.516 9504502 9444629 9385508 9328428 9274706 9225492 9181157 9141428 
3246.373 9104477 9067598 9028015 8983700 8933842 8879493 8823087 8767399 
3250.230 8714220 8664731 8618561 8574693 8532045 8490011 8448622 8408116 
3254.088 8368019 8327419 8284391 8237484 8185450 8128796 8068573 8007481 
3257.945 7947813 7891292 7838625 7789607 7743462 7699277 7656211 7613586 
3261.803 7570596 7526362 7479975 7431368 7380913 7329992 7280594 7234099 
3265.660 7191852 7153956 7119633 7087670 7057124 7027288 6997655 6967822 
3269.518 6936881 6903686 6866757 6825893 6781466 6735259 6689798 6647201 
3273.375 6608208 6572617 6538675 6504401 6468650 6431388 6393524 6356840 
3277.232 6322076 6289230 6256892 6223211 6186609 6146884 6104979 6062742 
3281.090 6021987 5983890 5948316 5914491 5881072 5847286 5813133 5778983 
3284.947 5745877 5714216 5684371 5656139 5629923 5605924 5584913 5567461 
3288.805 5553701 5542592 5532323 5520477 5504839 5483900 5457628 5426995 
3292.662 5393244 5358121 5322765 5287513 5252231 5216515 5179763 5141505 
3296.520 5101843 5061379 5021087 4982542 4947585 4918027 4895039 4878821 
3300.377 4868433 4862368 4858414 4854595 4849736 4843337 4835061 4824909 
3304.234 4812010 4795393 4773785 4746315 4712818 4673764 4629925 4581938 
3308.092 4530105 4474463 4415045 4352221 4287499 4222954 4160895 4102991 
3311.949 4049610 4000082 3952766 3906158 3859521 3812688 3766763 3722112 
3315.807 3679070 3636935 3594503 3550572 3505175 3458849 3413228 3369582 
3319.664 3328812 3290517 3254094 3218009 3181959 3145846 3110136 3075030 
3323.521 3039960 3003392 2963123 2917488 2866054 2810057 2752067 2695218 
3327.379 2641777 2592709 2547079 2503320 2459533 2414617 2368806 2323300 
3331.236 2279596 2239229 2203027 2171424 2144552 2122875 2106627 2095906 
3335.094 2090280 2087549 2084952 2078627 2065177 2042139 2008750 1966277 
3338.951 1917652 1866502 1816690 1770842 1730588 1695793 1664792 1635058 
3342.809 1603828 1568977 1529506 1486349 1441633 1398684 1360392 1329049 
3346.666 1305652 1289501 1278767 1270824 1262816 1251551 1234039 1207491 
3350.523 1169681 1119450 1057732 987389 913139 840860 775797 721662 679978 
3354.863 650145 630169 618024 611952 611421 615702 623566 632923 640456 
3359.203 642679 637204 623433 603259 580100 558468 542212 533620 533620 
3363.542 541582 556544 576948 601666 629107 657346 683761 705466 719305 
3367.882 722857 714427 692954 658441 611521 553658 487343 416694 347151 
3372.221 284051 232530 195965 174750 166464 167193 172066 177237 180319 
3376.561 180883 179491 176905 173657 169016 162088 152045 138356 121652 
3380.901 103224 84433 66571 50565 36946 25513 16302 8614 2186 -3578 -8846 
3386.205 -13253 -15572 -13783 -5897 9542 32074 59579 87449 110714 124734 
3391.026 126590 115818 94508 66637 36117 6792 -18753 -39493 -54667 -64242 
3395.848 -67985 -65335 -56158 -40686 -19946 4141 28628 50366 66405 73961 
3400.670 71542 58386 35786 5765 -28626 -64341 -98396 -129137 -155337 -176767 
3405.492 -193625 -205746 -213098 -215384 -212900 -206839 -198957 -191505 
3409.349 -186537 -185312 -187895 -193327 -200348 -207800 -215251 -222934 
3413.207 -231777 -242274 -254858 -268832 -283005 -296183 -307209 -315222 
3417.064 -319824 -320751 -317970 -312010 -303799 -294991 -287905 -284329 
3420.921 -286051 -293236 -304991 -318897 -332670 -343927 -351741 -356144 
3424.779 -357898 -358097 -358097 -358263 -358594 -358792 -358693 -357965 
3428.636 -356243 -353661 -349986 -345847 -341543 -338299 -337206 -339590 
3432.494 -345814 -355647 -368724 -383820 -400637 -419009 -439929 -463893 
3436.351 -491596 -522110 -553912 -584323 -610595 -631274 -645534 -654202 
3440.208 -658503 -660058 -659859 -658569 -656551 -654103 -652316 -652085 
3444.066 -655095 -662440 -675111 -693140 -716032 -742395 -770577 -798160 
3447.923 -822667 -841187 -851835 -853356 -845684 -830802 -811687 -791645 
3451.781 -773983 -760786 -752947 -750102 -751128 -755163 -761249 -768592 
3455.638 -777192 -786419 -795581 -803783 -810960 -816615 -821576 -826272 
3459.496 -831232 -836458 -841153 -844560 -845816 -844659 -841187 -835895 
3463.353 -828752 -820021 -808975 -795581 -779904 -763234 -747622 -735350 
3467.210 -728602 -727940 -733200 -742759 -754733 -766574 -776563 -783674 
3471.068 -787213 -786585 -781987 -773189 -760885 -745703 -728404 -709251 
3474.925 -687914 -663201 -633590 -597558 -554574 -505463 -451845 -396168 
3478.783 -340749 -286912 -234724 -183391 -131224 -76035 -16401 49405 122546 
3483.122 203092 290550 383165 477923 570810 657877 735668 802352 857526 
3487.462 902082 937378 963910 981179 987489 980648 958929 921606 868980 
3491.802 802452 723620 634317 536141 430757 320557 208297 96662 -11994 
3496.141 -116715 -217238 -314096 -407523 -496627 -579161 -652349 -713650 
3499.999 -762605 -800939 -833051 -863839 -898361 -938897 -985149 -1033842 
3503.856 -1080117 -1119744 -1149223 -1167762 -1175758 -1175131 -1168621 
3507.231 -1158971 -1149124 -1141721 -1138416 -1139871 -1145389 -1152891 
3510.606 -1159500 -1163036 -1163036 -1160194 -1157253 -1157220 -1162276 
3513.982 -1172851 -1187687 -1204010 -1219441 -1232029 -1241875 -1249673 
3517.357 -1257007 -1264639 -1272039 -1278085 -1280959 -1279770 -1274352 
3520.732 -1266059 -1256875 -1249111 -1244419 -1244419 -1249573 -1260410 
3524.107 -1277457 -1300483 -1329025 -1361429 -1396010 -1430291 -1461862 
3527.483 -1489766 -1513309 -1532756 -1548373 -1560193 -1567555 -1569998 
3530.858 -1566796 -1558707 -1546887 -1533119 -1519549 -1507728 -1498450 
3534.233 -1491582 -1487850 -1487454 -1491483 -1500695 -1515653 -1535364 
3537.608 -1557815 -1579803 -1597993 -1609977 -1614499 -1611363 -1601922 
3540.984 -1587231 -1568347 -1546194 -1521431 -1495544 -1470679 -1450040 
3544.359 -1437194 -1435278 -1446077 -1469391 -1502412 -1540548 -1578648 
3547.734 -1611660 -1636121 -1650249 -1654804 -1651602 -1644175 -1635560 
3551.109 -1629057 -1626251 -1627703 -1632721 -1639884 -1647839 -1655365 
3554.485 -1661967 -1667017 -1669888 -1670152 -1667017 -1659854 -1649160 
3557.860 -1636220 -1623214 -1612684 -1606676 -1605883 -1609746 -1616315 
3561.235 -1623115 -1627803 -1628958 -1625657 -1618329 -1607864 -1595682 
3564.610 -1583864 -1574983 -1572276 -1578615 -1595947 -1624204 -1660976 
3567.986 -1701475 -1740286 -1773122 -1797474 -1813082 -1821792 -1826049 
3571.361 -1828193 -1830008 -1832153 -1834594 -1836904 -1839082 -1840632 
3574.736 -1841952 -1842777 -1842909 -1841820 -1839115 -1834331 -1827534 
3578.111 -1818658 -1808297 -1796550 -1783714 -1770152 -1756226 -1742464 
3581.487 -1729066 -1715733 -1701937 -1685665 -1665861 -1642063 -1615589 
3584.862 -1589839 -1570493 -1563758 -1574851 -1606048 -1655266 -1716162 
3588.237 -1779358 -1836079 -1879497 -1906615 -1917073 -1913510 -1899226 
3591.612 -1877881 -1852906 -1827435 -1803810 -1784308 -1769822 -1760252 
3594.988 -1754741 -1751441 -1748966 -1745797 -1741837 -1737151 -1733026 
3598.363 -1730848 -1732201 -1738603 -1750616 -1768238 -1789951 -1813346 
3601.738 -1834693 -1850168 -1856766 -1852741 -1838422 -1815655 -1787938 
3605.113 -1759229 -1732696 -1711013 -1695435 -1685896 -1682002 -1682860 
3608.489 -1687184 -1693686 -1701211 -1708571 -1715369 -1721937 -1729198 
3611.864 -1738702 -1750913 -1765004 -1778302 -1786387 -1785199 -1771835 
3615.239 -1746689 -1713026 -1676754 -1644835 -1624369 -1619880 -1633084 
3618.614 -1661604 -1700320 -1742827 -1782361 -1814797 -1837960 -1851454 
3621.990 -1856436 -1853962 -1844592 -1828655 -1805063 -1772462 -1730485 
3625.365 -1680054 -1624832 -1571418 -1530313 -1513606 -1531799 -1588915 
3628.740 -1678041 -1781998 -1877551 -1946761 -1982120 -1986045 -1968003 
3632.115 -1939504 -1910937 -1888966 -1876000 -1870161 -1867884 -1864816 
3635.490 -1858515 -1848650 -1836079 -1822386 -1808132 -1793745 -1778698 
3638.866 -1762727 -1746227 -1730551 -1716888 -1706458 -1699032 -1693422 
3642.241 -1687118 -1677843 -1663650 -1644109 -1620012 -1593141 -1566366 
3645.616 -1542892 -1526186 -1519582 -1525525 -1545699 -1580265 -1627605 
3648.991 -1684279 -1744709 -1802721 -1851157 -1883258 -1895069 -1884545 
3652.367 -1854094 -1808099 -1754741 -1703158 -1663056 -1642657 -1646321 
3655.742 -1672727 -1713422 -1757315 -1792987 -1813511 -1817635 -1809122 
3659.117 -1794076 -1778071 -1765235 -1757117 -1752728 -1750748 -1749725 
3662.492 -1749197 -1748966 -1749725 -1750913 -1751540 -1749890 -1744016 
3665.868 -1732696 -1716195 -1696359 -1676754 -1662627 -1659788 -1673420 
3669.243 -1705699 -1753751 -1808198 -1856436 -1885568 -1887745 -1862639 
3672.618 -1817536 -1765598 -1722333 -1704247 -1722234 -1776323 -1852807 
3675.993 -1929377 -1984858 -2007846 -1999799 -1970411 -1931983 -1894277 
3679.369 -1862177 -1835980 -1812950 -1789423 -1763651 -1735699 -1707383 
3682.744 -1680153 -1653748 -1625855 -1593108 -1553854 -1508917 -1463645 
3686.119 -1424974 -1401691 -1399577 -1420053 -1457668 -1503271 -1546194 
3689.494 -1579374 -1600832 -1612552 -1617899 -1618890 -1615291 -1605322 
3692.870 -1588057 -1564253 -1537544 -1512615 -1494983 -1487751 -1491681 
3696.245 -1504063 -1520209 -1535530 -1546524 -1552797 -1555967 -1559929 
3699.620 -1568380 -1584293 -1608887 -1640643 -1676589 -1711970 -1742266 
3702.995 -1764476 -1777048 -1780711 -1777609 -1771010 -1763750 -1757810 
3706.371 -1754279 -1752266 -1750550 -1747415 -1743025 -1738108 -1736128 
3709.746 -1740649 -1755302 -1781140 -1816513 -1856601 -1894805 -1925122 
3713.121 -1943363 -1949037 -1943726 -1930927 -1914895 -1898995 -1885568 
3716.496 -1876198 -1870887 -1868709 -1868610 -1869435 -1870689 -1872074 
3719.872 -1874351 -1877122 -1880322 -1882005 -1879860 -1871349 -1855149 
3723.247 -1831955 -1804899 -1779490 -1761638 -1756589 -1766852 -1790578 
3726.622 -1821792 -1851718 -1871349 -1875176 -1861253 -1833011 -1797276 
3729.997 -1762760 -1736887 -1724313 -1725039 -1734775 -1746986 -1756028 
3733.373 -1761572 -1767941 -1783549 -1815655 -1867291 -1933269 -2001448 
3736.748 -2057447 -2089764 -2094380 -2074265 -2036572 -1988849 -1936865 
3740.123 -1882599 -1825554 -1766126 -1706722 -1654936 -1622587 -1622818 
3743.498 -1664079 -1742398 -1838290 -1921031 -1965200 -1961406 -1916974 
3746.874 -1849178 -1777379 -1719033 -1685566 -1681441 -1704148 -1746491 
3750.249 -1800048 -1858878 -1919283 -1978723 -2032779 -2074562 -2096656 
3753.624 -2094380 -2068000 -2022787 -1967574 -1911465 -1862540 -1825686 
3756.999 -1801797 -1789786 -1787146 -1792261 -1803777 -1820209 -1838884 
3760.375 -1854952 -1862837 -1857624 -1838158 -1807373 -1771604 -1738636 
3763.750 -1715964 -1707350 -1712861 -1728373 -1747910 -1765928 -1780084 
3767.125 -1791073 -1801863 -1815193 -1833044 -1855018 -1878937 -1901865 
3770.500 -1921130 -1935117 -1943627 -1946959 -1946035 -1941615 -1934556 
3773.875 -1925517 -1915159 -1903712 -1890978 -1876561 -1860428 -1843965 
3777.251 -1829480 -1820506 -1820572 -1830767 -1849607 -1871151 -1888042 
3780.626 -1893716 -1884479 -1861715 -1830107 -1797012 -1769129 -1750979 
3784.001 -1743850 -1745963 -1753322 -1761473 -1767347 -1769327 -1766951 
3787.376 -1761209 -1752662 -1742398 -1731673 -1721970 -1715237 -1712663 
3790.752 -1714511 -1719759 -1726260 -1731178 -1733587 -1733587 -1733785 
3794.127 -1737910 -1748867 -1767578 -1791436 -1814434 -1828622 -1827633 
3797.502 -1808363 -1773287 -1729000 -1685830 -1655134 -1647608 -1668469 
3800.877 -1716195 -1779721 -1840995 -1881312 -1889560 -1864486 -1814368 
3804.253 -1753487 -1699131 -1666456 -1666027 -1699462 -1758536 -1826346 
3807.628 -1883522 -1915951 -1919448 -1897840 -1860197 -1815325 -1769789 
3811.003 -1725699 -1682497 -1638300 -1592546 -1547977 -1511030 -1489666 
3814.378 -1492077 -1521596 -1574521 -1637970 -1694181 -1727449 -1729165 
3817.754 -1701145 -1653649 -1602582 -1564154 -1553028 -1577426 -1635494 
3821.129 -1714412 -1793086 -1852081 -1879695 -1876033 -1849244 -1812488 
3824.504 -1777939 -1753652 -1742200 -1740913 -1742827 -1740550 -1729099 
3827.879 -1707713 -1680153 -1652064 -1628496 -1612585 -1604233 -1600832 
3831.255 -1598621 -1593603 -1583831 -1568347 -1548373 -1525558 -1502082 
3834.630 -1480751 -1464537 -1457305 -1462126 -1480982 -1513143 -1554811 
3838.005 -1599248 -1639587 -1671044 -1691309 -1702168 -1706756 -1708274 
3841.380 -1709099 -1710551 -1712795 -1715601 -1718934 -1722663 -1726095 
3844.756 -1728076 -1726095 -1718175 -1702333 -1678041 -1645826 -1606874 
3848.131 -1562207 -1512120 -1455984 -1393797 -1327373 -1262227 -1208802 
3851.506 -1180979 -1194296 -1259452 -1374145 -1519186 -1663650 -1777708 
3854.881 -1844295 -1863398 -1845680 -1805723 -1755566 -1703521 -1654177 
3858.257 -1609052 -1567819 -1530379 -1496105 -1465429 -1438019 -1414340 
3861.632 -1394821 -1380751 -1374079 -1377547 -1392047 -1416090 -1443336 
3865.007 -1464537 -1470382 -1454432 -1416850 -1365029 -1311847 -1271379 
3868.382 -1256280 -1273229 -1319115 -1380850 -1440067 -1482072 -1499275 
3871.758 -1495478 -1479760 -1463877 -1456380 -1460310 -1472594 -1485572 
3875.133 -1490657 -1481477 -1456579 -1419030 -1375797 -1334607 -1302862 
3878.508 -1286443 -1287897 -1306099 -1335796 -1368662 -1395283 -1407735 
3881.883 -1401988 -1379033 -1344979 -1308841 -1282215 -1275442 -1294603 
3885.259 -1338505 -1398322 -1459022 -1504723 -1525096 -1517997 -1488940 
3888.634 -1448025 -1407470 -1378967 -1370148 -1383096 -1412887 -1450502 
3892.009 -1484713 -1506540 -1511426 -1499771 -1474642 -1440067 -1400403 
3895.384 -1358588 -1316439 -1275442 -1237382 -1203845 -1176684 -1157683 
3898.760 -1147339 -1145026 -1148694 -1155964 -1165316 -1176485 -1190298 
3902.135 -1209429 -1235168 -1267910 -1305438 -1343328 -1375929 -1397760 
3905.510 -1405654 -1398685 -1378406 -1347952 -1311153 -1271412 -1231501 
3908.885 -1193239 -1157584 -1124735 -1094065 -1064979 -1036487 -1007563 
3912.260 -977347 -945973 -914000 -883216 -856233 -836358 -825974 -826900 
3916.118 -839302 -861524 -890193 -922465 -955263 -987000 -1017149 -1045213 
3919.975 -1070664 -1092412 -1108871 -1118951 -1122818 -1121727 -1118753 
3923.351 -1117464 -1120339 -1128601 -1141457 -1155865 -1168687 -1177146 
3926.726 -1180153 -1178501 -1173544 -1167167 -1160624 -1154444 -1148793 
3930.101 -1144002 -1140730 -1140796 -1146117 -1157848 -1175659 -1197270 
3933.476 -1219738 -1239496 -1253571 -1260873 -1262062 -1258097 -1250366 
3936.852 -1239662 -1225818 -1208372 -1187225 -1162441 -1135541 -1108970 
3940.227 -1085372 -1067458 -1057146 -1054600 -1058831 -1067425 -1077176 
3943.602 -1085240 -1088479 -1086100 -1078531 -1067888 -1057542 -1051196 
3946.977 -1052022 -1061112 -1078068 -1100245 -1124206 -1146183 -1163829 
3950.353 -1176023 -1183193 -1185936 -1185044 -1180748 -1172917 -1161186 
3953.728 -1145819 -1127940 -1109499 -1092445 -1078266 -1067260 -1059162 
3957.103 -1052584 -1046436 -1040090 -1033313 -1026504 -1020256 -1014538 
3960.478 -1009348 -1004092 -998769 -993282 -988224 -983992 -981579 -980752 
3964.336 -981414 -983232 -985182 -987265 -988918 -990207 -990703 -990240 
3968.193 -988819 -986372 -983959 -982207 -982769 -986207 -992951 -1002240 
3972.051 -1012719 -1022934 -1031661 -1038173 -1042866 -1046172 -1048552 
3975.426 -1050733 -1052783 -1054667 -1056352 -1057807 -1058997 -1060286 
3978.801 -1061476 -1062930 -1064682 -1067095 -1070664 -1075721 -1081671 
3982.176 -1087818 -1092247 -1093404 -1089867 -1081505 -1069805 -1057046 
3985.552 -1046337 -1039726 -1038173 -1041015 -1046337 -1051923 -1055890 
3988.927 -1057179 -1055493 -1050932 -1043594 -1033644 -1021083 -1006472 
3992.302 -990868 -976190 -964156 -956453 -953213 -953676 -956222 -959197 
3996.159 -961214 -962206 -962768 -964255 -967628 -973215 -980851 -989744 
4000.017 -999397 -1009414 
##END=
