
##TITLE=Z140a_2_d
##JCAMP-DX=5.01  $$ Nicolet v. 1
##DATATYPE=INFRARED SPECTRUM
##ORIGIN=UniL
##OWNER=Nicolet
##LONGDATE=2011/09/20
##TIME=09:56:30
##SPECTROMETER/DATA SYSTEM=Nicolet iS5
##DATA PROCESSING=
Ratio against background
%Transmittance->Absorbance
Truncated
ElementMultiply or ElementDivide
##COMMENTS=
Number of sample scans: 32
Collection length: 51.15 sec
Sample gain: 2.0
Background collected on: Mar Sep 20 09:46:26 2011 (GMT+02:00);
Number of background scans: 32
Background gain: 2.0
Sample spacing:  1.000
Number of scan points: 12415
Resolution points: 8192
Number of FFT points: 65536
Apodization: N-B fort;
Phase correction: Mertz;
Laser frequency: 15798.0 cm-1
Number of rejected sample scans: 0
Number of rejected background scans: 0
Bench serial number: ASB1000141;
##RESOLUTION=4.000
##XUNITS=1/CM
##YUNITS=ABSORBANCE
##FIRSTX=649.893372
##LASTX=4000.122314
##FIRSTY=0.088320
##MAXX=4000.122314
##MINX=649.893372
##MAXY=0.637127
##MINY=-0.003229
##XFACTOR=1.000000
##YFACTOR=1.000000E-009
##NPOINTS=6950
##DELTAX=0.482117
##ZPD=6100
##XYDATA=(X++(Y..Y))
649.893 88319672 84448152 81553512 79612728 78539048 78194976 78402976 
653.268 78993720 79841288 80885344 82140192 83666320 85535144 87788744 
656.643 90429464 93429104 96756096 100397208 104368800 108706232 113461944 
660.018 118704048 124526568 131084608 138592288 147278608 157336736 
662.911 168812624 181551872 195141040 208975024 222292192 234063024 
665.803 243044192 247724688 246536720 238594240 224407376 206071632 
668.696 186310832 167395744 150522304 135921440 123387216 112612568 
671.589 103359536 95520528 89043768 83857624 79832288 76776800 74488224 
674.963 72781672 71530016 70657288 70107872 69827480 69751568 69807440 
678.338 69937544 70108256 70310984 70550320 70827976 71131216 71436536 
681.713 71719768 71971464 72203072 72443296 72723184 73061000 73455680 
685.088 73891192 74350184 74827168 75336328 75905912 76569616 77350608 
688.463 78255440 79278144 80409272 81646312 82999944 84490056 86139928 
691.838 87970112 89995808 92233968 94711512 97468928 100562456 104056520 
695.212 108008464 112466760 117469056 123049664 129261104 136191600 
698.105 143978128 152832288 163027360 174878864 188717712 204792992 
700.998 223166256 243522528 265068288 286350432 305186912 319091136 
703.890 325599680 323014272 311058080 290947104 265075680 236188224 
706.783 206940336 179377984 154723168 133621824 116172624 102126568 91060672 
710.158 82480128 75905312 70884224 67043512 64084800 61766804 59921864 
713.533 58432568 57217224 56222904 55407848 54735468 54175964 53705820 
716.908 53310680 52986572 52733220 52548484 52423748 52342592 52285820 
720.282 52239704 52200992 52177864 52185376 52239256 52347380 52508472 
723.657 52713844 52954384 53225052 53527000 53865800 54246392 54669324 
727.032 55129568 55618096 56126820 56651840 57193980 57756852 58343156 
730.407 58952268 59580512 60224168 60882656 61561460 62270356 63021280 
733.782 63823476 64679796 65587780 66541852 67537856 68575488 69659952 
737.156 70799736 72004624 73283144 74642672 76090712 77636448 79293056 
740.531 81078544 83014184 85126704 87447680 90012688 92866624 96062528 
743.906 99659752 103730880 108358120 113632920 119666288 126581984 134516816 
747.281 143625024 154063200 165988128 179547824 194862656 211995296 
750.174 230887856 251319520 272777056 294363232 314863488 332691392 
753.066 346140672 353772160 354620928 348491296 335943360 318147808 
755.959 296583680 272731424 247981280 223440768 199929664 178076048 
758.852 158278432 140777232 125697240 113017752 102607432 94234336 87609440 
762.227 82416384 78351976 75173680 72686320 70745720 69249728 68110744 
765.601 67251120 66605584 66115424 65735748 65436556 65194436 64991928 
768.976 64816020 64658912 64523384 64424836 64389436 64445280 64613000 
772.351 64899044 65294392 65780468 66339420 66963560 67658456 68439272 
775.726 69321744 70316048 71422360 72634456 73945520 75355840 76874680 
779.101 78519600 80309800 82261024 84385256 86692464 89196200 91920960 
782.475 94902224 98187136 101836432 105916016 110501160 115673056 121502888 
785.850 128037288 135265328 143097488 151328720 159635056 167625840 
788.743 174845072 180862496 185356320 188136432 189191664 188666240 
791.636 186834656 184027200 180571200 176783520 172925552 169216448 
794.528 165856176 163011440 160833856 159464496 159020960 159614064 
797.421 161350144 164326544 168638704 174366144 181553888 190179600 
800.314 200106896 211059856 222521728 233720288 243680672 251191712 
803.206 255053216 254315648 248436960 237508000 222226240 203791952 
806.099 183597360 163009616 143222384 125043184 108962896 95188144 83687328 
809.474 74298792 66783412 60884716 56340808 52906924 50376328 48562936 
812.849 47315336 46520316 46084720 45938032 46025996 46299388 46718004 
816.224 47250124 47871980 48569492 49335276 50163580 51047804 51977676 
819.598 52941432 53930064 54940128 55975948 57046744 58164164 59337416 
822.973 60570792 61865288 63221260 64641072 66130900 67699576 69354936 
826.348 71103352 72948288 74894216 76951296 79139568 81492064 84056696 
829.723 86889600 90053984 93619992 97657456 102242400 107459632 113399000 
833.098 120164744 127875344 136654032 146629072 157907760 170545888 
835.990 184490800 199518192 215201552 230799936 245297488 257495248 
838.883 266045776 269781792 267958320 260428192 247743408 231018976 
841.776 211733840 191343760 171142416 152152560 135007632 120070728 
844.669 107461080 97100616 88793816 82268712 77240512 73422176 70561896 
848.043 68461664 66956372 65919584 65255500 64878808 64718024 64711748 
851.418 64803676 64949020 65113552 65272672 65414756 65539188 65657116 
854.793 65787444 65954140 66180980 66483580 66867388 67324776 67839736 
858.168 68390720 68957776 69527520 70092832 70651864 71205184 71752288 
861.543 72290992 72818224 73331152 73830000 74317072 74796192 75269896 
864.917 75737520 76194984 76635104 77049960 77432344 77778432 78087240 
868.292 78361544 78607272 78834064 79054376 79282120 79532304 79817472 
871.667 80145232 80517904 80933008 81385992 81873264 82395352 82956832 
875.042 83566256 84233008 84965344 85770352 86654640 87626792 88700288 
878.417 89893296 91228608 92732456 94428296 96335024 98460384 100795072 
881.792 103304256 105920536 108547952 111055264 113295848 115134720 
884.684 116457040 117200472 117361944 116997504 116205792 115106824 
887.577 113828256 112476848 111138712 109883240 108763224 107828176 
890.470 107127360 106702176 106585064 106790640 107312920 108127280 
893.362 109197208 110485432 111957376 113587944 115362920 117274560 
896.255 119321008 121502936 123823376 126287792 128904552 131685272 
899.148 134643296 137792608 141146464 144715456 148508480 152532528 
902.040 156795008 161304704 166074288 171120208 176465328 182140384 
904.933 188183376 194645264 201589952 209091552 217238704 226125504 
907.826 235842864 246475584 258092880 270746592 284468224 299273952 
910.719 315159520 332078176 349928128 368503456 387427840 406161984 
913.611 423942656 439795456 452679680 461525536 465415872 463783488 
916.504 456478848 443857120 426705504 406159712 383505216 359960800 
919.397 336655424 314474368 294035392 275779392 259927248 246534432 
922.289 235538576 226768960 219984112 214891184 211191728 208587776 
925.182 206796304 205582208 204738128 204088416 203497760 202849872 
928.075 202051728 201036896 199756512 198182832 196305712 194125952 
930.967 191652064 188895856 185872784 182602064 179107248 175417552 
933.860 171563392 167574512 163478688 159299312 155058800 150781136 
936.753 146491344 142216240 137981952 133808824 129712272 125703168 
939.646 121788720 117976912 114276512 110696416 107244488 103925640 
942.538 100741040 97689984 94771848 91986888 89337128 86823552 84445296 
945.913 82197640 80073824 78066736 76171328 74385960 72711896 71150568 
949.288 69701416 68360312 67119808 65972036 64910240 63930368 63031048 
952.663 62211960 61471860 60808708 60219448 59702416 59258412 58891360 
956.037 58606860 58410132 58305036 58292984 58375220 58555176 58840740 
959.412 59246032 59792104 60504436 61413880 62557764 63976712 65720400 
962.787 67845624 70408968 73466520 77061440 81213264 85907784 91086048 
966.162 96644936 102420136 108203192 113759008 118823568 123152296 126535904 
969.537 128806624 129860952 129651976 128186408 125518576 121748976 
972.429 117026176 111531296 105490584 99162336 92800720 86663056 80972088 
975.804 75884280 71500056 67849192 64904816 62599128 60844116 59549004 
979.179 58622976 57987592 57577760 57336428 57221572 57202788 57259792 
982.554 57381500 57561340 57793792 58072084 58387956 58733156 59102428 
985.929 59494436 59911444 60357484 60836188 61349004 61895512 62475344 
989.304 63089436 63741236 64436248 65180264 65977552 66831024 67743104 
992.678 68718416 69766080 70900992 72143832 73521696 75064608 76806536 
996.053 78782656 81022000 83539464 86321048 89315672 92421344 95491792 
999.428 98366376 100882464 102925464 104457928 105533920 106295232 106937560 
1002.803 107695176 108781064 110364944 112569976 115461936 119068360 
1005.695 123392936 128429816 134167848 140587392 147655888 155306384 
1008.588 163418768 171820352 180251840 188370176 195784368 202034032 
1011.481 206653200 209240048 209478368 207223264 202529312 195659568 
1014.374 187041840 177196256 166697088 156058416 145708688 135988944 
1017.266 127114552 119209344 112320360 106429320 101477624 97381192 94051032 
1020.641 91397600 89339528 87810608 86752304 86115640 85862240 85958432 
1024.016 86377720 87099384 88103336 89368824 90870408 92571400 94426480 
1027.391 96380528 98366376 100315512 102159768 103835864 105300016 106530520 
1030.766 107537048 108360424 109074864 109780624 110583136 111589000 
1033.659 112882080 114506200 116458904 118681624 121069488 123464696 
1036.552 125681576 127530072 128819720 129399672 129173040 128102600 
1039.446 126217960 123605480 120397272 116738824 112776944 108644072 
1042.339 104439384 100239288 96101752 92070264 88187840 84496736 81034224 
1045.714 77833368 74916496 72292520 69958912 67902728 66103892 64534648 
1049.089 63164160 61960512 60891272 59929740 59056608 58259412 57532632 
1052.464 56874704 56283928 55757388 55290080 54876356 54511972 54194620 
1055.840 53923532 53698168 53516132 53372084 53259436 53170936 53101884 
1059.215 53050812 53019028 53009144 53023448 53062308 53125808 53213816 
1062.590 53328328 53473520 53654940 53878332 54147816 54465020 54830228 
1065.965 55243608 55706608 56222300 56794788 57427596 58122836 58880656 
1069.341 59700364 60581340 61524504 62531740 63605228 64746596 65955876 
1072.716 67232472 68577472 69994800 71493296 73086120 74791192 76627760 
1076.091 78616680 80780896 83144696 85737736 88596008 91759584 95273664 
1079.466 99183488 103525488 108322448 113571160 119235808 125233472 
1082.359 131432816 137664432 143712080 149347968 154359760 158559888 
1085.252 161827760 164122464 165495344 166084432 166106880 165848512 
1088.146 165606928 165686992 166373136 167884640 170383408 173947648 
1091.039 178560576 184089408 190264544 196697392 202827552 207979088 
1093.932 211456832 212576080 210845872 206073680 198406112 188317040 
1096.825 176500448 163787824 150951984 138640288 127341760 117321912 
1099.718 108680152 101381408 95304536 90284184 86140856 82712040 79844240 
1103.093 77402208 75277496 73377096 71632232 69999552 68452928 66982156 
1106.468 65585628 64266404 63031124 61890200 60860740 59963976 59222488 
1109.844 58656008 58274264 58076400 58050456 58178636 58440036 58812060 
1113.219 59271476 59790508 60335440 60871640 61364040 61786208 62125592 
1116.594 62384064 62576056 62722540 62847816 62974812 63124760 63321152 
1119.969 63588000 63949800 64429024 65039880 65786788 66664496 67662480 
1123.344 68769464 69976192 71278424 72674800 74166512 75758824 77467032 
1126.720 79323200 81378760 83714000 86435776 89668848 93570752 98320824 
1130.095 104109960 111140344 119569104 129450160 140634208 152702288 
1132.988 164906928 176132976 185133888 190703488 191983120 188763808 
1135.881 181543984 171444080 159822928 148090192 137410160 128511680 
1138.774 121777312 117240792 114697784 113785360 114068912 115117528 
1141.667 116492528 117816080 118793984 119216664 119002808 118192736 
1144.560 116938512 115451216 113959616 112671280 111724784 111196792 
1147.453 111109696 111449832 112187600 113288488 114720312 116447984 
1150.346 118436136 120654848 123083440 125716720 128564152 131639776 
1153.240 134946096 138460240 142122016 145841536 149515344 153040080 
1156.133 156343408 159392368 162195840 164794624 167249232 169628704 
1159.026 171995008 174405312 176909424 179544784 182338896 185305952 
1161.919 188447840 191758816 195233840 198876976 202707040 206757488 
1164.812 211069312 215687264 220650928 225993072 231746032 237945472 
1167.705 244635296 251870336 259707392 268199616 277387616 287297568 
1170.598 297942240 309325888 321454496 334330176 347944864 362274912 
1173.491 377257888 392791616 408752480 424993888 441382496 457819328 
1176.384 474232288 490572128 506789728 522811584 538535808 553835840 
1179.277 568565952 582570880 595669696 607624896 618126656 626777664 
1182.170 633113216 636691584 637127360 634150592 627644032 617612480 
1185.063 604183552 587610624 568278464 546707840 523510112 499361184 
1187.956 474901152 450656192 427050016 404358624 382741600 362290880 
1190.849 343032736 324952448 308004672 292112192 277179712 263105456 
1193.742 249800256 237195456 225247456 213930944 203229968 193128800 
1196.635 183609136 174656288 166268256 158459792 151271664 144762992 
1199.529 138999728 134057520 130005568 126902264 124800480 123735648 
1202.422 123724904 124762144 126813960 129818024 133678720 138283296 
1205.315 143497296 149169808 155156272 161308432 167483968 173562512 
1208.208 179436640 185026528 190290400 195228272 199889904 204364960 
1211.101 208785200 213298800 218048432 223166384 228745680 234830304 
1213.994 241402800 248377184 255593184 262804176 269715328 275986944 
1216.887 281264320 285244640 287681056 288406624 287338240 284449920 
1219.780 279758112 273312192 265194928 255531664 244490560 232287136 
1222.673 219165712 205377664 191186880 176846592 162594000 148665920 
1225.566 135268512 122574464 110727800 99820336 89906592 81011496 73128504 
1228.941 66230916 60271520 55185436 50891760 47298452 44317296 41862980 
1232.317 39862636 38260104 37007324 36063888 35395288 34967364 34750400 
1235.692 34720716 34859424 35152960 35590024 36157040 36837920 37613120 
1239.067 38460980 39362592 40301992 41266208 42244836 43226296 44196924 
1242.442 45142552 46049608 46908692 47717404 48480352 49206820 49907560 
1245.818 50592796 51271764 51953624 52653056 53392316 54201980 55124116 
1249.193 56205632 57497452 59056304 60938276 63200184 65894948 69056552 
1252.568 72685424 76724416 81052112 85460064 89662608 93350512 96204496 
1255.943 97975872 98545232 97941872 96348512 94046176 91386232 88700736 
1259.319 86251328 84222312 82694400 81670384 81104824 80940672 81134776 
1262.694 81672584 82568712 83856096 85570976 87736472 90355248 93404120 
1266.069 96839024 100590104 104565952 108663256 112756536 116712816 
1268.962 120406664 123718384 126556472 128867952 130641264 131910576 
1271.855 132748824 133266952 133592528 133864744 134233696 134838640 
1274.748 135813200 137279776 139332480 142040944 145444304 149551856 
1277.641 154347744 159795648 165850016 172452352 179537120 187036272 
1280.534 194866128 202931488 211127648 219328480 227401264 235214464 
1283.427 242635216 249548192 255858576 261494880 266421344 270645216 
1286.321 274231552 277296800 280013376 282593344 285240480 288142368 
1289.214 291435424 295183584 299379552 303940928 308728928 313540576 
1292.107 318134592 322264032 325679296 328185504 329677152 330158368 
1295.000 329752608 328680224 327243552 325757312 324528000 323839680 
1297.893 323912288 324912160 326938848 330010720 334057408 338908448 
1300.786 344322432 349976544 355510304 360588832 364897696 368190176 
1303.679 370299104 371116288 370596256 368745920 365620224 361311808 
1306.572 355935872 349616864 342462592 334556768 325961248 316725120 
1309.465 306898432 296542176 285725632 274523840 263013120 251266032 
1312.358 239363040 227397824 215473536 203706720 192210160 181073792 
1315.251 170369712 160145808 150431744 141257952 132654832 124652552 
1318.144 117280856 110556256 104479464 99035368 94196504 89926840 86184208 
1321.520 82922936 80090320 77625440 75465464 73543752 71795744 70166936 
1324.895 68607152 67072204 65524860 63929872 62259340 60497808 58645048 
1328.270 56718704 54749184 52775988 50835736 48956480 47158224 45452472 
1331.645 43847252 42350792 40970044 39709432 38567136 37534540 36598392 
1335.021 35744768 34964704 34254836 33616976 33052944 32560780 32132000 
1338.396 31754612 31416486 31112150 30844596 30624278 30463030 30368570 
1341.771 30341104 30374078 30457592 30582538 30744148 30941186 31174480 
1345.146 31443380 31744454 32072064 32421876 32792944 33190082 33622024 
1348.521 34099696 34632468 35225864 35883080 36607188 37403460 38281564 
1351.897 39253988 40333480 41531296 42855276 44311100 45905552 47649140 
1355.272 49558720 51658964 53977784 56546152 59394704 62549612 66032016 
1358.647 69855264 74024488 78530560 83345408 88421896 93677584 98996248 
1362.022 104237872 109241648 113861624 117994216 121591392 124661872 
1364.916 127248656 129406808 131178528 132586840 133639320 134338832 
1367.809 134695616 134733264 134482912 133977144 133239344 132276792 
1370.702 131080208 129622776 127864320 125748144 123208704 120188688 
1373.595 116654208 112621624 108164856 103408136 98493936 93549224 88674640 
1376.970 83934680 79374112 75040576 70985304 67263576 63922352 60980140 
1380.345 58425216 56219396 54316488 52675160 51268892 50086012 49118288 
1383.720 48351368 47759676 47306540 46953212 46670260 46441068 46265364 
1387.096 46152668 46114640 46158524 46286044 46498448 46800180 47200404 
1390.471 47710376 48337076 49079220 49924736 50856668 51856244 52909356 
1393.846 54009752 55157180 56353412 57597396 58886992 60222000 61608616 
1397.221 63062884 64608812 66270784 68067600 70004344 72073144 74261600 
1400.597 76562032 78978776 81528080 84231600 87106264 90152488 93352032 
1403.972 96664192 100030832 103390608 106683032 109856440 112871464 
1406.865 115697976 118316896 120721832 122920752 124939664 126820936 
1409.758 128625992 130424680 132286456 134278528 136453920 138852992 
1412.651 141506336 144433632 147643648 151128672 154862992 158794608 
1415.544 162836416 166875376 170746064 174219504 177019680 178817024 
1418.437 179304480 178299984 175812144 172045376 167301088 161877056 
1421.330 155988448 149764464 143309120 136740240 130224016 123996768 
1424.223 118296976 113311288 109129464 105724712 102990944 100789136 
1427.116 98999704 97536616 96350072 95416296 94718104 94235736 93949536 
1430.492 93844328 93916176 94169792 94608088 95218304 95966136 96788880 
1433.867 97606096 98329560 98862264 99118784 99038200 98602440 97846728 
1437.242 96846904 95690696 94443328 93141344 91799336 90423216 89026520 
1440.617 87638232 86299544 85068584 84013392 83202000 82707384 82597000 
1443.993 82924336 83730320 85037952 86859416 89204168 92086736 95525608 
1447.368 99535736 104120072 109275136 115017640 121407480 128570888 
1450.261 136688256 145933840 156405536 168035952 180591632 193657648 
1453.154 206732608 219365568 231100992 241465680 249894352 255648224 
1456.047 257995360 256557792 251689376 244405888 235883440 226976000 
1458.940 218003584 208926864 199579872 189848432 179717152 169243856 
1461.833 158467056 147386912 135975984 124235008 112303880 100512880 
1464.726 89314328 79169624 70380368 63015536 56954028 51976708 47866540 
1468.102 44449672 41610164 39268676 37354096 35789884 34494692 33392060 
1471.477 32439298 31636100 31018902 30634162 30509484 30643406 31017620 
1474.852 31620384 32463614 33583216 35036860 36890872 39206700 42047460 
1478.227 45471784 49524740 54214932 59473536 65125296 70838816 76178208 
1481.603 80684480 83950840 85751256 86058920 85026024 82903448 79979048 
1484.978 76530616 72765768 68836976 64839952 60819076 56789164 52746052 
1488.353 48683748 44607056 40553104 36601344 32869312 29487018 26555798 
1491.728 24126418 22185548 20671352 19496402 18572364 17825902 17202842 
1495.104 16673317 16223092 15844291 15529276 15266824 15044867 14857790 
1498.479 14707262 14600609 14545135 14544347 14596155 14696190 14841984 
1501.854 15036704 15289166 15610773 16011097 16493522 17049774 17659984 
1505.229 18291892 18902710 19450936 19908650 20273516 20561974 20798830 
1508.604 21007404 21202750 21394704 21588868 21787020 21987456 22185792 
1511.980 22379052 22567722 22758572 22961520 23185498 23431588 23689470 
1515.355 23936474 24145472 24297488 24391514 24447768 24497546 24569104 
1518.730 24671078 24788300 24883798 24914782 24849484 24688612 24469010 
1522.105 24249802 24081272 23982482 23943862 23938120 23938086 23923730 
1525.481 23888090 23834464 23769712 23698706 23622464 23542528 23466176 
1528.856 23408194 23389590 23428020 23530042 23685270 23868664 24045024 
1532.231 24179418 24251728 24265076 24247734 24239570 24278356 24385976 
1535.606 24568472 24822538 25140614 25514330 25927128 26351478 26748228 
1538.982 27070714 27286592 27397602 27447402 27496960 27595564 27763202 
1542.357 27987940 28241046 28492528 28725078 28937954 29145760 29369124 
1545.732 29627540 29932148 30284968 30682982 31121760 31598006 32106988 
1549.107 32641462 33191908 33748852 34308980 34877628 35469308 36101728 
1552.483 36788800 37534392 38330564 39160972 40008956 40868572 41745288 
1555.858 42649692 43586572 44538064 45451440 46243840 46823024 47146776 
1559.233 47263796 47305880 47401840 47612128 47936396 48338444 48779608 
1562.608 49231128 49683340 50142200 50622948 51142136 51712444 52341212 
1565.984 53033856 53798744 54649144 55600396 56663620 57839484 59117424 
1569.359 60480784 61919280 63433640 65037996 66743500 68545032 70410448 
1572.734 72279688 74074744 75687464 76996872 77877520 78211312 77932072 
1576.109 77057208 75699408 74020720 72176384 70275760 68371168 66482112 
1579.485 64619772 62798804 61052056 59427372 57972372 56730220 55726388 
1582.860 54965920 54437072 54116176 53976172 53988588 54131076 54388888 
1586.235 54753808 55221896 55789716 56450792 57196852 58021560 58926080 
1589.610 59922892 61035776 62296396 63735016 65378316 67246352 69352800 
1592.986 71707184 74311016 77152216 80192808 83366600 86593968 89801128 
1596.361 92964704 96141736 99496360 103283496 107817728 113468144 120602056 
1599.736 129579904 140759776 154462112 170940704 190276592 212273808 
1602.629 236228496 260719184 283715232 302560544 314514816 317546368 
1605.522 310777568 294835872 271549824 243559216 213638288 184133600 
1608.415 156903936 133048728 113000384 96750544 83960440 74143368 66752812 
1611.791 61280624 57277180 54354564 52218292 50634528 49418060 48433928 
1615.166 47576008 46774388 46008684 45303608 44716784 44304972 44099980 
1618.541 44095616 44258776 44541628 44897480 45289744 45689648 46079492 
1621.916 46447780 46786380 47091564 47365844 47622036 47879672 48161824 
1625.292 48486388 48858804 49270840 49703180 50135988 50557388 50973652 
1628.667 51406796 51888840 52447676 53095704 53829496 54634152 55492856 
1632.042 56390648 57318808 58271496 59235440 60186984 61091528 61915072 
1635.417 62644100 63300296 63936284 64601088 65319160 66080584 66850772 
1638.792 67586168 68251688 68835344 69348520 69821056 70285152 70764048 
1642.168 71262928 71773232 72279296 72768424 73234352 73673408 74080528 
1645.543 74448224 74775448 75081696 75419264 75869328 76506432 77376232 
1648.918 78479504 79779568 81213184 82703696 84186752 85605400 86932104 
1652.293 88179928 89417104 90737888 92201032 93828656 95606120 97513104 
1655.669 99543896 101700560 103986552 106396512 108921040 111552064 
1658.562 114285520 117133040 120117208 123264496 126598704 130134672 
1661.455 133880480 137841840 142030416 146464224 151151520 156093392 
1664.348 161273680 166667856 172252384 178020032 183994944 190218528 
1667.241 196756016 203683792 211074160 218979456 227419280 236385984 
1670.134 245829200 255676784 265858080 276327136 287085728 298195616 
1673.027 309788288 322012448 334962368 348586752 362596864 376491744 
1675.920 389717952 401855616 412719936 422304736 430651232 437750400 
1678.813 443530720 447899392 450847680 452489792 453029856 452618528 
1681.706 451225888 448569312 444194624 437713952 429196512 419397504 
1684.599 409555200 400750592 393389440 387218336 381634176 376054080 
1687.492 370054496 363458208 356283680 348667680 340763776 332682496 
1690.385 324510080 316337408 308283232 300481760 292991328 285719968 
1693.279 278378880 270517216 261652048 251514848 240321168 228821568 
1696.172 218002896 208544784 200543840 193508096 186634112 179009728 
1699.065 169929376 159220752 147446544 135750272 125221832 116368232 
1701.958 109020944 102677056 96806480 91047960 85240712 79403912 73664096 
1705.333 68184816 63106300 58506304 54414764 50838752 47773620 45197552 
1708.708 43052660 41246092 39663000 38206012 36830564 35550932 34421840 
1712.083 33494518 32784872 32253392 31825628 31422290 31006126 30597468 
1715.459 30262230 30066886 30034468 30120402 30238076 30310726 30324618 
1718.834 30335098 30427740 30664420 31048830 31530838 32029684 32475538 
1722.209 32828964 33098746 33327230 33564388 33835736 34131520 34418648 
1725.584 34670288 34889584 35116748 35412148 35828420 36387204 37070400 
1728.960 37834664 38638768 39472852 40364932 41368972 42536392 43893948 
1732.335 45430584 47108548 48882496 50732420 52670560 54741292 56980208 
1735.710 59390940 61962844 64689672 67595232 70739752 74217496 78130040 
1739.085 82549840 87488936 92905312 98747912 105008632 111756448 119132440 
1742.461 127296136 136380304 146441952 157459568 169343776 181978992 
1745.354 195270400 209109984 223348208 237758528 251952112 265398176 
1748.247 277484704 287539328 294955584 299272192 300247072 297939008 
1751.140 292726048 285261696 276281664 266450496 256252048 245927520 
1754.033 235551312 225106192 214552720 203917552 193334064 183021728 
1756.926 173252256 164255392 156144272 148905440 142416272 136504160 
1759.819 130994904 125767168 120781688 116086600 111792288 108018320 
1762.712 104841896 102263544 100211536 98564104 97188056 95952832 94738584 
1766.087 93447680 91998472 90336112 88442000 86333536 84052512 81637840 
1769.463 79102712 76416496 73513288 70316280 66787860 62973552 59016940 
1772.838 55116628 51448388 48106224 45084140 42312512 39704132 37197984 
1776.213 34777036 32466400 30305538 28326626 26534346 24904746 23399520 
1779.588 21987980 20663220 19441338 18349092 17403036 16597230 15902817 
1782.964 15282645 14703148 14149275 13625612 13148102 12731164 12378612 
1786.339 12081907 11828544 11611435 11434369 11309030 11247140 11249861 
1789.714 11303249 11378481 11441343 11468014 11453182 11414163 11378277 
1793.089 11370963 11401373 11463897 11546099 11639818 11747072 11878598 
1796.465 12047193 12259510 12510841 12787363 13071813 13351802 13623971 
1799.840 13893060 14164371 14435988 14695711 14924038 15104352 15228834 
1803.215 15302243 15337253 15347482 15338317 15303959 15229623 15100543 
1806.590 14909361 14660855 14369712 14052651 13721765 13378044 13014211 
1809.966 12621210 12197620 11754392 11312772 10894703 10514578 10173453 
1813.341 9861337 9564620 9275485 8996317 8738763 8516840 8337653 8197335 
1817.198 8082041 7976802 7872296 7771526 7686124 7629840 7609473 7620803 
1821.056 7650849 7686124 7719480 7753243 7795983 7855224 7930367 8010754 
1824.913 8080320 8128864 8159925 8192203 8251735 8358055 8516097 8710805 
1828.771 8914294 9095274 9236424 9341530 9433623 9540775 9681223 9857405 
1832.628 10057227 10263925 10464782 10657345 10847989 11045003 11250473 
1836.003 11455324 11641928 11792386 11896375 11956791 11987411 12006111 
1839.378 12025937 12049612 12070904 12079318 12067940 12035645 11986219 
1842.754 11924062 11849246 11756060 11638151 11496388 11344027 11203958 
1846.129 11101495 11051869 11056322 11101087 11165845 11231703 11289918 
1849.504 11344571 11407156 11487202 11583461 11681750 11759975 11798991 
1852.879 11789798 11738256 11659728 11570292 11476417 11372223 11243162 
1856.255 11076136 10868236 10629908 10380241 10137670 9911641 9698197 
1859.630 9485029 9260558 9022670 8781937 8556545 8362209 8205202 8078970 
1863.487 7969884 7865177 7761913 7668081 7597469 7559436 7550670 7552288 
1867.345 7537150 7481896 7377779 7236861 7085245 6951425 6850465 6781028 
1871.202 6729505 6681487 6630143 6580286 6543250 6530300 6543654 6574836 
1875.060 6608141 6630009 6636367 6634921 6639934 6663048 6707093 6762821 
1878.917 6816233 6855649 6880592 6902508 6939473 7005029 7101378 7216445 
1882.774 7331037 7426885 7496796 7546118 7589781 7641204 7705517 7775709 
1886.632 7837309 7877222 7889706 7879483 7857349 7833496 7810117 7781005 
1890.489 7735738 7668655 7583779 7494672 7416538 7358300 7316985 7278336 
1894.347 7223486 7139539 7027355 6901565 6783283 6688149 6619546 6566763 
1898.204 6513449 6445848 6361783 6270976 6189130 6128267 6088548 6058273 
1902.062 6020778 5964238 5889267 5808802 5741713 5702802 5693805 5703507 
1905.919 5712974 5707502 5682525 5646035 5610858 5587329 5574878 5562561 
1909.776 5534773 5481988 5407167 5325214 5255652 5212089 5196328 5197837 
1913.634 5202129 5198206 5186537 5176812 5182077 5207997 5247334 5280806 
1917.491 5288184 5258905 5200318 5134565 5088499 5079079 5105162 5148680 
1921.349 5183820 5191331 5165479 5117466 5067346 5034495 5026282 5037478 
1925.206 5056150 5073615 5090813 5118137 5168027 5245758 5343730 5444341 
1929.063 5527490 5582127 5612234 5635562 5673494 5738289 5827372 5922956 
1932.921 6003341 6053468 6073494 6077123 6084246 6106962 6143927 6179921 
1936.778 6196356 6182878 6144364 6099233 6069462 6069160 6095671 6131392 
1940.636 6151925 6140297 6094730 6028505 5959435 5900015 5847219 5786337 
1944.493 5700620 5583906 5446220 5311697 5206589 5144523 5120685 5113040 
1948.351 5096412 5053535 4986429 4911861 4852484 4821458 4813920 4810637 
1952.208 4789463 4738243 4662678 4583076 4523242 4496591 4497730 4505932 
1956.065 4498600 4465156 4414676 4372972 4367583 4413973 4504091 4612578 
1959.923 4708866 4777503 4825814 4880865 4972520 5117332 5309181 5523095 
1963.780 5729459 5909084 6064556 6214270 6379906 6569017 6767364 6942335 
1967.638 7061671 7106699 7083426 7015839 6932403 6847065 6751547 6620050 
1971.495 6424999 6154882 5823409 5462962 5111833 4796029 4519023 4267322 
1975.353 4025665 3793635 3591797 3453605 3404779 3446925 3548734 3661795 
1979.210 3738187 3752492 3710081 3638338 3568946 3520741 3492549 3467599 
1983.067 3427788 3366510 3294857 3234732 3208595 3223182 3267915 3319330 
1986.925 3357027 3374725 3385811 3413495 3479055 3588155 3727359 3870887 
1990.782 3995868 4095131 4181669 4281442 4415747 4590108 4788961 4985089 
1994.640 5151832 5278793 5375229 5463768 5563836 5680544 5797687 5886849 
1998.497 5918858 5878822 5773174 5623949 5457762 5289895 5120953 4939107 
2002.354 4734122 4505129 4268292 4047872 3866140 3729297 3626343 3533468 
2006.212 3432030 3319831 3215405 3147481 3137402 3186198 3270185 3351785 
2010.069 3395729 3388015 3338028 3272756 3218976 3191071 3183361 3178221 
2013.927 3158896 3121683 3079869 3055910 3067355 3114675 3179255 3233197 
2017.784 3256064 3245682 3220345 3208529 3234365 3301768 3394627 3485435 
2021.642 3553411 3596107 3631723 3688160 3788388 3935513 4110484 4282815 
2025.499 4425689 4531277 4612142 4692085 4790937 4911995 5039825 5150089 
2029.356 5223524 5259207 5275104 5300259 5356376 5447964 5559104 5664968 
2033.214 5745205 5796075 5829320 5865354 5916742 5978952 6031529 6049135 
2037.071 6017855 5943378 5850980 5772268 5731708 5734092 5764310 5797015 
2040.929 5812596 5807425 5796209 5801515 5840671 5916473 6014932 6115060 
2044.786 6199515 6266203 6326917 6401662 6503930 6633373 6774331 6904763 
2048.644 7005164 7069316 7104038 7122563 7136306 7147691 7151059 7139775 
2052.501 7112627 7079149 7055642 7058370 7094170 7156078 7225103 7279684 
2056.358 7307011 7308224 7297846 7293398 7306876 7336631 7368747 7383947 
2060.216 7367905 7319411 7249462 7175245 7110067 7057629 7009743 6954388 
2064.073 6881468 6790384 6689999 6592834 6508033 6435861 6369045 6299349 
2067.931 6224253 6150950 6093520 6066942 6076820 6116438 6168460 6211783 
2071.788 6234001 6234169 6224185 6219648 6232891 6265833 6310544 6354554 
2075.646 6389657 6416592 6445108 6487215 6550381 6632633 6722808 6806910 
2079.503 6875072 6926208 6968294 7012707 7067227 7131691 7198388 7257177 
2083.360 7301586 7332789 7358670 7389372 7430626 7480480 7529396 7566920 
2087.218 7587016 7591871 7590927 7594838 7610215 7634696 7658504 7669531 
2091.075 7660426 7632335 7595580 7563043 7545005 7544027 7555356 7569517 
2094.933 7579429 7583779 7586443 7593287 7606944 7623534 7635202 7633515 
2098.790 7615205 7584386 7550467 7523766 7509303 7504583 7500808 7489211 
2102.647 7465109 7430997 7394495 7363018 7338316 7314727 7281403 7227765 
2106.505 7150621 7055373 6954826 6861607 6783317 6717962 6656790 6589066 
2110.362 6508841 6418206 6326244 6243211 6174644 6118488 6066505 6009120 
2114.220 5940792 5863608 5785598 5716936 5663021 5623176 5590451 5557258 
2118.077 5519437 5478867 5441992 5415990 5403409 5400491 5398578 5389654 
2121.935 5370633 5345776 5323839 5313541 5318304 5333835 5350640 5358691 
2125.792 5353492 5338094 5321491 5312837 5316359 5329205 5342992 5348996 
2129.649 5343462 5329977 5316996 5313407 5322094 5338665 5353994 5359966 
2133.507 5355504 5348057 5349969 5372713 5418943 5481518 5545613 5598237 
2137.364 5633112 5654797 5673494 5698840 5732883 5768608 5792717 5794027 
2141.222 5770522 5730802 5689843 5660402 5645465 5636133 5617067 5573569 
2145.079 5501618 5409146 5313273 5229259 5163266 5108011 5049479 4974565 
2148.937 4879324 4772545 4669578 4583578 4515240 4452301 4373105 4260228 
2152.794 4107674 3926419 3737853 3564402 3417603 3295725 3186231 3079401 
2156.651 2977869 2900976 2877161 2927996 3056310 3240073 3440980 3619728 
2160.509 3754296 3843675 3901444 3943939 3981824 4014495 4038206 4051952 
2164.366 4065330 4095666 4161831 4271672 4415680 4569046 4700559 4787754 
2168.224 4825277 4824809 4808224 4796130 4796331 4802495 4799916 4775895 
2172.081 4730169 4676645 4636790 4630561 4665894 4735328 4820252 4900836 
2175.938 4966253 5017199 5063592 5115387 5176477 5241264 5299018 5341080 
2179.796 5366541 5383113 5403174 5435114 5477324 5518698 5545009 5546082 
2183.653 5524504 5493195 5470143 5469438 5494068 5534874 5575918 5605454 
2187.511 5619820 5626600 5638886 5667351 5714653 5774014 5833416 5884330 
2191.368 5925744 5965549 6015470 6083406 6169569 6265733 6360606 6446151 
2195.226 6522295 6597813 6683472 6785269 6900185 7015737 7117814 7195390 
2199.083 7247238 7281908 7312167 7348055 7391630 7436491 7472592 7493290 
2202.940 7499526 7499763 7504853 7522518 7552220 7585802 7611597 7622421 
2206.798 7619150 7610686 7608090 7619892 7646397 7681234 7715130 7742315 
2210.655 7765151 7792069 7834307 7897231 7977612 8063577 8140815 8198719 
2214.513 8234681 8255044 8270342 8289389 8314483 8341740 8364574 8379707 
2218.370 8389638 8401461 8423555 8460211 8507818 8557356 8598552 8626536 
2222.228 8644281 8662635 8692787 8741975 8808007 8880677 8946695 8996182 
2226.085 9027001 9045303 9061305 9083263 9113885 9149482 9182646 9207791 
2229.942 9223360 9231787 9237304 9240790 9238895 9224206 9190531 9136217 
2233.800 9067226 8994964 8931543 8885783 8858661 8845236 8837830 8831778 
2237.657 8827212 8829005 8842261 8868840 8904621 8941757 8971421 8989417 
2241.515 8998482 9006804 9023312 9054166 9098895 9152290 9207283 9258864 
2245.372 9307135 9355478 9407483 9463761 9519776 9567737 9601542 9620207 
2249.229 9629794 9640601 9663571 9704601 9762104 9828020 9892589 9949303 
2253.087 9996939 10039086 10081067 10125087 10167992 10202964 10222062 
2256.462 10221757 10204490 10178371 10152525 10134108 10124748 10121254 
2259.837 10119083 10115488 10112267 10114538 10127597 10153305 10188309 
2263.213 10224640 10254087 10271050 10275765 10273561 10272746 10279396 
2266.588 10296055 10321231 10351261 10383532 10417775 10456365 10501543 
2269.963 10553991 10611064 10668517 10722174 10770708 10816803 10865586 
2273.338 10921374 10985869 11057001 11129471 11198518 11262034 11321546 
2276.714 11381372 11446037 11516496 11590539 11663166 11729099 11786155 
2280.089 11835660 11882243 11931043 11984754 12043173 12103371 12161874 
2283.464 12217011 12269701 12322670 12378304 12436879 12496108 12551970 
2286.839 12600948 12642359 12678452 12713354 12750885 12791867 12834389 
2290.215 12874046 12906677 12930401 12947367 12961772 12978637 13001408 
2293.590 13030497 13063652 13097765 13130616 13161251 13190829 13220341 
2296.965 13250162 13278995 13305266 13328260 13349308 13371893 13400426 
2300.340 13438154 13485694 13540692 13598569 13655529 13709215 13760889 
2303.716 13813288 13870140 13933363 14002277 14074725 14147734 14220139 
2307.091 14292214 14366253 14444551 14528689 14618428 14712060 14807803 
2310.466 14904424 15002232 15102121 15204504 15308661 15412775 15514750 
2313.841 15613589 15710665 15809171 15913369 16026739 16150178 16281568 
2317.217 16417192 16552893 16685849 16815504 16942822 17069038 17194810 
2320.592 17318340 17437078 17547568 17646422 17731598 17801738 17856316 
2323.967 17895436 17919744 17932210 17937596 17943018 17956244 17984284 
2327.342 18030736 18094740 18171022 18252220 18330014 18398936 18456634 
2330.718 18503690 18542868 18576894 18607708 18636760 18665502 18695804 
2334.093 18730050 18770804 18819382 18875440 18936698 19000490 19065156 
2337.468 19130838 19199194 19272378 19351880 19436764 19524022 19609566 
2340.843 19689546 19761736 19825128 19878334 19918536 19938968 19930192 
2344.219 19882634 19789096 19649676 19473286 19278370 19088802 18930156 
2347.594 18826544 18795232 18846650 18983008 19199092 19482124 19812712 
2350.969 20168820 20526854 20866304 21174222 21445178 21681192 21887890 
2354.344 22072058 22237612 22385926 22516700 22629398 22724982 22805676 
2357.719 22873812 22930674 22975494 23006794 23023006 23025136 23015984 
2361.095 23000716 22983982 22968366 22953728 22937800 22918344 22894768 
2364.470 22869202 22845522 22827886 22818806 22817688 22821810 22827746 
2367.845 22833020 22836896 22840040 22843286 22846152 22846360 22840738 
2371.220 22826278 22801764 22768138 22727880 22682912 22633936 22579520 
2374.596 22516946 22444050 22360354 22267640 22169262 22068782 21968740 
2377.971 21869630 21770854 21672310 21575042 21482394 21398706 21328332 
2381.346 21274288 21236672 21213918 21203690 21204524 21215972 21239282 
2384.721 21275576 21325094 21386280 21456700 21533362 21615054 21701882 
2388.097 21795554 21897506 22007430 22122542 22238276 22349016 22450052 
2391.472 22539244 22616412 22682984 22740834 22791288 22834764 22871646 
2394.847 22902870 22930044 22955266 22980314 23005678 23030378 23052460 
2398.222 23070628 23084816 23096486 23108332 23122590 23140168 23160472 
2401.598 23181512 23201330 23219612 23237822 23258166 23282812 23312004 
2404.973 23343924 23374904 23401164 23420746 23433686 23442532 23449948 
2408.348 23458410 23468552 23479534 23490026 23498946 23506538 23514160 
2411.723 23523326 23534660 23548302 23563552 23580098 23598534 23620504 
2415.099 23647482 23680090 23717148 23756062 23793440 23827672 23859246 
2418.474 23891068 23927232 23970508 24021386 24077314 24133458 24185268 
2421.849 24229794 24267284 24300396 24332986 24368242 24408020 24452570 
2425.224 24501262 24553676 24610232 24671112 24736034 24803140 24869130 
2428.600 24930468 24984722 25031614 25073630 25114282 25157080 25203322 
2431.975 25252414 25301932 25349840 25395226 25439174 25484182 25532428 
2435.350 25584404 25639022 25693716 25746168 25795814 25844234 25894172 
2438.725 25948478 26008278 26072802 26139516 26206170 26271286 26335494 
2442.101 26400526 26468064 26538748 26611208 26683358 26753550 26821108 
2445.476 26887658 26956116 27029668 27110108 27197758 27291670 27390404 
2448.851 27493430 27600932 27713262 27830282 27950022 28069546 28185214 
2452.226 28294654 28397898 28497448 28597304 28701538 28812346 28930164 
2455.602 29053464 29180344 29309320 29439996 29572488 29706014 29839012 
2458.977 29968466 30091140 30205040 30310546 30409864 30507246 30606428 
2462.352 30709296 30815426 30922650 31028154 31130268 31228738 31325132 
2465.727 31421292 31518582 31617570 31717826 31818640 31919870 32022086 
2469.103 32126326 32232982 32341768 32451618 32561210 32669648 32777690 
2472.478 32887004 32999996 33117988 33241340 33368484 33497740 33627356 
2475.853 33756872 33887212 34019596 34154712 34292268 34430844 34568524 
2479.228 34704204 34838060 34971492 35106008 35242536 35380476 35518320 
2482.604 35654040 35787076 35918748 36051824 36189772 36334788 36487416 
2485.979 36645472 36806004 36966084 37124496 37282136 37440768 37602604 
2489.354 37768984 37939728 38113612 38289704 38467208 38646556 38828224 
2492.729 39012184 39197416 39382036 39563576 39740984 39914612 40086456 
2496.104 40259060 40434716 40613784 40795300 40977540 41158808 41338616 
2499.480 41517912 41698380 41881588 42068156 42257108 42446980 42636096 
2502.855 42823828 43010880 43198300 43387560 43579468 43773948 43970316 
2506.230 44168200 44367684 44569496 44774412 44982660 45193620 45405712 
2509.605 45617136 45825680 46030160 46229760 46424104 46612452 46794020 
2512.981 46968236 47135364 47296752 47455280 47613716 47774840 47939944 
2516.356 48108888 48280340 48453048 48626596 48802036 48981184 49165336 
2519.731 49354912 49548212 49742412 49933840 50120556 50301472 50477740 
2523.106 50650724 50821656 50990532 51156452 51318040 51474424 51626012 
2526.482 51774408 51921884 52070344 52220984 52373772 52528328 52684924 
2529.857 52844572 53008960 53180448 53360248 53548928 53745640 53949080 
2533.232 54157988 54372024 54591656 54817820 55051444 55292864 55541464 
2536.607 55796496 56056956 56322516 56592768 56867456 57145452 57425476 
2539.983 57705308 57982784 58256228 58523892 58784404 59036072 59276000 
2543.358 59500588 59706444 59889612 60047520 60178380 60280848 60353564 
2546.733 60394876 60402220 60372980 60305212 60198172 60052920 59871468 
2550.108 59657556 59414496 59146276 58857020 58551684 58235804 57915840 
2553.484 57597320 57284212 56978016 56677552 56379704 56080784 55778224 
2556.859 55471320 55161356 54850640 54542024 54237980 53940080 53650068 
2560.234 53369648 53101360 52848016 52612700 52397584 52203836 52031536 
2563.609 51880772 51751564 51644672 51561052 51501580 51466180 51454204 
2566.985 51464012 51494420 51544296 51613288 51700988 51806772 51928532 
2570.360 52063660 52209252 52362856 52523956 52693716 52874624 53069384 
2573.735 53280228 53507924 53752352 54012716 54287916 54577680 54882036 
2577.110 55200296 55531748 55874832 56227692 56588840 56957164 57332000 
2580.486 57712880 58098332 58485372 58869804 59245844 59607764 59950392 
2583.861 60269008 60560012 60820028 61045272 61231600 61374076 61468200 
2587.236 61510032 61496292 61424912 61294512 61104344 60854372 60545344 
2590.611 60179372 59760088 59292292 58782164 58236376 57661568 57064276 
2593.987 56450712 55827128 55200072 54575236 53958048 53352640 52761356 
2597.362 52185524 51626160 51084628 50563384 50065596 49594860 49153980 
2600.737 48744356 48365408 48015508 47692476 47394632 47121032 46871120 
2604.112 46644916 46441624 46260424 46099900 45958808 45836284 45731976 
2607.488 45645068 45574520 45518220 45473440 45437792 45409576 45388572 
2610.863 45375440 45371356 45377244 45392616 45416200 45446032 45480432 
2614.238 45518256 45559396 45603704 45651072 45700540 45751120 45801524 
2617.613 45851492 45901792 45953836 46009492 46069908 46134648 46203040 
2620.989 46273620 46345540 46419092 46495384 46575936 46661776 46753020 
2624.364 46848716 46947672 47048984 47152536 47259436 47370612 47486772 
2627.739 47607800 47732420 47859476 47988236 48119032 48253084 48392040 
2631.114 48536772 48686824 48840636 48995648 49149900 49302388 49453744 
2634.490 49605000 49757460 49911540 50066156 50219560 50369708 50515332 
2637.865 50656048 50792568 50926076 51057904 51188996 51319604 51449876 
2641.240 51580340 51711700 51844780 51980216 52118160 52258280 52399488 
2644.615 52541080 52682120 52822308 52961304 53098924 53234416 53366840 
2647.990 53495144 53618876 53737840 53852452 53963152 54070504 54174352 
2651.366 54274136 54369208 54459196 54543976 54624304 54700364 54772564 
2654.741 54840756 54903956 54961448 55012892 55058400 55098420 55133820 
2658.116 55165084 55192248 55214784 55232580 55245976 55256212 55264980 
2661.491 55274200 55285112 55297760 55311308 55324216 55335132 55343560 
2664.867 55350408 55356696 55363468 55371412 55379656 55385864 55387596 
2668.242 55381500 55364752 55335088 55290080 55227616 55145448 55041140 
2671.617 54912792 54759408 54581136 54379424 54156824 53916932 53664276 
2674.992 53403860 53142136 52885852 52642620 52419752 52223824 52060256 
2678.368 51932940 51843660 51793260 51781016 51805652 51864492 51954336 
2681.743 52070496 52207944 52360576 52523356 52690988 52859616 53026740 
2685.118 53190300 53349980 53505376 53657076 53806128 53953844 54101692 
2688.493 54250784 54401808 54554872 54709536 54864892 55020076 55174260 
2691.869 55326512 55475500 55619752 55757388 55885872 56003504 56108536 
2695.244 56199976 56277440 56340848 56389328 56422264 56438264 56435888 
2698.619 56413588 56370500 56305616 56218300 56107440 55971312 55807872 
2701.994 55614860 55390084 55131716 54838424 54509152 54142864 53738552 
2705.370 53295248 52812580 52291092 51732716 51140944 50520428 49876900 
2708.745 49217028 48547112 47873756 47203952 46544104 45900580 45279080 
2712.120 44684060 44119052 43586132 43086796 42621108 42188712 41788916 
2715.495 41419928 41079036 40763344 40469408 40194392 39936296 39694256 
2718.871 39468024 39257432 39062352 38881384 38712912 38554932 38406172 
2722.246 38266180 38135316 38014692 37905124 37807080 37720372 37643904 
2725.621 37576880 37518064 37467100 37423940 37388296 37360200 37339148 
2728.996 37324668 37315964 37312532 37313872 37320012 37330700 37346116 
2732.372 37366156 37391036 37420800 37455324 37494552 37537500 37583132 
2735.747 37630176 37676896 37722216 37765548 37806752 37846048 37884084 
2739.122 37921104 37957408 37993608 38030456 38068688 38109852 38155396 
2742.497 38206516 38264012 38328896 38401540 38483100 38574416 38676328 
2745.873 38789568 38913632 39047272 39188456 39334692 39483884 39634536 
2749.248 39785720 39937244 40089000 40240412 40391260 40540704 40688088 
2752.623 40833044 40975428 41114912 41251268 41383296 41510112 41630692 
2755.998 41744340 41851048 41951796 42047568 42139564 42228368 42314192 
2759.374 42396708 42475368 42549368 42618404 42681680 42738636 42788396 
2762.749 42829828 42862596 42886440 42902164 42911196 42915296 42916176 
2766.124 42915552 42914452 42914088 42915516 42919796 42928024 42941304 
2769.499 42959772 42983696 43012816 43046916 43086576 43132572 43185928 
2772.875 43247636 43317592 43395248 43479072 43567228 43658412 43751920 
2776.250 43848056 43947804 44052196 44162220 44278956 44402472 44533368 
2779.625 44671796 44817980 44971488 45131560 45297504 45467368 45640028 
2783.000 45814780 45991404 46170316 46351696 46535736 46722060 46909836 
2786.375 47098468 47287624 47477528 47668996 47862364 48057920 48255236 
2789.751 48453640 48652172 48850496 49048836 49247792 49448320 49651024 
2793.126 49855936 50062848 50271416 50481276 50692800 50906812 51123616 
2796.501 51343732 51566200 51790088 52013644 52235892 52456052 52674228 
2799.876 52891128 53107164 53322856 53537792 53751752 53964128 54174500 
2803.252 54382952 54589664 54795152 54999504 55203004 55406004 55608492 
2806.627 55810628 56012436 56213700 56413700 56611224 56804912 56993772 
2810.002 57176860 57354272 57526240 57693240 57855532 58013004 58165416 
2813.377 58312312 58454064 58591156 58724692 58855880 58985856 59115300 
2816.753 59244512 59373616 59503024 59633156 59765072 59899160 60036140 
2820.128 60176364 60319372 60464600 60611400 60759164 60907168 61054420 
2823.503 61199972 61342592 61481136 61614916 61743656 61867276 61986000 
2826.878 62099556 62206684 62305616 62393820 62469412 62530860 62577812 
2830.254 62610844 62630860 62638596 62633924 62615552 62581800 62530636 
2833.629 62461340 62373812 62269324 62149832 62017532 61873160 61716808 
2837.004 61546724 61360220 61154196 60926076 60674492 60399900 60104704 
2840.379 59792752 59469052 59138496 58805496 58473548 58144616 57820292 
2843.755 57501272 57188840 56884300 56589860 56307164 56038184 55784480 
2847.130 55547072 55326888 55124868 54942380 54780944 54642192 54527224 
2850.505 54436848 54371460 54330944 54315660 54325688 54362000 54424564 
2853.880 54513360 54627048 54762980 54918468 55090336 55275816 55472900 
2857.256 55680056 55895788 56118788 56346996 56577896 56809028 57037600 
2860.631 57261304 57478540 57687900 57888468 58079808 58261724 58434312 
2864.006 58597908 58752536 58897352 59031632 59153420 59260692 59351660 
2867.381 59425284 59481328 59520616 59544332 59554020 59550564 59534448 
2870.757 59505796 59464304 59409592 59341440 59259440 59163708 59054140 
2874.132 58931468 58797000 58653008 58502852 58350020 58198032 58049360 
2877.507 57905620 57766620 57631448 57499192 57369320 57242060 57118164 
2880.882 56999024 56885960 56779724 56680344 56587520 56500560 56418376 
2884.258 56340020 56264580 56191188 56119280 56048400 55978588 55909844 
2887.633 55842352 55775812 55709472 55642204 55572304 55498616 55420044 
2891.008 55336068 55247408 55154624 55058328 54958928 54856204 54749824 
2894.383 54639148 54523580 54402860 54276648 54144736 54007124 53863852 
2897.759 53715156 53561596 53404420 53244340 53082600 52919908 52756604 
2901.134 52593100 52429584 52266236 52102844 51939360 51774336 51606572 
2904.509 51434248 51255692 51070652 50879652 50684272 50486668 50288936 
2907.884 50092184 49896860 49702772 49509180 49315824 49122664 48929112 
2911.260 48733936 48534328 48326632 48106516 47870316 47616344 47345264 
2914.635 47059992 46764644 46463596 46160440 45857160 45554756 45254000 
2918.010 44955652 44661660 44374984 44098916 43837060 43592324 43366980 
2921.385 43162508 42979564 42817868 42676304 42553056 42445412 42350828 
2924.760 42267700 42195540 42135844 42090756 42063192 42055712 42069216 
2928.136 42103420 42156764 42227380 42313388 42413880 42528612 42658136 
2931.511 42803024 42964384 43143112 43339960 43555692 43790732 44045116 
2934.886 44318180 44608524 44914092 45232668 45561492 45898076 46239304 
2938.261 46581652 46921392 47253932 47574972 47880488 48166636 48430300 
2941.637 48668996 48880644 49064124 49218992 49346560 49449288 49531500 
2945.012 49598092 49653476 49701284 49743528 49781096 49814240 49843708 
2948.387 49871396 49900276 49933728 49974544 50024140 50082032 50146440 
2951.762 50214572 50284360 50354228 50424148 50494116 50564724 50636052 
2955.138 50707656 50779084 50850264 50920972 50991876 51063124 51134684 
2958.513 51205920 51276012 51343992 51409520 51473080 51535008 51595900 
2961.888 51655644 51713492 51768288 51819280 51866172 51909748 51951608 
2965.263 51992992 52034596 52075984 52115580 52151412 52181752 52205364 
2968.639 52221992 52232308 52237016 52236976 52232716 52224796 52213884 
2972.014 52200472 52185300 52168820 52150776 52130564 52107216 52080020 
2975.389 52048864 52014504 51978164 51941788 51906800 51874312 51844892 
2978.764 51818832 51796620 51778928 51766532 51760184 51760336 51766684 
2982.140 51778512 51795204 51816068 51840972 51870132 51903960 51942424 
2985.515 51985408 52032316 52082220 52134636 52189000 52244748 52301220 
2988.890 52357548 52412124 52463416 52509744 52549756 52582668 52608172 
2992.265 52625976 52636372 52639628 52636412 52627736 52614980 52599832 
2995.641 52583528 52566508 52548672 52528776 52505332 52476916 52442968 
2999.016 52403452 52359116 52310712 52259024 52203984 52145580 52083904 
3002.391 52018536 51950300 51879728 51807596 51734284 51659748 51584332 
3005.766 51508112 51431524 51355628 51281496 51210208 51142248 51077884 
3009.142 51017100 50960240 50908040 50861176 50820352 50785752 50756588 
3012.517 50730968 50706352 50680472 50651544 50618892 50583000 50545220 
3015.892 50506772 50469404 50433972 50400964 50370304 50341284 50313008 
3019.267 50284172 50253188 50218856 50180768 50138628 50093444 50045928 
3022.643 49996780 49945956 49892544 49834940 49771356 49700800 49622608 
3026.018 49536960 49444384 49345296 49239440 49126188 49004772 48874708 
3029.393 48736308 48590840 48440080 48285932 48130136 47973836 47817896 
3032.768 47662896 47509244 47357680 47208864 47063496 46922316 46785972 
3036.144 46655540 46532264 46417764 46313024 46218740 46134460 46058340 
3039.519 45988052 45921128 45855320 45788896 45720676 45649524 45573156 
3042.894 45489444 45395116 45287648 45165420 45028160 44877680 44716564 
3046.269 44548712 44377776 44207672 44042256 43884972 43739540 43608808 
3049.645 43495072 43398872 43319276 43254668 43202692 43161408 43129424 
3053.020 43105604 43088916 43077684 43069416 43060856 43049184 43032280 
3056.395 43009196 42980076 42945616 42906664 42862668 42813152 42757576 
3059.770 42695680 42628640 42558320 42487352 42417640 42349916 42283732 
3063.146 42217632 42150044 42079728 42006324 41929936 41850720 41768564 
3066.521 41682844 41592696 41497752 41398968 41298092 41197712 41100852 
3069.896 41009512 40925220 40848372 40778812 40716248 40660796 40612188 
3073.271 40569584 40531352 40494580 40455372 40409368 40352132 40280144 
3076.646 40190248 40080424 39949628 39797920 39626516 39438052 39236800 
3080.022 39028060 38817068 38609504 38409576 38220300 38043660 37880828 
3083.397 37731972 37597256 37476308 37368504 37272964 37188596 37115040 
3086.772 37052068 37000252 36959556 36928856 36905264 36883656 36856604 
3090.147 36816532 36755876 36668764 36551968 36404572 36227624 36023672 
3093.523 35796536 35550500 35291016 35024284 34757328 34496520 34247704 
3096.898 34014544 33798556 33598716 33412960 33238478 33072538 32913562 
3100.273 32760930 32614640 32474828 32341660 32214816 32093074 31974542 
3103.648 31857218 31738822 31617106 31490900 31359996 31224538 31085668 
3107.024 30944424 30801234 30656420 30509308 30359332 30206176 30050660 
3110.399 29894524 29739898 29589408 29445316 29308822 29180168 29058672 
3113.774 28942878 28830688 28719590 28607744 28492776 28373878 28250628 
3117.149 28123984 27995644 27867238 27739750 27613078 27486054 27357020 
3120.525 27224920 27090286 26954920 26822096 26694986 26575910 26464966 
3123.900 26360562 26259952 26160840 26061824 25963568 25867410 25775350 
3127.275 25688444 25606228 25526912 25448204 25367930 25284758 25198370 
3130.650 25109262 25018136 24925486 24831730 24737050 24642040 24547470 
3134.026 24454220 24363018 24273802 24186072 24098924 24011476 23922856 
3137.401 23832712 23740596 23645662 23546868 23442778 23332388 23216080 
3140.776 23094948 22971196 22847478 22725298 22605348 22486934 22368728 
3144.151 22249924 22130456 22011158 21893464 21778554 21666668 21557040 
3147.527 21448972 21342010 21237266 21136720 21042736 20956494 20877464 
3150.902 20802898 20728344 20649738 20564372 20471762 20373582 20272544 
3154.277 20171356 20071472 19973558 19876876 19781154 19686668 19594212 
3157.652 19504822 19419128 19336530 19255406 19173950 19090500 19004158 
3161.028 18915378 18824850 18733476 18641464 18548504 18454318 18358390 
3164.403 18261102 18162868 18064586 17966326 17867952 17768426 17666888 
3167.778 17563370 17458154 17352616 17247864 17144240 17041780 16939480 
3171.153 16836446 16732300 16627697 16524119 16422767 16324637 16229730 
3174.529 16137043 16045339 15953619 15861850 15770651 15681189 15594115 
3177.904 15509977 15427812 15346624 15265348 15183127 15099960 15015780 
3181.279 14930760 14844693 14757684 14669835 14581866 14494875 14410333 
3184.654 14329163 14251399 14175873 14101251 14025547 13947767 13867985 
3188.030 13786780 13705248 13624073 13543427 13462966 13381802 13299596 
3191.405 13216413 13133314 13051257 12971194 12893877 12819167 12746722 
3194.780 12675961 12606406 12537578 12469067 12399851 12329419 12257022 
3198.155 12182933 12107766 12032784 11959414 11888746 11821496 11757217 
3201.531 11695876 11637334 11582236 11531365 11486012 11445901 11410353 
3204.906 11377495 11344877 11310221 11271589 11228337 11179784 11125391 
3208.281 11064818 10996880 10921476 10839257 10752061 10662744 10574803 
3211.656 10490783 10412107 10338909 10270202 10205067 10142926 10083712 
3215.031 10028065 9975782 9925844 9876692 9825884 9771761 9713784 9653001 
3218.889 9591379 9531529 9475309 9423465 9375826 9331102 9288279 9246104 
3222.746 9203561 9159803 9113715 9064756 9012318 8957418 8901848 8848042 
3226.604 8798472 8754010 8714659 8677779 8640834 8601289 8558472 8513291 
3230.461 8468218 8425852 8387408 8352650 8319279 8284290 8245014 8200036 
3234.319 8149559 8095409 8039511 7983788 7928848 7874692 7820508 7765522 
3238.176 7709396 7651928 7593591 7535060 7476738 7419166 7363051 7308291 
3242.033 7254785 7202296 7149577 7095383 7038771 6979001 6916310 6851374 
3245.891 6785403 6719174 6653291 6587855 6522732 6457955 6394095 6332330 
3249.748 6273901 6219850 6170342 6124872 6082331 6041339 6000587 5959435 
3253.606 5917111 5873583 5828446 5781569 5732749 5682424 5631400 5580449 
3257.463 5530544 5482189 5435282 5389353 5343730 5297743 5251225 5204074 
3261.321 5155755 5105631 5052597 4995647 4934314 4869137 4801993 4735496 
3265.178 4672224 4614319 4562751 4517382 4477442 4441489 4408785 4378126 
3269.035 4348205 4317751 4284722 4247413 4205188 4158319 4108577 4058841 
3272.893 4011887 3969117 3931100 3896195 3862329 3827463 3790226 3750519 
3276.750 3709246 3667442 3626176 3585950 3546764 3508683 3472075 3437040 
3280.608 3403810 3372153 3341233 3309748 3276662 3241476 3204590 3167040 
3284.465 3129860 3093751 3058913 3024545 2990180 2955717 2922025 2890503 
3288.323 2862852 2839772 2820329 2802454 2783279 2759803 2730627 2695585 
3292.180 2656445 2615675 2575476 2537547 2502320 2469063 2436574 2403488 
3296.037 2369072 2333293 2296817 2261044 2227739 2198964 2176120 2159969 
3299.895 2150679 2147182 2147915 2151311 2155407 2159170 2161501 2161368 
3303.752 2157305 2147515 2130101 2103664 2067674 2023131 1971836 1915954 
3307.610 1857285 1796860 1734214 1668983 1600802 1530604 1460549 1393166 
3311.467 1331110 1275743 1226696 1182439 1140246 1098190 1054677 1009108 
3315.324 961885 913239 863369 812377 760428 707922 655753 604918 556212 
3319.664 509933 465384 421802 378655 336042 294827 256267 221292 189369 
3324.004 158840 126789 90730 48842 1424 -49532 -100881 -149839 -194618 
3328.343 -234889 -272143 -308302 -345450 -384582 -425828 -468295 -510725 
3332.201 -551629 -589385 -622539 -649769 -669784 -682488 -688443 -689733 
3336.058 -688939 -689998 -696382 -710805 -734788 -768427 -810464 -858614 
3339.916 -910165 -962305 -1012323 -1058534 -1100113 -1137656 -1172256 
3343.291 -1205861 -1239860 -1274715 -1309733 -1343328 -1373055 -1397133 
3346.666 -1414637 -1426031 -1433363 -1439472 -1447200 -1459749 -1479760 
3350.041 -1509181 -1549264 -1600073 -1660349 -1727416 -1796814 -1863860 
3353.417 -1923604 -1972522 -2008902 -2032812 -2046004 -2050588 -2049005 
3356.792 -2042772 -2033373 -2022094 -2010452 -2000524 -1994291 -1993038 
3360.167 -1996962 -2004944 -2014574 -2023083 -2028096 -2027832 -2021896 
3363.542 -2010353 -1994291 -1974633 -1952632 -1929608 -1907341 -1887481 
3366.917 -1872470 -1864750 -1866103 -1878046 -1901568 -1936865 -1983110 
3370.293 -2038584 -2100316 -2163753 -2223853 -2275703 -2315320 -2340664 
3373.668 -2352594 -2353945 -2348936 -2341785 -2336380 -2334435 -2336643 
3377.043 -2342608 -2351276 -2362085 -2374278 -2387360 -2400640 -2413425 
3380.418 -2424858 -2434216 -2441530 -2446605 -2449768 -2450888 -2449603 
3383.794 -2445320 -2438137 -2428252 -2417115 -2406241 -2396883 -2389205 
3387.169 -2382154 -2373355 -2360437 -2342246 -2318814 -2293139 -2268517 
3390.544 -2249498 -2239708 -2240236 -2250883 -2269341 -2292612 -2317594 
3393.919 -2341389 -2362250 -2378133 -2388019 -2390392 -2384625 -2370323 
3397.295 -2348211 -2320198 -2288953 -2257706 -2229819 -2208754 -2197117 
3400.670 -2196491 -2207535 -2229226 -2259090 -2294194 -2330349 -2364095 
3404.045 -2392468 -2413985 -2428022 -2435402 -2437148 -2434677 -2429175 
3407.420 -2421695 -2413721 -2406143 -2400145 -2396323 -2394840 -2395532 
3410.796 -2397608 -2400442 -2403573 -2406868 -2410426 -2414117 -2417642 
3414.171 -2420311 -2421399 -2420311 -2417576 -2414084 -2410953 -2409504 
3417.546 -2409866 -2411909 -2414446 -2415995 -2416357 -2415665 -2415105 
3420.921 -2416028 -2419224 -2424891 -2432041 -2439521 -2446209 -2451810 
3424.297 -2457016 -2462946 -2470854 -2481660 -2494969 -2509827 -2524816 
3427.672 -2538520 -2550378 -2560589 -2569483 -2577915 -2586841 -2596195 
3431.047 -2605681 -2614738 -2622280 -2627912 -2631140 -2632523 -2633346 
3434.422 -2635717 -2641909 -2654357 -2674478 -2702304 -2736515 -2774181 
3437.798 -2811876 -2845717 -2873334 -2893181 -2905425 -2911613 -2914081 
3441.173 -2914838 -2916023 -2918590 -2922606 -2927608 -2932545 -2936560 
3444.548 -2939259 -2941628 -2945380 -2952949 -2966639 -2988029 -3016690 
3447.923 -3050679 -3086311 -3119670 -3147499 -3168025 -3181511 -3189406 
3451.299 -3193879 -3196773 -3198812 -3199865 -3199437 -3197069 -3193122 
3454.674 -3188912 -3185721 -3185162 -3187892 -3193484 -3200885 -3208679 
3458.049 -3215718 -3221375 -3225354 -3227722 -3228545 -3228117 -3226473 
3461.424 -3223842 -3220651 -3217132 -3213120 -3207923 -3200424 -3189537 
3464.800 -3174571 -3155756 -3134802 -3113715 -3095325 -3081935 -3074500 
3468.175 -3072888 -3076046 -3082495 -3090588 -3098549 -3104866 -3107892 
3471.550 -3106050 -3098089 -3083482 -3063083 -3037946 -3009813 -2980461 
3474.925 -2950020 -2917570 -2881760 -2840384 -2792222 -2737075 -2675861 
3478.301 -2609831 -2540957 -2470458 -2398959 -2327152 -2255234 -2183535 
3481.676 -2111725 -2039045 -1963616 -1882994 -1795197 -1699131 -1596178 
3485.051 -1489931 -1385573 -1288723 -1203746 -1133294 -1077737 -1035859 
3488.426 -1006306 -988389 -982339 -989480 -1011331 -1048915 -1102228 
3491.802 -1170174 -1250829 -1342337 -1442411 -1548274 -1657676 -1767776 
3495.177 -1875901 -1979910 -2078783 -2172128 -2259816 -2341389 -2415105 
3498.552 -2478497 -2528472 -2562895 -2581637 -2587434 -2585688 -2582987 
3501.927 -2585655 -2598303 -2622280 -2655675 -2694368 -2733321 -2767333 
3505.302 -2793144 -2808419 -2812896 -2807695 -2795481 -2779844 -2764403 
3508.678 -2752912 -2747973 -2749751 -2756995 -2766148 -2774312 -2778691 
3512.053 -2778494 -2774576 -2769275 -2765061 -2763382 -2764666 -2768255 
3515.428 -2772666 -2776584 -2779152 -2780238 -2779942 -2778329 -2774938 
3518.803 -2768979 -2759398 -2745306 -2726374 -2702501 -2674478 -2644049 
3522.179 -2612828 -2583119 -2557427 -2537630 -2525277 -2521192 -2525376 
3525.554 -2536872 -2554825 -2577981 -2605351 -2635981 -2668353 -2700229 
3528.929 -2729370 -2753340 -2770427 -2780304 -2784255 -2783959 -2781424 
3532.304 -2777210 -2770526 -2759727 -2742837 -2719492 -2691701 -2663710 
3535.680 -2640954 -2628505 -2629130 -2642271 -2664237 -2689132 -2711063 
3539.055 -2725353 -2728745 -2720447 -2700558 -2670000 -2629427 -2580155 
3542.430 -2523926 -2463144 -2402090 -2345640 -2298940 -2267265 -2254509 
3545.805 -2262189 -2289678 -2333249 -2386800 -2442124 -2490752 -2525079 
3549.181 -2540298 -2534698 -2511178 -2475598 -2435962 -2399717 -2373619 
3552.556 -2360536 -2360734 -2371642 -2389832 -2411316 -2431909 -2448318 
3555.931 -2457905 -2458367 -2449306 -2432008 -2409339 -2385778 -2366105 
3559.306 -2353220 -2347750 -2347651 -2348178 -2343894 -2329327 -2300489 
3562.682 -2255366 -2193458 -2115945 -2025755 -1928321 -1831361 -1746029 
3566.057 -1685467 -1660976 -1679790 -1741474 -1836970 -1951181 -2067340 
3569.432 -2171567 -2254608 -2313277 -2348903 -2365578 -2368874 -2363205 
3572.807 -2352923 -2340400 -2327745 -2316606 -2307542 -2301577 -2298116 
3576.183 -2296897 -2296798 -2297358 -2298281 -2299006 -2299270 -2297918 
3579.558 -2293831 -2285262 -2270924 -2249960 -2222270 -2187227 -2144103 
3582.933 -2090951 -2025722 -1946398 -1853137 -1749824 -1644835 -1550222 
3586.308 -1480222 -1447926 -1460574 -1517172 -1607699 -1716921 -1826808 
3589.684 -1921295 -1990267 -2028954 -2037858 -2021335 -1986705 -1942473 
3593.059 -1897180 -1858218 -1830833 -1817074 -1816282 -1825323 -1840203 
3596.434 -1856205 -1869798 -1878310 -1880850 -1878145 -1872635 -1867852 
3599.809 -1867984 -1876495 -1895201 -1923043 -1955766 -1986606 -2008605 
3603.185 -2014443 -1999799 -1963451 -1907077 -1835419 -1754477 -1672331 
3606.560 -1596541 -1534506 -1492341 -1473354 -1476986 -1497822 -1527836 
3609.935 -1557452 -1578714 -1588090 -1586439 -1579473 -1573861 -1575577 
3613.310 -1586769 -1603738 -1618791 -1622653 -1608326 -1572738 -1518492 
3616.686 -1452517 -1385540 -1329883 -1295627 -1291035 -1318949 -1377745 
3620.061 -1460343 -1557452 -1657973 -1750979 -1827930 -1882170 -1909683 
3623.436 -1908627 -1878310 -1819219 -1732366 -1619517 -1484878 -1336027 
3626.811 -1186332 -1056055 -968619 -946535 -1000224 -1121165 -1281124 
3630.187 -1445251 -1584854 -1683619 -1739296 -1760351 -1760252 -1752299 
3633.562 -1747679 -1752398 -1766522 -1786816 -1808264 -1826709 -1840203 
3636.937 -1848650 -1852807 -1853599 -1851190 -1845713 -1837267 -1826544 
3640.312 -1815094 -1804833 -1797012 -1791073 -1784209 -1771604 -1746689 
3643.688 -1702498 -1633942 -1538930 -1419063 -1280001 -1131543 -986670 
3647.063 -859242 -762175 -705810 -696548 -735846 -820947 -944584 -1094726 
3650.920 -1255157 -1408758 -1538468 -1631698 -1682497 -1691804 -1667116 
3654.295 -1621432 -1571583 -1533879 -1519384 -1531601 -1564782 -1607402 
3657.671 -1647146 -1676292 -1692332 -1698108 -1697844 -1696524 -1697019 
3661.046 -1700023 -1704445 -1708769 -1711673 -1712135 -1709099 -1700683 
3664.421 -1683883 -1654639 -1609085 -1544675 -1460971 -1361065 -1251853 
3667.796 -1143572 -1049279 -983033 -956056 -971330 -1020719 -1086000 
3671.172 -1142547 -1167861 -1149685 -1086265 -988290 -875148 -774942 -716958 
3675.029 -721920 -793464 -913703 -1052121 -1178435 -1275145 -1339496 
3678.404 -1378208 -1401327 -1417874 -1432735 -1446077 -1455456 -1457470 
3681.780 -1449974 -1432405 -1405192 -1367836 -1319280 -1256974 -1179691 
3685.155 -1088016 -986571 -882291 -784931 -704454 -647817 -617808 -612282 
3689.012 -625484 -651059 -685234 -726617 -775372 -830869 -889995 -947692 
3692.870 -998207 -1037412 -1062864 -1076349 -1080844 -1081043 -1080547 
3696.245 -1081373 -1083621 -1085505 -1084447 -1078432 -1066599 -1050270 
3699.620 -1032818 -1019265 -1015827 -1027066 -1055394 -1098824 -1151834 
3702.995 -1206059 -1252976 -1285981 -1301507 -1299657 -1281752 -1250961 
3706.371 -1210123 -1160558 -1103517 -1040652 -975066 -912645 -862384 -833250 
3710.228 -834341 -870089 -939228 -1033743 -1141159 -1247888 -1341676 
3713.603 -1415727 -1467410 -1497756 -1510403 -1509280 -1497624 -1478670 
3716.979 -1454168 -1425007 -1391716 -1353898 -1311715 -1265927 -1218285 
3720.354 -1171363 -1128007 -1090396 -1059360 -1033677 -1010901 -988224 
3723.729 -965049 -942765 -926036 -920613 -932086 -962371 -1008521 -1061674 
3727.586 -1110491 -1143473 -1152197 -1134186 -1091850 -1031991 -962569 
3730.962 -891384 -822601 -756552 -690461 -621911 -552258 -489081 -445953 
3734.819 -437414 -475478 -561921 -686061 -826834 -961280 -1070466 -1144398 
3738.677 -1181739 -1186299 -1163102 -1116638 -1049246 -963594 -863740 
3742.052 -759232 -665848 -603448 -592959 -644608 -749772 -878918 -995166 
3745.909 -1071953 -1098461 -1080282 -1030900 -967462 -904908 -854844 -824982 
3749.767 -818368 -836127 -878885 -945973 -1034966 -1138416 -1245047 -1340421 
3753.624 -1412325 -1454729 -1467410 -1456545 -1429862 -1396109 -1361627 
3756.999 -1329784 -1302796 -1282413 -1272039 -1275838 -1298006 -1338571 
3760.375 -1392608 -1450502 -1499572 -1529091 -1533681 -1514596 -1478736 
3763.750 -1436368 -1398025 -1371503 -1359381 -1359282 -1365656 -1373253 
3767.125 -1378604 -1381973 -1386300 -1396737 -1417411 -1450899 -1496370 
3770.500 -1549859 -1605883 -1658039 -1701475 -1733323 -1752728 -1760978 
3773.875 -1760186 -1752464 -1738537 -1717647 -1687745 -1647212 -1596673 
3777.251 -1539954 -1484548 -1440496 -1417213 -1419525 -1446308 -1489501 
3780.626 -1537610 -1578615 -1604794 -1613773 -1607732 -1592414 -1573960 
3784.001 -1558113 -1548373 -1545963 -1550453 -1561018 -1575412 -1591193 
3787.376 -1605619 -1615589 -1618692 -1614004 -1603407 -1590368 -1579011 
3790.752 -1572672 -1571649 -1573564 -1573332 -1565409 -1546623 -1516941 
3794.127 -1480156 -1442609 -1411169 -1389933 -1378835 -1373650 -1366845 
3797.502 -1351024 -1321427 -1277490 -1223934 -1169513 -1125396 -1103451 
3800.877 -1112242 -1152296 -1215047 -1284461 -1344087 -1381213 -1391056 
3804.253 -1376820 -1348051 -1318091 -1300417 -1306760 -1341445 -1399511 
3807.628 -1468103 -1532591 -1581487 -1609449 -1617503 -1609812 -1591193 
3811.003 -1564485 -1530412 -1487355 -1433990 -1371040 -1302531 -1236457 
3814.378 -1183920 -1155303 -1155865 -1182103 -1220730 -1253968 -1265068 
3817.754 -1244981 -1194692 -1124173 -1049180 -989017 -962206 -979496 
3821.129 -1040354 -1129791 -1226512 -1309138 -1364467 -1390230 -1391881 
3824.504 -1379661 -1363972 -1353997 -1354558 -1365194 -1381544 -1397001 
3827.879 -1405390 -1402417 -1387125 -1361429 -1329058 -1295099 -1263879 
3831.255 -1238472 -1220036 -1206588 -1194098 -1177972 -1154114 -1120670 
3834.630 -1078068 -1030537 -983728 -943923 -916546 -904346 -906925 -921539 
3838.487 -943923 -971099 -1001216 -1033842 -1068912 -1106393 -1145852 
3841.863 -1186696 -1229584 -1275508 -1326349 -1382733 -1443600 -1503799 
3845.238 -1556066 -1592381 -1605982 -1593768 -1555901 -1496072 -1418964 
3848.613 -1327835 -1224232 -1107681 -977942 -838045 -696614 -569829 -481435 
3852.470 -456281 -509898 -637990 -814035 -999298 -1159170 -1277292 -1352312 
3856.328 -1393004 -1410773 -1414703 -1409683 -1396935 -1375730 -1345111 
3859.703 -1305538 -1259452 -1210388 -1162441 -1118423 -1081043 -1052386 
3863.078 -1034834 -1031363 -1043131 -1068384 -1099849 -1126916 -1136368 
3866.454 -1118588 -1070730 -998108 -913372 -835267 -783641 -771139 -799748 
3870.311 -856961 -922531 -976190 -1006670 -1014207 -1008786 -1004852 
3873.686 -1015959 -1050270 -1106293 -1174304 -1239199 -1286344 -1306000 
3877.062 -1294273 -1253604 -1191256 -1118687 -1048089 -991232 -956817 
3880.437 -947262 -958470 -980124 -1000323 -1008025 -997480 -969479 -932450 
3884.294 -900245 -887747 -907652 -962007 -1041709 -1128238 -1201004 -1245311 
3888.152 -1254794 -1232591 -1189703 -1141787 -1104244 -1089768 -1104178 
3891.527 -1144927 -1203151 -1266985 -1326283 -1373617 -1405092 -1419294 
3894.902 -1415562 -1393830 -1354657 -1298733 -1228924 -1148760 -1063426 
3898.277 -978471 -898724 -827826 -768129 -720531 -685697 -664855 -659628 
3902.135 -672034 -703892 -755196 -823725 -904808 -991596 -1076977 -1154576 
3905.992 -1220267 -1271610 -1308742 -1332262 -1343261 -1343261 -1333154 
3909.367 -1313994 -1287401 -1255058 -1218549 -1180153 -1140895 -1100840 
3912.743 -1059525 -1015397 -967561 -916778 -865294 -817442 -778779 -754435 
3916.600 -747622 -758570 -784964 -821939 -864930 -909504 -953213 -993910 
3920.458 -1030173 -1060087 -1081968 -1095288 -1100576 -1100939 -1101435 
3923.833 -1107285 -1122719 -1148992 -1183226 -1220003 -1252514 -1274980 
3927.208 -1283899 -1278845 -1261038 -1233384 -1198823 -1160426 -1121265 
3930.583 -1085505 -1058468 -1045874 -1052650 -1080547 -1127478 -1186960 
3933.958 -1249639 -1305703 -1347919 -1372527 -1379859 -1373451 -1358951 
3937.334 -1341247 -1323442 -1307123 -1291432 -1274418 -1254694 -1231600 
3940.709 -1206522 -1182103 -1161846 -1149322 -1146777 -1154015 -1168687 
3944.084 -1186167 -1201301 -1209198 -1207513 -1196543 -1179724 -1162276 
3947.459 -1149818 -1147108 -1155931 -1175395 -1201995 -1232096 -1261500 
3950.835 -1287467 -1308676 -1324796 -1335631 -1341511 -1342634 -1339496 
3954.210 -1333517 -1326349 -1319676 -1314886 -1312144 -1310229 -1307850 
3957.585 -1303126 -1294999 -1283800 -1270553 -1256644 -1243990 -1233483 
3960.960 -1225620 -1220531 -1218152 -1218351 -1221390 -1227007 -1234507 
3964.336 -1242867 -1251027 -1258097 -1264044 -1269033 -1273856 -1279307 
3967.711 -1285816 -1293050 -1300417 -1307586 -1314160 -1320040 -1325391 
3971.086 -1329685 -1332229 -1331667 -1327373 -1319379 -1308841 -1298369 
3974.461 -1290672 -1288260 -1292257 -1302036 -1315976 -1331337 -1346069 
3977.837 -1358390 -1367572 -1373352 -1375466 -1374145 -1369686 -1362585 
3981.212 -1354723 -1347853 -1344517 -1346300 -1353336 -1365260 -1379793 
3984.587 -1394425 -1406909 -1416024 -1420945 -1421870 -1419129 -1413052 
3987.962 -1403276 -1390032 -1373451 -1354063 -1333088 -1311517 -1290606 
3991.338 -1271412 -1254628 -1240950 -1231203 -1225818 -1224860 -1227734 
3994.713 -1233483 -1240124 -1246468 -1251490 -1255619 -1259915 -1265993 
3998.088 -1275244 -1288095 -1303721 -1320436 -1336754 -1350859 
##END=
