
##TITLE=Z189_3_d
##JCAMP-DX=5.01  $$ Nicolet v. 1
##DATATYPE=INFRARED SPECTRUM
##ORIGIN=UniL
##OWNER=Nicolet
##LONGDATE=2011/09/14
##TIME=17:03:28
##SPECTROMETER/DATA SYSTEM=Nicolet iS5
##DATA PROCESSING=
Ratio against background
%Transmittance->Absorbance
Truncated
ElementMultiply or ElementDivide
##COMMENTS=
Number of sample scans: 32
Collection length: 51.22 sec
Sample gain: 2.0
Background collected on: Mer Sep 14 16:54:19 2011 (GMT+02:00);
Number of background scans: 32
Background gain: 2.0
Sample spacing:  1.000
Number of scan points: 12415
Resolution points: 8192
Number of FFT points: 65536
Apodization: N-B fort;
Phase correction: Mertz;
Laser frequency: 15798.0 cm-1
Number of rejected sample scans: 0
Number of rejected background scans: 0
Bench serial number: ASB1000141;
##RESOLUTION=4.000
##XUNITS=1/CM
##YUNITS=ABSORBANCE
##FIRSTX=649.893372
##LASTX=4000.122314
##FIRSTY=0.110968
##MAXX=4000.122314
##MINX=649.893372
##MAXY=0.269783
##MINY=-0.003899
##XFACTOR=1.000000
##YFACTOR=1.000000E-009
##NPOINTS=6950
##DELTAX=0.482117
##ZPD=6100
##XYDATA=(X++(Y..Y))
649.893 110967896 110056696 109213784 108471040 107835400 107300360 
652.786 106860432 106519760 106292056 106192904 106226288 106376192 
655.679 106608056 106882000 107165488 107446096 107731264 108038840 
658.571 108383984 108767440 109176544 109593448 110009056 110431472 
661.464 110886752 111406104 112015736 112720792 113504800 114333504 
664.357 115169664 115980816 116735184 117400408 117932656 118276440 
667.250 118390048 118282784 118043136 117796480 117645664 117623384 
670.142 117698016 117804216 117874192 117862760 117752544 117558568 
673.035 117313928 117052072 116785824 116502712 116172184 115765960 
675.928 115276376 114721384 114137640 113561176 113012464 112486768 
678.820 111961152 111408592 110815672 110187136 109542840 108904048 
681.713 108281336 107668640 107050280 106409976 105743992 105064664 
684.606 104395816 103759616 103166752 102611704 102077656 101547896 
687.498 101014488 100483520 99971512 99496856 99069416 98688600 98345344 
690.873 98031096 97745176 97497296 97302952 97176704 97124896 97142512 
694.248 97219096 97344824 97518568 97750776 98058632 98456808 98950968 
697.623 99531944 100180576 100872640 101590096 102325480 103082096 103867688 
700.998 104687160 105537344 106407096 107280936 108144160 108987936 
703.890 109807032 110596256 111347136 112045544 112675656 113227384 
706.783 113700720 114108464 114469760 114804032 115122408 115425632 
709.676 115708824 115970168 116218080 116476056 116775416 117144968 
712.569 117600440 118134808 118719120 119305968 119845624 120292440 
715.461 120613168 120791840 120826976 120732544 120535968 120281336 
718.354 120026816 119835056 119770744 119883920 120199528 120713208 
721.247 121389864 122171032 122977928 123727192 124339816 124746384 
724.139 124903488 124800120 124465488 123963392 123384264 122826528 
727.032 122366864 122051200 121886576 121849944 121903160 122011008 
729.925 122155664 122335984 122560800 122837432 123162728 123521016 
732.817 123891904 124257680 124613040 124965648 125329760 125716808 
735.710 126128512 126555104 126981992 127398224 127803432 128207280 
738.603 128625200 129068704 129538376 130025240 130515320 130999568 
741.496 131478608 131961896 132458136 132965968 133464560 133917600 
744.388 134278208 134506656 134582912 134510048 134311824 134021032 
747.281 133673264 133297040 132915872 132553112 132230696 131970912 
750.174 131789880 131691544 131665440 131689576 131741360 131804776 
753.066 131879016 131976080 132114664 132309200 132561312 132858280 
755.959 133177488 133495240 133791568 134053960 134274848 134445792 
758.852 134556160 134594608 134555488 134444704 134282176 134098720 
761.744 133923696 133777528 133666056 133582312 133514408 133456144 
764.637 133412840 133401944 133445504 133560848 133754728 134020984 
767.530 134344608 134704800 135081248 135455360 135809488 136131712 
770.423 136420640 136696512 137003888 137408480 137981040 138762080 
773.315 139734976 140800192 141792096 142494144 142694432 142254768 
776.208 141132800 139399888 137201248 134720336 132117536 129490512 
779.101 126874760 124248552 121563736 118769728 115837640 112767840 
781.993 109587904 106344960 103096624 99907904 96837000 93936120 91246760 
785.368 88792144 86581512 84610016 82864224 81327848 79987224 78834104 
788.743 77865472 77081216 76480856 76062088 75821584 75755976 75865976 
792.118 76156096 76633368 77303736 78165696 79205136 80390096 81671944 
795.493 82984224 84241504 85352008 86215928 86734096 86829424 86450576 
798.867 85590344 84287480 82626904 80726816 78710920 76704760 74808200 
802.242 73083304 71555448 70210408 69005080 67877232 66766300 65627588 
805.617 64442360 63223676 62010424 60857840 59814808 58912228 58151888 
808.992 57506380 56925356 56348732 55725744 55021616 54223864 53340540 
812.367 52393432 51409596 50413652 49427008 48466124 47542220 46665132 
815.742 45842432 45078592 44377260 43739608 43165692 42655104 42207372 
819.116 41821240 41494652 41223980 41004088 40829040 40694856 40600036 
822.491 40547356 40542956 40595012 40711920 40899408 41160044 41491704 
825.866 41888008 42335376 42813296 43294016 43739684 44108928 44361772 
829.241 44465348 44403904 44182504 43828668 43385140 42905640 42447272 
832.616 42057168 41772248 41612312 41577160 41646700 41781404 41930264 
835.990 42032384 42030084 41881296 41564252 41084900 40473012 39778384 
839.365 39056480 38358032 37725252 37183292 36743508 36405836 36163336 
842.740 36005492 35920728 35897912 35926304 35996064 36100000 36232664 
846.115 36391168 36573556 36776716 36994372 37217912 37435352 37635628 
849.490 37811456 37960012 38084496 38191972 38291660 38392200 38500552 
852.865 38622904 38764316 38930664 39129136 39366616 39650076 39985012 
856.239 40375040 40822708 41330160 41900232 42536940 43245880 44033164 
859.614 44906888 45876496 46952032 48144572 49462540 50907368 52468804 
862.989 54121128 55822156 57510956 59119740 60579132 61824980 62813616 
866.364 63524448 63966156 64176552 64222992 64197876 64200556 64337716 
869.739 64707480 65384904 66424504 67850392 69655288 71796920 74197248 
873.113 76746040 79289352 81648264 83634624 85056016 85761592 85658224 
876.488 84724696 83015344 80648576 77790680 74617056 71304776 68014352 
879.863 64866648 61954128 59334644 57034276 55058064 53394452 52022980 
883.238 50917948 50052508 49401652 48939864 48644204 48492648 48464752 
886.613 48544408 48720816 48990344 49356620 49828772 50419272 51139044 
889.987 51995340 52990764 54124096 55392376 56794184 58331752 60011524 
893.362 61844048 63840664 66011800 68361480 70881880 73542808 76283568 
896.737 79010056 81580216 83824144 85561704 86616336 86862328 86241672 
900.112 84777888 82570720 79783152 76622104 73292872 69993672 66893444 
903.487 64109572 61720436 59761916 58234824 57115292 56363444 55934188 
906.862 55779012 55855352 56130176 56578992 57188648 57955936 58885404 
910.236 59987064 61271468 62744708 64400660 66214012 68131904 70079208 
913.611 71957304 73654720 75073272 76133984 76796064 77063648 76984960 
916.986 76644720 76143856 75595056 75099032 74727672 74523152 74487120 
920.361 74586248 74755896 74917600 74995176 74926544 74684264 74281416 
923.736 73775336 73255848 72837544 72645424 72784920 73336568 74338224 
927.110 75777480 77588392 79652056 81816208 83887968 85659640 86938288 
930.485 87543896 87345328 86276184 84340832 81621792 78267928 74490032 
933.860 70517768 66575924 62870720 59551020 56714928 54412320 52650364 
937.235 51410824 50661152 50365392 50483356 50967316 51760520 52782532 
940.610 53929872 55087588 56126480 56928192 57405172 57504868 57224108 
943.985 56603864 55724616 54685744 53588212 52526720 51569560 50759160 
947.359 50114680 49635720 49309996 49119328 49044908 49067684 49168600 
950.734 49329412 49530904 49754936 49986812 50216100 50438624 50655712 
954.109 50873172 51098568 51339480 51602580 51892496 52212988 52566772 
957.484 52955840 53380740 53840072 54330756 54848236 55387672 55945756 
960.859 56521356 57115444 57730248 58368136 59030148 59716212 60425452 
964.233 61157668 61913320 62694632 63503780 64342520 65211340 66109292 
967.608 67035356 67989088 68971760 69985696 71033456 72116056 73232664 
970.983 74380816 75557872 76763440 78000192 79273488 80590576 81958600 
974.358 83382056 84864496 86408528 88017792 89698624 91459840 93310872 
977.733 95261824 97320656 99494768 101792400 104224216 106803384 109545608 
981.108 112464960 115571264 118867960 122352192 126014368 129837496 
984.000 133795216 137841984 141901072 145865216 149582432 152867328 
986.893 155533712 157400528 158331872 158261168 157195440 155219920 
989.786 152479760 149179184 145545968 141807472 138188176 134869248 
992.678 131984520 129623536 127823888 126587216 125889840 125697464 
995.571 125972152 126677824 127784088 129261064 131078648 133207784 
998.464 135617056 138273824 141145280 144188432 147345648 150541712 
1001.356 153671440 156611296 159232464 161406304 163033440 164055072 
1004.249 164459296 164285824 163620976 162596768 161366128 160099344 
1007.142 158969456 158120656 157671696 157702800 158252544 159328816 
1010.035 160916976 162992400 165525680 168488704 171856928 175603888 
1012.927 179702624 184127888 188852720 193850336 199088848 204512224 
1015.820 210030560 215503472 220723312 225445648 229402416 232338832 
1018.713 234078928 234547104 233800464 232016992 229494624 226613632 
1021.605 223761200 221330832 219654432 218957952 219374176 220921968 
1024.498 223528512 227041952 231268192 235999392 241011344 246095504 
1027.391 251054912 255693168 259839200 263347984 266114208 268092096 
1030.284 269293376 269783328 269655648 269021856 267993264 266662416 
1033.177 265107728 263383216 261511920 259482048 257243392 254717952 
1036.070 251805904 248414624 244482208 239985664 234950528 229439776 
1038.963 223544912 217365088 211002176 204560512 198136096 191821616 
1041.856 185702832 179845120 174297792 169092320 164243984 159764144 
1044.750 155666432 151969488 148700304 145887984 143556448 141722736 
1047.643 140392384 139560464 139213424 139332240 139893360 140866128 
1050.536 142214624 143896496 145861648 148060896 150446352 152972416 
1053.429 155598432 158278496 160952576 163547872 165967744 168099424 
1056.322 169833344 171063024 171705792 171713776 171074768 169819776 
1059.215 168019808 165793856 163295504 160698352 158196448 155968048 
1062.108 154163888 152906304 152270496 152292976 152973120 154279008 
1065.001 156148208 158486576 161180544 164089344 167054320 169924864 
1067.894 172554480 174821232 176638976 177947152 178710912 178913808 
1070.787 178552032 177634336 176181392 174228800 171823648 169021840 
1073.680 165890848 162505072 158950256 155333664 151772480 148397648 
1076.573 145346992 142740080 140679376 139238544 138453264 138324016 
1079.466 138811568 139841536 141294384 143010112 144806592 146472592 
1082.359 147806784 148652016 148908160 148564160 147695280 146459184 
1085.252 145059824 143719456 142665056 142082656 142114240 142847696 
1088.146 144304416 146440512 149143504 152252848 155556272 158812240 
1091.039 161793280 164283936 166113392 167173696 167409776 166825360 
1093.932 165470416 163437888 160846384 157822736 154499344 150989152 
1096.825 147380576 143741600 140115920 136532960 133014840 129577752 
1099.718 126233544 122988920 119843608 116793064 113832952 110965336 
1102.611 108204384 105579128 103128512 100901696 98949264 97315392 96040120 
1105.986 95154232 94679536 94631904 95019200 95841224 97088024 98738880 
1109.361 100762232 103111712 105732448 108556504 111499552 114467904 
1112.254 117350400 120020224 122354824 124234440 125560776 126272816 
1115.147 126345680 125794040 124662616 123023224 120963760 118575952 
1118.041 115958408 113200680 110376696 107546080 104746584 101998784 
1120.934 99313240 96696392 94157448 91712320 89381616 87190384 85164280 
1124.309 83324896 81692304 80284328 79116824 78207072 77571960 77225672 
1127.684 77178448 77433368 77984728 78816456 79902816 81208952 82686664 
1131.059 84277136 85911752 87508504 88986504 90273168 91313808 92086448 
1134.435 92605072 92920704 93107272 93255464 93457088 93783952 94284800 
1137.810 94973968 95829656 96793432 97777584 98680984 99391000 99804280 
1141.185 99840896 99442816 98582104 97256528 95484280 93299496 90748456 
1144.560 87892016 84798032 81541400 78203104 74856696 71570096 68402352 
1147.936 65397308 62588876 60000268 57644424 55527004 53647068 51998592 
1151.311 50571540 49353464 48332040 47494568 46830072 46330128 45987684 
1154.686 45797324 45755024 45856608 46099164 46480120 46998364 47653468 
1158.061 48446120 49376480 50443500 51644300 52973396 54424040 55986656 
1161.437 57648324 59392268 61193180 63016720 64821332 66554672 68160352 
1164.812 69583480 70768616 71668096 72243608 72465848 72319720 71805056 
1168.187 70937432 69746040 68270776 66559812 64660720 62621176 60487068 
1171.562 58297984 56091564 53901776 51756416 49680740 47695620 45816768 
1174.938 44056852 42425316 40928024 39568008 38345868 37260076 36307336 
1178.313 35483692 34785148 34207980 33749636 33408452 33183504 33074360 
1181.688 33079796 33197738 33424980 33757120 34189520 34717808 35337884 
1185.063 36044984 36833304 37693520 38612040 39572216 40552452 41528852 
1188.438 42477524 43373060 44191972 44914348 45523884 46012144 46379604 
1191.814 46637096 46804240 46908396 46982488 47058144 47165832 47331592 
1195.189 47573456 47903056 48324036 48832288 49415572 50052808 50716296 
1198.564 51367824 51962588 52452316 52782908 52903328 52770748 52353656 
1201.939 51640828 50643352 49397048 47954744 46382036 44750868 43125072 
1205.315 41559952 40098084 38765040 37574388 36528824 35623612 34849372 
1208.690 34195040 33649696 33202924 32845904 32572352 32377750 32259568 
1212.065 32216958 32249752 32357688 32539640 32793372 33115626 33501710 
1215.440 33945752 34440312 34975944 35540396 36120560 36702112 37271196 
1218.816 37816804 38329764 38803008 39231828 39612468 39943016 40223836 
1222.191 40459296 40658320 40834136 41004780 41190208 41410084 41683500 
1225.566 42025084 42444752 42946828 43528880 44181700 44888080 45625640 
1228.941 46366332 47078896 47734232 48305224 48770192 49115876 49337464 
1232.317 49441192 49443680 49374700 49274180 49187192 49164816 49255656 
1235.692 49501456 49938488 50593092 51482628 52618348 54004984 55640768 
1239.067 57516252 59613540 61903188 64342132 66879332 69451816 71987096 
1242.442 74412392 76648392 78617352 80253560 81502344 82331952 82736608 
1245.818 82735808 82371208 81698456 80786672 79708144 78532976 77330176 
1249.193 76154000 75041440 74006888 73039632 72105968 71155136 70135008 
1252.568 68999992 67723040 66303088 64764672 63155188 61531872 59959712 
1255.943 58498076 57190504 56064384 55124676 54355052 53718264 53162808 
1259.319 52629420 52054060 51381100 50568336 49589436 48438820 47128752 
1262.694 45687512 44152648 42568480 40981328 39431816 37955640 36579576 
1266.069 35320092 34185324 33175886 32286550 31508464 30831042 30244290 
1269.444 29738658 29306270 28940716 28635632 28385126 28183306 28024446 
1272.820 27903982 27818484 27765604 27743810 27751122 27784714 27840880 
1276.195 27914476 27999992 28091568 28182916 28267354 28338614 28390434 
1279.570 28417636 28417246 28387920 28330340 28245502 28134200 27995856 
1282.945 27828800 27631862 27405614 27154052 26885822 26613602 26352466 
1286.321 26119528 25930470 25799436 25739172 25759704 25870786 26080928 
1289.696 26397354 26825620 27368030 28022752 28781756 29628994 30540836 
1293.071 31481710 32407560 33269952 34017268 34605876 35007156 35210088 
1296.446 35224644 35078668 34814404 34477832 34115392 33769408 33471756 
1299.822 33246026 33106684 33057984 33095886 33207822 33375208 33574376 
1303.197 33780220 33970652 34126004 34232216 34280548 34266348 34189200 
1306.572 34052208 33862532 33630976 33370986 33098604 32829110 32576424 
1309.947 32352618 32166570 32025866 31937488 31907674 31942230 32045450 
1313.323 32218884 32461330 32769326 33139154 33567216 34051776 34592564 
1316.698 35189680 35842812 36550992 37312716 38126708 38992500 39909780 
1320.073 40876256 41885856 42924696 43971780 44996772 45960800 46823876 
1323.448 47545140 48091416 48444860 48608256 48609256 48496280 48337632 
1326.823 48208284 48173556 48285600 48568936 49019644 49607932 50287896 
1330.199 51008904 51722788 52396048 53011540 53568828 54081872 54575500 
1333.574 55081684 55631804 56255188 56973256 57796140 58720484 59729104 
1336.949 60795140 61881984 62948384 63954212 64858264 65624124 66223620 
1340.324 66637448 66859080 66893516 66754432 66460176 66029392 65480204 
1343.700 64826720 64081116 63253260 62350480 61378236 60340692 59241288 
1347.075 58084920 56880672 55641976 54389828 53151760 51958440 50845980 
1350.450 49851140 49008520 48352368 47911864 47709416 47762264 48079056 
1353.825 48659324 49490688 50547824 51788408 53150412 54560508 55934340 
1357.201 57182604 58227964 59003616 59462672 59583932 59372212 58860204 
1360.576 58102196 57177500 56181532 55212116 54368496 53729028 53339004 
1363.951 53207560 53306560 53581800 53958724 54359932 54710320 54941368 
1367.326 55004844 54874852 54551864 54059808 53440244 52742388 52009944 
1370.702 51280340 50581104 49930644 49345520 48843564 48444380 48171008 
1374.077 48043412 48071948 48254164 48574496 49009596 49533544 50125016 
1377.452 50769436 51458908 52191764 52971188 53804332 54700328 55668640 
1380.827 56714100 57831308 58996596 60162244 61262732 62212496 62919004 
1384.203 63300028 63283624 62826216 61923444 60625952 59044120 57331056 
1387.578 55664836 54194060 53010196 52143680 51571496 51240704 51084960 
1390.953 51042368 51055336 51070280 51040244 50920040 50672168 50275804 
1394.328 49732236 49067796 48321668 47533976 46729700 45914540 45082044 
1397.704 44225832 43352008 42488196 41678576 40970624 40401624 39985884 
1401.079 39715932 39570656 39526016 39562488 39668044 39838592 40074464 
1404.454 40376312 40742852 41169368 41649400 42176004 42742804 43344320 
1407.829 43975560 44631292 45305924 45995200 46696196 47408564 48134356 
1411.205 48875376 49630888 50395160 51156008 51898172 52606044 53267792 
1414.580 53879380 54444844 54973444 55476628 55964640 56446148 56929588 
1417.955 57427560 57958888 58543232 59195752 59916504 60686648 61473884 
1421.330 62240716 62954552 63589156 64132692 64587472 64970344 65307064 
1424.706 65624356 65942876 66270516 66603496 66929736 67235568 67507696 
1428.081 67736824 67918528 68053032 68145432 68204664 68244672 68283952 
1431.456 68342008 68439744 68592136 68805920 69077488 69394936 69742728 
1434.831 70106352 70482272 70883328 71342536 71899512 72585040 73406952 
1438.207 74342512 75345480 76351584 77292768 78093504 78679896 78993720 
1441.582 78990896 78648520 77963432 76946784 75621600 74018752 72180608 
1444.957 70154872 67988936 65733276 63437820 61157780 58964372 56936652 
1448.332 55150448 53662964 52496768 51643816 51078032 50773536 50713428 
1451.708 50891388 51302564 51930284 52735880 53663372 54633512 55554192 
1455.083 56332816 56877724 57130672 57093712 56849176 56526188 56242024 
1458.458 56066872 56014852 56070792 56214304 56431996 56716628 57059440 
1461.833 57445032 57843796 58212620 58507212 58691996 58758304 58730800 
1465.208 58663136 58616224 58632720 58730080 58898836 59113932 59340680 
1468.584 59542736 59682416 59712188 59574924 59203232 58528028 57506532 
1471.959 56149368 54538904 52805060 51081272 49459496 47971728 46611128 
1475.334 45360136 44214276 43190500 42319784 41627664 41123764 40795044 
1478.709 40614296 40550812 40583228 40705188 40923764 41252944 41705240 
1482.085 42287236 42998440 43835776 44798916 45892440 47124172 48497944 
1485.460 50007784 51627504 53304088 54963064 56503280 57804508 58745252 
1488.835 59205440 59094952 58380300 57100480 55366780 53329448 51145008 
1492.210 48931372 46752320 44631180 42559344 40520220 38511448 36553948 
1495.586 34695236 33001248 31531804 30322486 29376178 28673326 28183448 
1498.961 27878506 27738832 27749640 27897656 28168422 28543304 29001674 
1502.336 29522586 30079812 30641094 31164406 31584714 31816502 31758856 
1505.711 31317544 30454608 29225672 27772456 26252558 24776092 23383016 
1509.087 22066166 20803140 19579618 18395516 17267794 16221028 15275473 
1512.462 14443627 13725971 13113951 12594741 12154480 11780334 11458556 
1515.837 11177133 10927830 10708827 10526290 10390285 10309151 10282721 
1519.212 10299685 10338366 10374370 10389810 10384550 10378239 10401892 
1522.588 10479582 10616259 10799615 11007653 11221230 11428790 11632195 
1525.963 11843491 12079727 12352839 12665864 13013734 13389183 13787635 
1529.338 14210450 14662809 15151388 15678784 16243143 16837720 17453566 
1532.713 18083930 18726868 19385622 20063250 20760250 21470800 22184152 
1536.089 22885478 23558270 24189156 24762728 25266462 25688900 26020660 
1539.464 26254600 26386968 26424150 26381018 26279416 26141662 25980982 
1542.839 25798380 25582506 25319036 24997252 24621876 24212768 23799810 
1546.214 23408892 23049488 22712658 22375286 22012170 21606592 21161490 
1549.590 20698804 20252754 19851454 19504718 19202692 18923372 18644508 
1552.965 18354622 18059578 17779956 17541048 17358996 17232558 17141276 
1556.340 17051324 16916500 16683852 16305234 15756117 15065038 14318342 
1559.715 13624689 13058496 12637856 12340805 12128857 11963569 11811962 
1563.091 11650641 11468695 11268699 11065498 10880229 10732261 10629229 
1566.466 10566248 10527172 10493023 10446963 10380376 10295614 10205203 
1569.841 10126409 10074216 10057396 10078082 10133600 10219043 10327270 
1573.216 10449576 10572392 10680164 10757666 10796082 10799784 10788032 
1576.592 10789798 10828217 10912676 11038784 11194710 11368345 11552223 
1579.967 11744690 11948821 12168826 12407455 12663442 12932449 13208078 
1583.342 13483062 13750492 14003611 14234314 14434105 14594647 14710004 
1586.717 14779794 14810203 14815311 14813665 14826213 14873460 14971193 
1590.093 15130665 15357815 15653124 16010409 16414473 16841682 17258140 
1593.468 17623474 17900476 18056986 18075502 17956002 17715756 17384828 
1596.843 16997570 16588934 16186599 15809823 15472034 15180279 14937996 
1600.218 14744966 14597834 14491072 14418622 14376493 14363616 14382281 
1603.594 14435543 14525297 14649134 14800226 14967455 15136978 15295412 
1606.969 15429013 15525258 15573199 15562690 15485906 15339347 15125484 
1610.344 14854671 14544519 14219523 13903564 13615868 13367143 13157734 
1613.719 12979217 12817836 12659348 12491710 12309376 12117818 11931929 
1617.094 11772980 11659184 11601463 11599761 11645808 11725592 11822416 
1620.470 11920452 12004919 12066747 12104666 12125790 12143645 12172847 
1623.845 12224338 12301400 12400568 12514558 12636662 12761156 12884594 
1627.220 13004959 13121532 13235098 13347975 13465392 13594124 13740300 
1630.595 13908559 14099471 14309199 14529615 14750005 14958984 15144732 
1633.971 15298227 15414182 15494903 15551460 15602530 15669717 15768178 
1637.346 15903609 16072329 16264848 16467916 16668428 16857148 17030062 
1640.721 17190224 17345824 17506618 17679208 17863774 18052564 18232178 
1644.096 18387288 18502688 18569216 18585954 18563510 18521012 18483532 
1647.472 18475788 18515516 18610994 18761706 18959264 19187662 19421482 
1650.847 19627662 19760766 19773004 19636190 19373288 19067960 18817826 
1654.222 18682486 18658516 18707426 18783848 18854332 18900668 18916796 
1657.597 18905652 18873502 18825230 18761464 18677436 18565724 18418328 
1660.973 18229034 17995854 17721276 17414142 17088716 16762294 16452190 
1664.348 16171433 15924746 15708020 15508569 15307769 15082773 14812465 
1667.723 14481652 14086705 13637168 13154557 12667331 12201097 11773933 
1671.098 11394127 11060705 10765444 10494076 10228406 9947541 9633893 
1674.474 9281103 8901373 8525423 8189670 7922403 7731319 7605763 7524709 
1678.331 7466929 7419268 7378857 7353076 7352571 7385160 7448929 7531520 
1682.188 7611597 7667171 7683258 7663428 7632133 7626973 7678367 7794869 
1686.046 7966981 8177651 8411630 8656585 8904012 9147892 9381886 9600865 
1689.903 9802229 9987513 10162565 10335414 10512982 10696737 10881078 
1693.279 11051121 11187605 11270875 11290531 11254145 11191208 11141267 
1696.654 11131646 11165981 11221944 11262510 11242006 11120496 10880806 
1700.029 10544859 10174301 9838222 9579693 9398917 9268681 9151952 9016411 
1703.886 8840130 8612375 8335390 8022263 7692397 7364265 7050052 6754610 
1707.744 6476890 6211682 5953019 5695483 5435919 5174096 4913001 4657688 
1711.601 4413304 4182840 3966676 3762050 3565070 3372220 3181725 2993783 
1715.459 2808123 2622642 2432976 2234066 2026060 1816856 1622286 1458787 
1719.316 1337358 1258795 1215066 1191908 1174432 1151275 1116693 1071982 
1723.174 1022592 975500 935552 902846 874857 847932 820211 791829 764810 
1727.513 739617 715522 689370 658209 621376 581593 543937 512753 487343 
1731.853 459480 412880 329609 196794 19019 -179251 -361739 -499870 -584687 
1736.192 -625120 -639182 -644971 -657676 -685068 -727808 -780697 -835895 
1740.050 -886788 -929904 -965413 -994439 -1018141 -1036156 -1047593 -1052121 
1743.907 -1050832 -1045874 -1039164 -1031991 -1023463 -1012719 -998835 
1747.282 -982438 -966537 -954965 -951924 -959759 -978636 -1006736 -1040453 
1751.140 -1076052 -1109037 -1136037 -1154213 -1161846 -1158971 -1148066 
1754.515 -1134451 -1124470 -1124900 -1139871 -1168621 -1204473 -1238076 
1757.890 -1261500 -1271379 -1270288 -1265068 -1265002 -1277193 -1304613 
1761.266 -1344748 -1390990 -1435014 -1470514 -1494917 -1508686 -1514068 
1764.641 -1513408 -1508488 -1501058 -1492869 -1486001 -1482237 -1482171 
1768.016 -1483690 -1483425 -1478505 -1468302 -1455852 -1447596 -1451394 
1771.391 -1472693 -1510700 -1557749 -1601658 -1631995 -1643845 -1639950 
1774.767 -1626977 -1612849 -1602285 -1596244 -1592414 -1587528 -1580100 
1778.142 -1571682 -1566730 -1569998 -1584227 -1607864 -1635329 -1659590 
1781.517 -1675301 -1681044 -1679757 -1676919 -1677315 -1683784 -1695831 
1784.892 -1710551 -1724610 -1735402 -1742002 -1744114 -1741177 -1731640 
1788.268 -1713686 -1686623 -1652460 -1616711 -1588057 -1575082 -1584161 
1791.643 -1615589 -1663452 -1717647 -1768238 -1808924 -1839082 -1861055 
1795.018 -1878343 -1893452 -1906978 -1918260 -1927134 -1934556 -1942802 
1798.393 -1954743 -1972126 -1994522 -2019159 -2042343 -2060844 -2073474 
1801.769 -2081421 -2086367 -2090324 -2093061 -2093688 -2090621 -2083103 
1805.144 -2071726 -2058469 -2045146 -2033142 -2021896 -2010353 -1997589 
1808.519 -1984264 -1972951 -1967113 -1970246 -1982846 -2002932 -2026117 
1811.894 -2047356 -2063779 -2074925 -2082542 -2089236 -2095897 -2101866 
1815.270 -2103316 -2095798 -2076739 -2045707 -2006131 -1962792 -1921097 
1818.645 -1884710 -1854655 -1830206 -1809749 -1791766 -1775663 -1761374 
1822.020 -1749164 -1739296 -1731838 -1726887 -1724775 -1725501 -1728175 
1825.395 -1730716 -1730188 -1723488 -1709759 -1690517 -1671044 -1658666 
1828.771 -1660052 -1679031 -1713224 -1754840 -1792822 -1817470 -1824630 
1832.146 -1815655 -1796451 -1773617 -1752827 -1736260 -1722927 -1709561 
1835.521 -1693257 -1672430 -1647311 -1619451 -1589938 -1558443 -1523082 
1838.896 -1480949 -1429565 -1368233 -1298039 -1221820 -1142911 -1065508 
1842.271 -993447 -930136 -877793 -836656 -804246 -775174 -743123 -703263 
1846.129 -653640 -596069 -535678 -479880 -434501 -403782 -388058 -384913 
1849.986 -390276 -400935 -415798 -435759 -462602 -497123 -538193 -582470 
1853.844 -626179 -666675 -703726 -739385 -777125 -819228 -866154 -915588 
1857.701 -964487 -1010505 -1052783 -1093172 -1133988 -1176585 -1220829 
1861.076 -1263516 -1300946 -1330775 -1352411 -1367836 -1380421 -1393004 
1864.452 -1406380 -1419690 -1430952 -1438944 -1444426 -1449875 -1458593 
1867.827 -1472363 -1490195 -1508025 -1520771 -1524799 -1519483 -1507761 
1871.202 -1494058 -1481939 -1472991 -1465924 -1458362 -1447926 -1434552 
1874.577 -1419888 -1408131 -1402516 -1405192 -1415430 -1431150 -1449512 
1877.953 -1468566 -1487949 -1507893 -1529289 -1551873 -1574488 -1595121 
1881.328 -1612816 -1627803 -1641799 -1656751 -1673816 -1692266 -1709924 
1884.703 -1723587 -1730650 -1730848 -1725600 -1717812 -1710287 -1705072 
1888.078 -1702333 -1701970 -1702894 -1704643 -1707020 -1709759 -1711508 
1891.454 -1710584 -1704907 -1693224 -1676391 -1656949 -1638234 -1623544 
1894.829 -1614301 -1609515 -1606445 -1602582 -1595848 -1586637 -1576502 
1898.204 -1567357 -1559202 -1551278 -1541010 -1526384 -1507200 -1484812 
1901.579 -1462225 -1442345 -1425932 -1412160 -1398190 -1381676 -1362221 
1904.955 -1341676 -1323442 -1311220 -1306991 -1310328 -1318024 -1327208 
1908.330 -1334640 -1339331 -1342271 -1345012 -1348117 -1352180 -1355912 
1911.705 -1358786 -1361429 -1364996 -1371238 -1381048 -1393434 -1405621 
1915.080 -1415265 -1420417 -1421672 -1422035 -1425272 -1433990 -1448125 
1918.456 -1464834 -1480288 -1492506 -1502940 -1515785 -1537114 -1571550 
1921.831 -1618989 -1674905 -1730716 -1777609 -1809122 -1823805 -1823970 
1925.206 -1814896 -1801170 -1785298 -1768172 -1750022 -1731739 -1715535 
1928.581 -1704049 -1698669 -1698834 -1701673 -1702960 -1700023 -1692695 
1931.957 -1683817 -1678371 -1679691 -1688867 -1703059 -1717515 -1727548 
1935.332 -1731277 -1729858 -1726987 -1725501 -1726326 -1726426 -1721970 
1938.707 -1709264 -1688471 -1663617 -1642063 -1631203 -1635230 -1654210 
1942.082 -1682431 -1712696 -1737811 -1753322 -1757876 -1752002 -1736590 
1945.458 -1711574 -1676556 -1632391 -1582015 -1530214 -1482864 -1443798 
1948.833 -1413646 -1390659 -1370710 -1351024 -1331073 -1313235 -1301045 
1952.208 -1297180 -1301706 -1312442 -1326118 -1341147 -1359149 -1384714 
1955.583 -1423356 -1477019 -1543487 -1614466 -1678470 -1725171 -1748801 
1958.958 -1749560 -1733026 -1707118 -1677117 -1644769 -1609284 -1569569 
1962.334 -1526516 -1483326 -1444360 -1412457 -1387489 -1366086 -1343790 
1965.709 -1317727 -1288657 -1261599 -1243329 -1237382 -1243792 -1257172 
1969.084 -1270420 -1277094 -1276169 -1269561 -1264044 -1264044 -1271742 
1972.459 -1284725 -1298666 -1310129 -1316736 -1318322 -1313268 -1296255 
1975.835 -1257338 -1184647 -1070036 -915092 -734424 -553350 -397625 -289296 
1979.692 -237572 -238598 -279163 -342139 -413878 -484944 -551993 -614863 
1983.550 -672464 -722813 -762241 -788338 -801369 -805899 -808975 -816383 
1987.407 -831034 -850644 -870618 -884704 -888672 -882753 -869824 -855109 
1991.264 -842377 -834275 -831530 -833878 -842046 -856498 -878190 -906528 
1995.122 -938170 -969082 -994703 -1012918 -1024653 -1033479 -1044023 
1998.497 -1058236 -1074234 -1088446 -1095089 -1090694 -1076250 -1058005 
2001.872 -1043032 -1038437 -1046965 -1066169 -1089669 -1109565 -1118687 
2005.248 -1113928 -1094792 -1063194 -1020984 -971033 -916579 -861656 -812316 
2009.105 -774446 -751855 -745042 -749276 -757545 -761117 -754402 -735846 
2012.962 -708688 -677890 -649769 -627072 -610595 -598551 -588360 -577969 
2016.820 -566057 -550769 -529291 -497818 -453302 -394844 -326611 -256183 
2020.677 -193260 -147355 -123241 -120756 -134172 -156728 -181271 -204554 
2024.535 -225716 -246712 -268700 -291581 -313533 -332472 -347503 -359554 
2028.392 -370942 -383456 -396069 -405536 -406066 -392262 -361275 -313103 
2032.250 -250851 -179350 -102338 -22364 57822 135473 206142 264490 306365 
2036.589 329344 335777 331400 322646 315616 311903 309383 303812 290185 
2040.929 266545 234652 199380 166663 141207 124933 116746 114029 114161 
2045.268 116050 121486 134147 158475 198684 257627 333986 422764 513715 
2049.608 594002 648652 666671 642745 580863 493447 397359 311870 250897 
2053.948 219303 212971 220231 227789 225137 209623 185424 161127 144819 
2058.287 140279 146410 157945 168220 173259 172563 169579 168718 173690 
2062.627 184695 200672 217977 234121 247416 257826 265849 271983 276459 
2066.966 280271 284383 291611 304343 324006 348776 373879 393048 400344 
2071.306 392650 371889 344133 317308 298375 291113 295192 306995 321386 
2075.646 334219 343105 346786 344531 336109 320524 298076 270789 243039 
2079.985 220828 208960 210021 222121 239691 254974 261904 258058 245227 
2084.325 228154 212872 203523 201103 203689 207667 209557 207501 200871 
2088.664 190264 175811 156686 131694 99744 61202 18986 -22431 -57682 -82098 
2093.486 -92235 -87531 -68747 -38765 -1126 39530 78534 111046 133517 144389 
2098.308 144455 136997 127452 120260 119431 126225 140245 159138 181479 
2102.647 205678 231038 257196 282692 305802 325232 339789 350666 360250 
2106.987 371724 387310 407408 428966 448336 461968 468569 469298 467872 
2111.327 468171 472980 482169 493215 502105 505986 503332 494840 482368 
2115.666 467972 452813 436495 418651 399614 380644 364892 354712 351827 
2120.006 356005 364959 376035 386846 396795 406015 415301 424322 430823 
2124.345 431685 423327 403926 373680 334948 291743 247183 202927 158542 
2128.685 112637 63787 11762 -42508 -96608 -147951 -194088 -232638 -260587 
2133.025 -274395 -269892 -244592 -198692 -137219 -69509 -6527 41949 70945 
2137.364 81649 80191 74690 71641 74491 81716 89968 95403 96563 94144 90730 
2142.668 88012 86355 84765 81649 76778 72536 71641 77341 90299 107400 123375 
2147.972 132920 131760 119564 98518 70680 36946 -4042 -55562 -119729 -196009 
2152.794 -279991 -365976 -447642 -523930 -595176 -663102 -724103 -764623 
2156.651 -762142 -686888 -514035 -234724 134147 552795 969224 1330179 
2160.509 1600203 1765885 1834391 1828269 1775999 1704807 1634825 1577823 
2164.366 1538950 1516306 1505267 1498451 1488743 1470756 1441633 1402008 
2168.224 1355340 1305021 1253378 1199616 1139681 1068527 983039 884319 
2172.081 779680 680941 600240 547520 526719 535112 564905 604951 646097 
2176.421 679613 699558 702811 688009 656118 610326 557108 504493 460409 
2180.760 431520 418950 420707 432083 447473 464190 481605 501242 523700 
2185.100 548051 570711 587067 595097 595760 594466 599543 617328 651340 
2189.439 699226 755151 810950 860481 901119 933759 961088 985363 1006850 
2193.779 1023456 1032656 1033154 1026545 1016415 1008378 1006950 1013526 
2197.636 1027475 1045576 1064707 1081648 1095599 1105598 1111411 1112308 
2201.494 1107890 1098323 1085866 1073742 1066069 1065804 1073476 1086896 
2205.351 1102840 1117390 1128718 1137389 1145428 1154797 1166525 1178784 
2209.209 1189117 1194400 1193635 1187721 1179914 1172903 1168186 1165063 
2213.066 1160843 1152870 1139083 1120247 1098921 1078226 1060655 1046406 
2216.924 1034549 1022592 1008976 993234 975766 957867 939703 920975 901086 
2221.263 879239 856895 836179 820510 812145 811348 815597 820909 823166 
2225.603 819116 809456 796012 782170 770784 763150 758902 756678 755284 
2229.942 754919 755848 759499 765938 774502 783232 790369 795049 798236 
2234.282 801688 808394 820543 838636 862041 888370 914799 938773 958464 
2238.622 972478 980116 981843 978522 972677 967198 964973 968593 978688 
2242.961 993566 1010271 1024818 1034649 1038269 1037239 1033519 1030597 
2246.819 1030763 1035379 1044314 1057267 1072679 1089553 1106793 1122705 
2250.676 1135263 1143302 1146292 1145196 1143036 1143169 1148917 1161309 
2254.533 1178419 1196360 1209484 1213405 1205563 1186791 1160412 1131044 
2258.391 1103372 1080651 1064342 1053913 1047868 1044114 1040760 1035778 
2262.248 1027840 1016415 1001935 986061 971748 961885 959095 964043 975766 
2266.588 991706 1008477 1023456 1034781 1042421 1046805 1049063 1049894 
2270.445 1049096 1046506 1042055 1035977 1029301 1022659 1016614 1010935 
2274.303 1005023 998083 990710 984367 981212 984168 994795 1013260 1038402 
2278.642 1067165 1096861 1125363 1151442 1175229 1198054 1221313 1246135 
2282.500 1272985 1301863 1331708 1361056 1387914 1410119 1425842 1433920 
2286.357 1434452 1428369 1417731 1404966 1392335 1381066 1372424 1366441 
2290.215 1363716 1364580 1370396 1380967 1396257 1414839 1434751 1453036 
2294.072 1468096 1478768 1485817 1490505 1494328 1498351 1502574 1506032 
2297.929 1507960 1507561 1505001 1501244 1497321 1494195 1492067 1490771 
2301.787 1489773 1488776 1487945 1488111 1490072 1494129 1499947 1506564 
2305.644 1512648 1516838 1518933 1519165 1518367 1517669 1518600 1521825 
2309.502 1527910 1536622 1547562 1559633 1571271 1580949 1587699 1591058 
2313.359 1592255 1593220 1597210 1606655 1623517 1647763 1677864 1711261 
2317.217 1744993 1777463 1807972 1837186 1866702 1898449 1934026 1973999 
2321.074 2017905 2063545 2107226 2143353 2164798 2164964 2138092 2081690 
2324.931 1997566 1891893 1773969 1654814 1545134 1452471 1380967 1330412 
2328.789 1297643 1277936 1266438 1259792 1256070 1254741 1255638 1259426 
2332.646 1266571 1277637 1293090 1313429 1338189 1366674 1396855 1427172 
2336.504 1455662 1482326 1507062 1530936 1554711 1578321 1600436 1619592 
2340.361 1634326 1644137 1650058 1653650 1656710 1659603 1661566 1660501 
2344.219 1654880 1644570 1632264 1622719 1622719 1637918 1671977 1725764 
2348.076 1797026 1881910 1974499 2069471 2161201 2244757 2316970 2376302 
2351.933 2423213 2460099 2490690 2518784 2546879 2575843 2604842 2631876 
2355.791 2655445 2674647 2690417 2705054 2720657 2739630 2762371 2788581 
2359.648 2816527 2844275 2870223 2893405 2913518 2930931 2946243 2960054 
2363.506 2972898 2985676 2997987 3010198 3021709 3032152 3041261 3049370 
2367.363 3057645 3066855 3078100 3091048 3104797 3117245 3126055 3129926 
2371.220 3128992 3124753 3120215 3118346 3121583 3131128 3146747 3167540 
2375.078 3192640 3221347 3254094 3290918 3332552 3379099 3430293 3485903 
2378.935 3545661 3609571 3677901 3750353 3826426 3904419 3982392 4058239 
2382.793 4130520 4198297 4261834 4321833 4378895 4433154 4483937 4530206 
2386.650 4570686 4604641 4631834 4652397 4666899 4675640 4678855 4676779 
2390.508 4669578 4658391 4644259 4628887 4613783 4599685 4586525 4573767 
2394.365 4560541 4546110 4530373 4513833 4497295 4482129 4469240 4459766 
2398.222 4454611 4454678 4461072 4474463 4495620 4524681 4561177 4604440 
2402.080 4653468 4707258 4764807 4825311 4888471 4953986 5022260 5093796 
2405.937 5169369 5249816 5335579 5426491 5521886 5620592 5721468 5823879 
2409.795 5927860 6034015 6143087 6255581 6370827 6487483 6602960 6714833 
2413.652 6820339 6917590 7004996 7081777 7147287 7201218 7243835 7276113 
2417.510 7299531 7316514 7329015 7338990 7347145 7353144 7356210 7355132 
2421.367 7349369 7339192 7325208 7308932 7291241 7273047 7254953 7237535 
2425.224 7222105 7210482 7204788 7207585 7220791 7245553 7282279 7331206 
2429.082 7391563 7463154 7545477 7637292 7737120 7842606 7951323 8061181 
2432.939 8171033 8281082 8392679 8507784 8628260 8755464 8889841 9030721 
2436.797 9177569 9329951 9487331 9650290 9818937 9994328 10176810 10366565 
2440.654 10563768 10767753 10978087 11193996 11414639 11639443 11868383 
2444.029 12102179 12341930 12589318 12845071 13109649 13382007 13660351 
2447.405 13941677 14223084 14502138 14776297 15043530 15302689 15552182 
2450.780 15791267 16019691 16238052 16447302 16649283 16844850 17034198 
2454.155 17216216 17388172 17546636 17687834 17808192 17905380 17977412 
2457.530 18023070 18041374 18031704 17993058 17924578 17826144 17697810 
2460.906 17540184 17354686 17142656 16905924 16646702 16367575 16071606 
2464.281 15763024 15446008 15125245 14804991 14488571 14178817 13877905 
2467.656 13587082 13308683 13045076 12798931 12573252 12370498 12191861 
2471.031 12037518 11906012 11795008 11701220 11621508 11552972 11493292 
2474.406 11441207 11395624 11355862 11321444 11291822 11266149 11243672 
2477.782 11223475 11205080 11188149 11172373 11157347 11142592 11127329 
2481.157 11110604 11091739 11070495 11047247 11022572 10997491 10972786 
2484.532 10948421 10924466 10900614 10876560 10852574 10829066 10807054 
2487.907 10786809 10769112 10753556 10740004 10728253 10718268 10710016 
2491.283 10703257 10697722 10691812 10683765 10672014 10655375 10633983 
2494.658 10609196 10582781 10557013 10532740 10510165 10488135 10465223 
2498.033 10440175 10412888 10384211 10355265 10327305 10300669 10274714 
2501.408 10248048 10218806 10185732 10148489 10108061 10065840 10024301 
2504.784 9985512 9951372 9923302 9902013 9887505 9878862 9874217 9871269 
2508.641 9867201 9859880 9847508 9829850 9807786 9782674 9756242 9729540 
2512.499 9703550 9678241 9653678 9629997 9607335 9586129 9566415 9548125 
2516.356 9530648 9513477 9496509 9479542 9463727 9449572 9438093 9429256 
2520.213 9423329 9419131 9415982 9413443 9411445 9410497 9410971 9413917 
2524.071 9419876 9429459 9443071 9461086 9483572 9509819 9538540 9567940 
2527.928 9595749 9619970 9639855 9655440 9668179 9679698 9691996 9706092 
2531.786 9722186 9739705 9757699 9775693 9793011 9810023 9826969 9844187 
2535.643 9861371 9878353 9894522 9909776 9924183 9938489 9953610 9970459 
2539.500 9989887 10012196 10037526 10065670 10096293 10128715 10162497 
2542.876 10196417 10229627 10261076 10290083 10316209 10339282 10359677 
2546.251 10378069 10394901 10411293 10427719 10445165 10463662 10483281 
2549.626 10503173 10522556 10540446 10555892 10569473 10581797 10594393 
2553.001 10608925 10626106 10645935 10667090 10687635 10705635 10719355 
2556.377 10728423 10733110 10734605 10733891 10731854 10728661 10723736 
2559.752 10716435 10705838 10691439 10673068 10650859 10625359 10597381 
2563.127 10568386 10539563 10512372 10487864 10466208 10447132 10429450 
2566.502 10412074 10394189 10375761 10357674 10341624 10329238 10321468 
2569.878 10318788 10320722 10325812 10332632 10340096 10347291 10354179 
2573.253 10360966 10367956 10375592 10384653 10395749 10409562 10426803 
2576.628 10447336 10470722 10495977 10521606 10546522 10569981 10592355 
2580.003 10614493 10637921 10663695 10692696 10725027 10759873 10796524 
2583.379 10834094 10871905 10909584 10946756 10983218 11019072 11054316 
2586.754 11089427 11125425 11163058 11203856 11248364 11296855 11348720 
2590.129 11403039 11458182 11512686 11565494 11615961 11664188 11710683 
2593.504 11756366 11802088 11848633 11896715 11946165 11996676 12047670 
2596.880 12098056 12147188 12194656 12240117 12283948 12326283 12367600 
2600.255 12408613 12450075 12492835 12538157 12587066 12640585 12698990 
2603.630 12762112 12829031 12898656 12970204 13043131 13117879 13194860 
2607.005 13274861 13358123 13443964 13531223 13618125 13702683 13783565 
2610.381 13859569 13930489 13996288 14057545 14114395 14167965 14218872 
2613.756 14267903 14315911 14363171 14409408 14453629 14494601 14530882 
2617.131 14561308 14585669 14604516 14619114 14631074 14642212 14653967 
2620.506 14667332 14682721 14700543 14720560 14742841 14767178 14793609 
2623.882 14822065 14852887 14886113 14922187 14961213 15003055 15047543 
2627.257 15094162 15142708 15193146 15245889 15301487 15360595 15423074 
2630.632 15488756 15556577 15625371 15694313 15762577 15830545 15898522 
2634.007 15966957 16036056 16105784 16175456 16244933 16314110 16383436 
2637.383 16453840 16526081 16600467 16676726 16753891 16830796 16906614 
2640.758 16980996 17054392 17127526 17201256 17275860 17351272 17427042 
2644.133 17502374 17577274 17651704 17726282 17801496 17877964 17955518 
2647.508 18033950 18112842 18191752 18270846 18350094 18430048 18511056 
2650.884 18592734 18675568 18759354 18844054 18930362 19018800 19109786 
2654.259 19203176 19298774 19395602 19493180 19590468 19687776 19785316 
2657.634 19884162 19984486 20086430 20189370 20292194 20393272 20491492 
2661.009 20586188 20677536 20766438 20853754 20940500 21027400 21114284 
2664.385 21201184 21287406 21372464 21456386 21539422 21622158 21705852 
2667.760 21791270 21879318 21970554 22065190 22162672 22262306 22363214 
2671.135 22464288 22564582 22663504 22760526 22855754 22949222 23041138 
2674.510 23131572 23220590 23308122 23393714 23477052 23557852 23636250 
2677.885 23712740 23787980 23863062 23939136 24016940 24097348 24180924 
2681.261 24268056 24359200 24455306 24557042 24665746 24782196 24907062 
2684.636 25040494 25182042 25331226 25487484 25650304 25819550 25995122 
2688.011 26176854 26364188 26556114 26751612 26949278 27148198 27348056 
2691.386 27548890 27751830 27957656 28167362 28381236 28599570 28822192 
2694.762 29048752 29279190 29513720 29752708 29996832 30246636 30501916 
2698.137 30762430 31027158 31295002 31564902 31835646 32106738 32377750 
2701.512 32648608 32919172 33189048 33457798 33724892 33989532 34251076 
2704.887 34508644 34761564 35008376 35247388 35476680 35693684 35896144 
2708.263 36081996 36250132 36399960 36531600 36645436 36742064 36821836 
2711.638 36884880 36931020 36960132 36972256 36967240 36945412 36906888 
2715.013 36852060 36781008 36694000 36591040 36472496 36339216 36192404 
2718.388 36033428 35864260 35687100 35503432 35315096 35123324 34929368 
2721.764 34734748 34541116 34351152 34167760 33994012 33832192 33684108 
2725.139 33549960 33429526 33321682 33225994 33141836 33069748 33010542 
2728.514 32965176 32934148 32917422 32914560 32924424 32945908 32978260 
2731.889 33021122 33074290 33137332 33209648 33290382 33378034 33471220 
2735.265 33568396 33668248 33770084 33873024 33976276 34079588 34182276 
2738.640 34283916 34384148 34482748 34579432 34673844 34765652 34854360 
2742.015 34940036 35023136 35104208 35184864 35266256 35349204 35434040 
2745.390 35520224 35606892 35693072 35778008 35861848 35945128 36028428 
2748.766 36112528 36197836 36283852 36370092 36455668 36540468 36624420 
2752.141 36708028 36791904 36876984 36963812 37052756 37144272 37238848 
2755.516 37336800 37438424 37544040 37653264 37765548 37879924 37995128 
2758.891 38109924 38223160 38333564 38439692 38540052 38632720 38715772 
2762.267 38787572 38846124 38890188 38919144 38932404 38930088 38912728 
2765.642 38881128 38836448 38780000 38713348 38637828 38554824 38465904 
2769.017 38372800 38277512 38182528 38090356 38003808 37924720 37854436 
2772.392 37793416 37740972 37695796 37656264 37620848 37588516 37558348 
2775.768 37529916 37503220 37477792 37453156 37428560 37402884 37374032 
2779.143 37340048 37298312 37246504 37182968 37106560 37017464 36916880 
2782.518 36806760 36689780 36568728 36446228 36324304 36204828 36089128 
2785.893 35978244 35872824 35773296 35679368 35590308 35505196 35422788 
2789.269 35341872 35261692 35181740 35102196 35023280 34945528 34870052 
2792.644 34797100 34727608 34662144 34600996 34544664 34493008 34445156 
2796.019 34400248 34356748 34312996 34267496 34219168 34167184 34111448 
2799.394 34052348 33990108 33925256 33858052 33788208 33715476 33639532 
2802.770 33560056 33476658 33389774 33299398 33206322 33111442 33015438 
2806.145 32919210 32823928 32730774 32640572 32554638 32473434 32397348 
2809.520 32326452 32260246 32198616 32141238 32088402 32040600 31998616 
2812.895 31962950 31934026 31911384 31894338 31882178 31873904 31869232 
2816.271 31868414 31872444 31882748 31900648 31928074 31966052 32015878 
2819.646 32078340 32154192 32243900 32347764 32465826 32597494 32741922 
2823.021 32897976 33063668 33237476 33417504 33602336 33789964 33978928 
2826.396 34167688 34354092 34536088 34711312 34877412 35032224 35174156 
2829.771 35302588 35417324 35519288 35609480 35689008 35758868 35819388 
2833.147 35870592 35912992 35947612 35976012 36001788 36028496 36059996 
2836.522 36099856 36150372 36212712 36286768 36372220 36468892 36577664 
2839.897 36699844 36838568 36997800 37181452 37394328 37641952 37929532 
2843.272 38263576 38651372 39100312 39618384 40212492 40887356 41643164 
2846.648 42474348 43367236 44297556 45232484 46131072 46945384 47628988 
2850.023 48139908 48445564 48528404 48386928 48035752 47501188 46820296 
2853.398 46035280 45187112 44315980 43457132 42637596 41878452 41193048 
2856.773 40587632 40063204 39615552 39237996 38921428 38656192 38433468 
2860.149 38244724 38083516 37944428 37823820 37719464 37629920 37554804 
2863.524 37494516 37449980 37422492 37413576 37424808 37457780 37513804 
2866.899 37593680 37697784 37825840 37977480 38151488 38346412 38559572 
2870.274 38787068 39023784 39262840 39496584 39717744 39919660 40098304 
2873.650 40252696 40384820 40499016 40601416 40698820 40797520 40902428 
2877.025 41017416 41144856 41286140 41441468 41610780 41793440 41988548 
2880.400 42195760 42414904 42645852 42888672 43142744 43406672 43677464 
2883.775 43950772 44221320 44483004 44730372 44958924 45165384 45348624 
2887.151 45509056 45648900 45771960 45883824 45991188 46102036 46224820 
2890.526 46368768 46543440 46758076 47023284 47351508 47755792 48252904 
2893.901 48860916 49598052 50482464 51526576 52734232 54095160 55582208 
2897.276 57147984 58721888 60222112 61555124 62627800 63366236 63718484 
2900.652 63666492 63226164 62445504 61395448 60154252 58805572 57424644 
2904.027 56071096 54793616 53625324 52586852 51690128 50939784 50336036 
2907.402 49875820 49555676 49371580 49320204 49398904 49605184 49935736 
2910.777 50385856 50948316 51612280 52364796 53188312 54061496 54961072 
2914.153 55859236 56726820 57536000 58260096 58877660 59375212 59746364 
2917.528 59992392 60120764 60143328 60072516 59920460 59697280 59409404 
2920.903 59060516 58651796 58183292 57655816 57073348 56443356 55778260 
2924.278 55094776 54410932 53746164 53117760 52538460 52017640 51559780 
2927.654 51165176 50831676 50554524 50328148 50145400 49998524 49879312 
2931.029 49778160 49686052 49593336 49490536 49368832 49220292 49038008 
2934.404 48817128 48554968 48251384 47908496 47530352 47122324 46690292 
2937.779 46241076 45782012 45320232 44864120 44421964 44001040 43608184 
2941.155 43247968 42922500 42631524 42372492 42140880 41929976 41732376 
2944.530 41539240 41340476 41127080 40890488 40624776 40327808 40001580 
2947.905 39652580 39289712 38924580 38568512 38231156 37919588 37637544 
2951.280 37385548 37161276 36960600 36778340 36609244 36448752 36293248 
2954.656 36140292 35987928 35835148 35680804 35523676 35362644 35196976 
2958.031 35026728 34852708 34676896 34501724 34329744 34163208 34003688 
2961.406 33852072 33708848 33574376 33449390 33334494 33230822 33139408 
2964.781 33060954 32996490 32946910 32913308 32897084 32899656 32921854 
2968.156 32963316 33022732 33097602 33184756 33281188 33384692 33494230 
2971.532 33610496 33734848 33868872 34013756 34168908 34331680 34496448 
2974.907 34655148 34797064 34910264 34982912 35003852 34965640 34864880 
2978.282 34703308 34486908 34225620 33932208 33619980 33302042 32990702 
2981.657 32695298 32423302 32179240 31964484 31777784 31615644 31472732 
2985.033 31343150 31221262 31103072 30986306 30870776 30758090 30651050 
2988.408 30552000 30462248 30380794 30304294 30226742 30139792 30035248 
2991.783 29905918 29747420 29559544 29346824 29117946 28883378 28654284 
2995.158 28439922 28245748 28073752 27922072 27787256 27664666 27550548 
2998.534 27442532 27339622 27242170 27151020 27067224 26991588 26924388 
3001.909 26865662 26814800 26771276 26734064 26702174 26674620 26650522 
3005.284 26629560 26611594 26596834 26585524 26577954 26574112 26574078 
3008.659 26577848 26585280 26596374 26611172 26629102 26649782 26672330 
3012.035 26695972 26720180 26744776 26769760 26795418 26822342 26850822 
3015.410 26881418 26914658 26951464 26992750 27039434 27091768 27149468 
3018.785 27211164 27274984 27338670 27400638 27459722 27516022 27570072 
3022.160 27622682 27674378 27725162 27774646 27822724 27869532 27915852 
3025.536 27963450 28014304 28069794 28131160 28198086 28269440 28343036 
3028.911 28416786 28488248 28555866 28618468 28675806 28728548 28777438 
3032.286 28823784 28868790 28912808 28956122 28998272 29038904 29077804 
3035.661 29115570 29153520 29193528 29237686 29287342 29343172 29404930 
3039.037 29471414 29541312 29613032 29685968 29759486 29833866 29909112 
3042.412 29985542 30063334 30142456 30223120 30305432 30389216 30474510 
3045.787 30561030 30648526 30736788 30825776 30915818 31006908 31099192 
3049.162 31192068 31284392 31375170 31463292 31548406 31630754 31711694 
3052.538 31792328 31873762 31956424 32040280 32124470 32208320 32291546 
3055.913 32374430 32457366 32540958 32625496 32710910 32796874 32883502 
3059.288 32971002 33059842 33150922 33244770 33341468 33440336 33540514 
3062.663 33641180 33741508 33841828 33942276 34043212 34144676 34246232 
3066.039 34347316 34447560 34547252 34647464 34749684 34855148 34964704 
3069.414 35078024 35193884 35310636 35426744 35541044 35653468 35764336 
3072.789 35874052 35983356 36092260 36201260 36310612 36421040 36533764 
3076.164 36649688 36769072 36891552 37015656 37139440 37260944 37378760 
3079.540 37492564 37602932 37711084 37818504 37926240 38034908 38144652 
3082.915 38255364 38367008 38479476 38592776 38707152 38822644 38939508 
3086.290 39058004 39178484 39301612 39428040 39558024 39691640 39828352 
3089.665 39967392 40107532 40247864 40387476 40526008 40663344 40799156 
3093.041 40933632 41066764 41198880 41330488 41462828 41597144 41735000 
3096.416 41877536 42025084 42177208 42332344 42488484 42643700 42795932 
3099.791 42944664 43089872 43232412 43373644 43514668 43656436 43799088 
3103.166 43942376 44085712 44228948 44372268 44516336 44661880 44809676 
3106.542 44960172 45112960 45267200 45421788 45575660 45727888 45878224 
3109.917 46026844 46174444 46321284 46468172 46615332 46762652 46910504 
3113.292 47058512 47206536 47354056 47500632 47645848 47789564 47931992 
3116.667 48073468 48214764 48356592 48499060 48641944 48784688 48926220 
3120.042 49065864 49203108 49338320 49472492 49606820 49742560 49880320 
3123.418 50020384 50161796 50303072 50442828 50579652 50712572 50842068 
3126.793 50969328 51096444 51226016 51360104 51500128 51646240 51797220 
3130.168 51950824 52105196 52258204 52408908 52557720 52705688 52854416 
3133.543 53005104 53158276 53313716 53470596 53627536 53783852 53939028 
3136.919 54093356 54247444 54402216 54558516 54716976 54877636 55039972 
3140.294 55203308 55366108 55527228 55685592 55840544 55992348 56142092 
3143.669 56291096 56440940 56593032 56747964 56905752 57065980 57227736 
3147.044 57390348 57553628 57716888 57880136 58043032 58205080 58366312 
3150.420 58526852 58687260 58848144 59010828 59175556 59342468 59510812 
3153.795 59679720 59847928 60014648 60179408 60342368 60503560 60663136 
3157.170 60821020 60977092 61131464 61284668 61437468 61590784 61745528 
3160.545 61902200 62060452 62219760 62379512 62538744 62697312 62855132 
3163.921 63012084 63167916 63321956 63473748 63622416 63767672 63909448 
3167.296 64048284 64184816 64319656 64453080 64585396 64716676 64847408 
3170.671 64977920 65108740 65239908 65371572 65503248 65633832 65762812 
3174.046 65888964 66011884 66131012 66246196 66357212 66464312 66568196 
3177.422 66669940 66771200 66873424 66977976 67084812 67192824 67300440 
3180.797 67405760 67507200 67604240 67697560 67788680 67879208 67970688 
3184.172 68063920 68159072 68255488 68352672 68450136 68546584 68641696 
3187.547 68734296 68823696 68909040 68990560 69068704 69144768 69220384 
3190.923 69296632 69374640 69454416 69535568 69617752 69700408 69782848 
3194.298 69864680 69945096 70022912 70097240 70167792 70234672 70299256 
3197.673 70363696 70429776 70498992 70571480 70646416 70721624 70795568 
3201.048 70866352 70933608 70997440 71058312 71116696 71173016 71227160 
3204.424 71279280 71329496 71378352 71426152 71473416 71520016 71566192 
3207.799 71612104 71658216 71705688 71755720 71809120 71865688 71923832 
3211.174 71981080 72034344 72082024 72123336 72159680 72193600 72228232 
3214.549 72265832 72307240 72351776 72397688 72442944 72486088 72526336 
3217.925 72564472 72601680 72639432 72679352 72722672 72770192 72822232 
3221.300 72878456 72938264 73000664 73064168 73127568 73190112 73251296 
3224.675 73311184 73369912 73427632 73484056 73539200 73592344 73643848 
3228.050 73693744 73742944 73792144 73842104 73893160 73945920 74000608 
3231.426 74057928 74118992 74184632 74254840 74329224 74405824 74482240 
3234.801 74556552 74627128 74694104 74758808 74822960 74888152 74955200 
3238.176 75023408 75092136 75160360 75227888 75295344 75364040 75435104 
3241.551 75508312 75583072 75657328 75729080 75797208 75861480 75923864 
3244.927 75986736 76052768 76124192 76201904 76285984 76375368 76468456 
3248.302 76563288 76657920 76749840 76836872 76917240 76989944 77055144 
3251.677 77113904 77168720 77221904 77275664 77331328 77388976 77448064 
3255.052 77507512 77566528 77624168 77680432 77735392 77789016 77841176 
3258.427 77891160 77938536 77982472 78022520 78058128 78089976 78118256 
3261.803 78143680 78167160 78189296 78210328 78230288 78248616 78264480 
3265.178 78277056 78285712 78289752 78289400 78284640 78276104 78264128 
3268.553 78249160 78231872 78212744 78191920 78170096 78147208 78123448 
3271.928 78098304 78071976 78044336 78015616 77986520 77957408 77928352 
3275.304 77898888 77868016 77834752 77798088 77757904 77714944 77670720 
3278.679 77626552 77583328 77541296 77500024 77459032 77418320 77378328 
3282.054 77340432 77305832 77275472 77249264 77225944 77204136 77182208 
3285.429 77159304 77135512 77111808 77088936 77067848 77048424 77030456 
3288.805 77013440 76997304 76982384 76969648 76960120 76954584 76953392 
3292.180 76956672 76964312 76976336 76993144 77014752 77041336 77072552 
3295.555 77107256 77144768 77184192 77225360 77268304 77313944 77362608 
3298.930 77414832 77470760 77530208 77593544 77661288 77734248 77813192 
3302.306 77898304 77988928 78083552 78180296 78277736 78375192 78472520 
3305.681 78570144 78668384 78767600 78866720 78965344 79063240 79160992 
3309.056 79260088 79362664 79470392 79584600 79705000 79830896 79961080 
3312.431 80094544 80230672 80369320 80510160 80652608 80795176 80937200 
3315.807 81077392 81215904 81353344 81490864 81629040 81768048 81906544 
3319.182 82042928 82175424 82302720 82424480 82540904 82652232 82758624 
3322.557 82859896 82955864 83047280 83135184 83221776 83309080 83398240 
3325.932 83488864 83579192 83665912 83746152 83817792 83880168 83933472 
3329.308 83978616 84015968 84045240 84065664 84076240 84076920 84068360 
3332.683 84051784 84028512 83998632 83961248 83914656 83857224 83788176 
3336.058 83708056 83618352 83520992 83417064 83306792 83189072 83061960 
3339.433 82924664 82776496 82618240 82451440 82277160 82096280 81908224 
3342.809 81712488 81507856 81293768 81070032 80836728 80594240 80342488 
3346.184 80081800 79812656 79536160 79254400 78969632 78684512 78400912 
3349.559 78120040 77842240 77567160 77294312 77023016 76752448 76482128 
3352.934 76210816 75938032 75663520 75388080 75113680 74843352 74579680 
3356.310 74325096 74080128 73843904 73614480 73390240 73170152 72954448 
3359.685 72744768 72542784 72349864 72166528 71991440 71822760 71658368 
3363.060 71496416 71335472 71175552 71017104 70861128 70708992 70562400 
3366.435 70422832 70291856 70169744 70056272 69949496 69846896 69746000 
3369.811 69644544 69541488 69436224 69328896 69218672 69104640 68984192 
3373.186 68854832 68714888 68563344 68400680 68228008 68046288 67855424 
3376.561 67654384 67440552 67211848 66966348 66703236 66422844 66125920 
3379.936 65813124 65484516 65139844 64778292 64400160 64005696 63596404 
3383.312 63173548 62738696 62292920 61837056 61372244 60899656 60420956 
3386.687 59938144 59452640 58966044 58478628 57990620 57501616 57012096 
3390.062 56522148 56033396 55547336 55065208 54588612 54118840 53656288 
3393.437 53201156 52752900 52310304 51871700 51435368 50999436 50563124 
3396.813 50126468 49690624 49257180 48827952 48403816 47985052 47570796 
3400.188 47160032 46751656 46345504 45941312 45539412 45139868 44742420 
3403.563 44346252 43950848 43555548 43160824 42767520 42376764 41989788 
3406.938 41607316 41229188 40855904 40487052 40122652 39763244 39409356 
3410.313 39060976 38718348 38380796 38047568 37718204 37392444 37070328 
3413.689 36752052 36437756 36127616 35821652 35519972 35222772 34930412 
3417.064 34643268 34361012 34082776 33807084 33532206 33257328 32982372 
3420.439 32709018 32440084 32178562 31926646 31685784 31454958 31232406 
3423.814 31015414 30800806 30586912 30372444 30156734 29939852 29722016 
3427.190 29503790 29285534 29068130 28852608 28639598 28429592 28222622 
3430.565 28018050 27814950 27612758 27411050 27210244 27011296 26815328 
3433.940 26623818 26437496 26256854 26081808 25911864 25745958 25582786 
3437.315 25420624 25257540 25091920 24922536 24748764 24571138 24390776 
3440.691 24209510 24029580 23852490 23679986 23513076 23351618 23194830 
3444.066 23041242 22888340 22733816 22575296 22411882 22244272 22075090 
3447.441 21907892 21746886 21595380 21454648 21323808 21200454 21080822 
3450.816 20961256 20839260 20713262 20583096 20449570 20313096 20174652 
3454.192 20035210 19895434 19756152 19618682 19483614 19351498 19222226 
3457.567 19095278 18969716 18844884 18719948 18594946 18469600 18343286 
3460.942 18215696 18086072 17954482 17821242 17688008 17556988 17430420 
3464.317 17309618 17195050 17086132 16981098 16878056 16775830 16673660 
3467.693 16571723 16470429 16370155 16270766 16171845 16072776 15973179 
3471.068 15872987 15772266 15671398 15570624 15469906 15369623 15270393 
3474.443 15173210 15079308 14990434 14907612 14830910 14759568 14691872 
3477.818 14626002 14560314 14493539 14425404 14355979 14285503 14214525 
3481.194 14143593 14073493 14005220 13940172 13879308 13823173 13771730 
3484.569 13723886 13678131 13633099 13587252 13540624 13493453 13446356 
3487.944 13400563 13357201 13316746 13279917 13247429 13219555 13196670 
3491.319 13178533 13164769 13154079 13145473 13137891 13130788 13124607 
3494.695 13120065 13118664 13121567 13130104 13145370 13168219 13199334 
3498.070 13239368 13288663 13346505 13411737 13482550 13556588 13632005 
3501.445 13707846 13784488 13863229 13946160 14035128 14131954 14237498 
3504.820 14351389 14473669 14603317 14739241 14880558 15026174 15175098 
3508.196 15326887 15481957 15641686 15807452 15981155 16163385 16353641 
3511.571 16549796 16748693 16947782 17144344 17337134 17526144 17711130 
3514.946 17892120 18068246 18238294 18400838 18555178 18701752 18841216 
3518.321 18975048 19103138 19224442 19335700 19432432 19510022 19564470 
3521.697 19592964 19594938 19571508 19524510 19456688 19370102 19266212 
3525.072 19145070 19005510 18845714 18663636 18458330 18229620 17979968 
3528.447 17712892 17432388 17142380 16845642 16543807 16237296 15927050 
3531.822 15613761 15299326 14985563 14673399 14362897 14052514 13740574 
3535.198 13425270 13106848 12787158 12469919 12159115 11858134 11568522 
3538.573 11290327 11022130 10762556 10510640 10265859 10028506 9798602 
3541.948 9575629 9358288 9144575 8932320 8720034 8506804 8291956 8076337 
3545.805 7861196 7648421 7440604 7241342 7053252 6878505 6717390 6568108 
3549.663 6426814 6289432 6151522 6011035 5867940 5724557 5584275 5450648 
3553.520 5325617 5209473 5101071 4998462 4899998 4804706 4711847 4621519 
3557.378 4533018 4445439 4357408 4267757 4175681 4081919 3987542 3894790 
3561.235 3805735 3722179 3644854 3573389 3505676 3437741 3364573 3278965 
3565.093 3175017 3047701 2896173 2723925 2540347 2357545 2187275 2038078 
3568.950 1912926 1809669 1723103 1646432 1574597 1503139 1430496 1356137 
3572.807 1280528 1204268 1127954 1052318 977493 904307 833457 764810 697766 
3577.147 631928 566198 500148 434505 370265 309018 252057 200341 153437 
3581.487 111510 73795 40823 12955 -9111 -26141 -39924 -54303 -75174 -108202 
3586.308 -158484 -228266 -315685 -415335 -518701 -618139 -706637 -780499 
3590.166 -839070 -883944 -917968 -944848 -968289 -991794 -1017149 -1045841 
3594.023 -1077440 -1110953 -1144299 -1176254 -1205696 -1232756 -1258263 
3597.398 -1283239 -1309006 -1336259 -1365029 -1395250 -1426559 -1458296 
3600.774 -1489931 -1520837 -1550651 -1578384 -1603209 -1624568 -1641469 
3604.149 -1653946 -1662561 -1668964 -1675532 -1685929 -1703257 -1730650 
3607.524 -1768865 -1816645 -1869600 -1922087 -1969191 -2007517 -2036902 
3610.899 -2060019 -2081190 -2104800 -2133157 -2166127 -2200480 -2231896 
3614.275 -2255794 -2269539 -2273363 -2270100 -2264892 -2262947 -2270297 
3617.650 -2291260 -2328141 -2380374 -2444463 -2514044 -2581011 -2638451 
3621.025 -2681097 -2706980 -2716858 -2714092 -2702501 -2685214 -2663907 
3624.400 -2638286 -2607459 -2570833 -2530021 -2490390 -2460969 -2453721 
3627.776 -2479222 -2542472 -2638385 -2751167 -2859805 -2946663 -3004121 
3631.151 -3033734 -3042783 -3041500 -3039163 -3041730 -3051601 -3068117 
3634.526 -3088318 -3108616 -3126446 -3140592 -3151842 -3161611 -3171479 
3637.901 -3183189 -3197628 -3215027 -3235122 -3257091 -3279815 -3301551 
3641.277 -3320196 -3333710 -3339826 -3336702 -3322859 -3298066 -3262649 
3644.652 -3218546 -3168650 -3117268 -3069664 -3031629 -3008727 -3005601 
3648.027 -3024916 -3066768 -3128914 -3205851 -3290568 -3373165 -3444241 
3651.402 -3495683 -3522732 -3524770 -3505412 -3471885 -3433228 -3399203 
3654.778 -3378623 -3376913 -3394929 -3427968 -3468500 -3508107 -3541630 
3658.153 -3567626 -3587179 -3603445 -3618297 -3632624 -3645898 -3656642 
3661.528 -3663378 -3665743 -3664133 -3659501 -3652634 -3643204 -3630192 
3664.903 -3611463 -3585240 -3550142 -3506759 -3456929 -3404792 -3355805 
3668.279 -3315789 -3289417 -3277875 -3276888 -3275343 -3260643 -3219500 
3671.654 -3144079 -3034031 -2895716 -2741717 -2589213 -2459685 -2375662 
3675.029 -2353780 -2399454 -2501953 -2640822 -2793605 -2945084 -3089042 
3678.404 -3223644 -3349131 -3464292 -3565358 -3648789 -3711607 -3754477 
3681.780 -3779934 -3792449 -3795536 -3790675 -3777569 -3754641 -3720609 
3685.155 -3677013 -3627695 -3578799 -3538048 -3512708 -3507187 -3522535 
3688.530 -3555532 -3599962 -3649151 -3697546 -3742060 -3780755 -3812583 
3691.905 -3836559 -3851567 -3858037 -3856920 -3850878 -3842963 -3836230 
3695.281 -3832650 -3832815 -3834785 -3836230 -3833865 -3825753 -3811597 
3698.656 -3793336 -3774482 -3760028 -3754379 -3760850 -3779639 -3807853 
3702.031 -3840073 -3869400 -3890516 -3899349 -3895343 -3879942 -3856100 
3705.406 -3826903 -3794682 -3760948 -3726522 -3691567 -3657004 -3624245 
3708.781 -3595492 -3573738 -3561644 -3561612 -3575020 -3601079 -3637585 
3712.157 -3680824 -3725832 -3767321 -3800627 -3822994 -3833274 -3832289 
3715.532 -3822896 -3809134 -3795273 -3784697 -3779836 -3780460 -3785682 
3718.907 -3793237 -3801646 -3809955 -3818528 -3827527 -3837051 -3845262 
3722.282 -3849794 -3847922 -3837478 -3819053 -3794912 -3769423 -3746987 
3725.658 -3731121 -3721988 -3717323 -3711870 -3700437 -3679444 -3647968 
3729.033 -3608439 -3565621 -3525658 -3493250 -3471951 -3461465 -3458934 
3732.408 -3459625 -3459263 -3456173 -3452623 -3453247 -3463207 -3486052 
3735.783 -3521286 -3564109 -3607158 -3644157 -3670409 -3684733 -3687329 
3739.159 -3678885 -3659041 -3626775 -3581231 -3524212 -3460282 -3398743 
3742.534 -3353043 -3336537 -3360572 -3424582 -3514581 -3604168 -3668208 
3745.909 -3693243 -3679542 -3636731 -3578437 -3518460 -3467776 -3433425 
3749.284 -3418895 -3423859 -3446114 -3482568 -3530127 -3585174 -3641758 
3752.660 -3693078 -3731844 -3752802 -3754937 -3741239 -3717586 -3690614 
3756.035 -3666795 -3650432 -3642481 -3642415 -3648165 -3658384 -3671493 
3759.410 -3687197 -3704084 -3719820 -3731121 -3735030 -3729906 -3716765 
3762.785 -3699189 -3681908 -3668865 -3662753 -3662228 -3663871 -3661998 
3766.161 -3652897 -3635581 -3613007 -3590826 -3575414 -3572752 -3585010 
3769.536 -3610904 -3645340 -3681645 -3713874 -3738019 -3753360 -3760948 
3772.911 -3763215 -3762032 -3758912 -3753557 -3744787 -3731318 -3712659 
3776.286 -3688939 -3662918 -3638308 -3619677 -3610641 -3613303 -3625986 
3779.662 -3644978 -3664298 -3678918 -3685588 -3683846 -3676356 -3666762 
3783.037 -3658811 -3654539 -3654835 -3658022 -3662195 -3665119 -3666039 
3786.412 -3664791 -3662491 -3660454 -3659731 -3660914 -3664232 -3669719 
3789.787 -3677078 -3686048 -3695345 -3703099 -3706942 -3704807 -3695345 
3793.163 -3679838 -3661308 -3644485 -3634004 -3633117 -3641791 -3655985 
3796.538 -3668240 -3670409 -3656215 -3623686 -3576071 -3521385 -3471162 
3799.913 -3436548 -3427410 -3446969 -3489865 -3542090 -3586620 -3610115 
3803.288 -3606895 -3580048 -3538771 -3496044 -3464851 -3455548 -3473364 
3806.664 -3515633 -3572424 -3629601 -3675469 -3703526 -3713381 -3708684 
3810.039 -3694885 -3675074 -3651155 -3621485 -3584418 -3538902 -3486742 
3813.414 -3432867 -3384935 -3352320 -3342127 -3356824 -3390129 -3429349 
3816.789 -3459887 -3469584 -3454792 -3419125 -3373691 -3331869 -3308785 
3820.165 -3316085 -3357383 -3426423 -3507187 -3581132 -3633741 -3659369 
3823.540 -3660848 -3646884 -3628056 -3612843 -3607059 -3611068 -3621320 
3826.915 -3631441 -3634464 -3626906 -3607914 -3580902 -3550307 -3521845 
3830.290 -3499463 -3484934 -3477638 -3474350 -3470603 -3461564 -3444109 
3833.666 -3416627 -3379938 -3337294 -3293528 -3254953 -3227492 -3216310 
3837.041 -3223710 -3248508 -3286195 -3329797 -3372803 -3409625 -3438258 
3840.416 -3459033 -3474186 -3486677 -3499265 -3514220 -3531968 -3552015 
3843.791 -3572654 -3590991 -3604233 -3610083 -3607092 -3595328 -3575776 
3847.167 -3549584 -3517802 -3479610 -3433458 -3376716 -3307503 -3226111 
3850.542 -3136907 -3049100 -2975985 -2934947 -2941167 -3000961 -3106116 
3853.917 -3234497 -3358665 -3456732 -3520366 -3551490 -3558062 -3549189 
3857.292 -3532527 -3513596 -3495058 -3478624 -3464457 -3452787 -3442860 
3860.667 -3434149 -3425667 -3416627 -3407225 -3398644 -3393088 -3392792 
3864.043 -3398546 -3408244 -3416824 -3417909 -3405647 -3378557 -3339628 
3867.418 -3297145 -3261629 -3244397 -3252947 -3287970 -3341305 -3398085 
3870.793 -3443945 -3469946 -3475534 -3467020 -3454595 -3447692 -3451538 
3874.168 -3465870 -3485000 -3500120 -3503078 -3489306 -3459460 -3418665 
3877.544 -3374513 -3335551 -3309443 -3301124 -3310791 -3334598 -3364386 
3880.919 -3390622 -3404792 -3402819 -3385198 -3357186 -3326969 -3304281 
3884.294 -3297737 -3311877 -3344922 -3388485 -3430072 -3456798 -3460545 
3887.669 -3440197 -3400814 -3351235 -3301716 -3262484 -3240615 -3239233 
3891.045 -3256598 -3286392 -3321018 -3352616 -3376058 -3388518 -3389669 
3894.420 -3380135 -3361263 -3334598 -3301814 -3265378 -3228281 -3193747 
3897.795 -3165065 -3144605 -3133190 -3130065 -3132927 -3139210 -3146249 
3901.170 -3152829 -3159309 -3167170 -3178222 -3194010 -3214435 -3237720 
3904.546 -3261268 -3281755 -3296783 -3305300 -3307405 -3304774 -3299710 
3907.921 -3293889 -3288957 -3285767 -3284452 -3284287 -3284682 -3284386 
3911.296 -3282446 -3277973 -3270245 -3259064 -3244857 -3228676 -3212659 
3914.671 -3198714 -3189274 -3185524 -3187827 -3195194 -3205555 -3216672 
3918.047 -3226736 -3234859 -3240450 -3243903 -3244824 -3243213 -3238082 
3921.422 -3229367 -3217362 -3203713 -3190853 -3181610 -3178058 -3180788 
3924.797 -3188649 -3198780 -3207923 -3213481 -3214139 -3210225 -3203285 
3928.172 -3195392 -3188287 -3183255 -3181084 -3182334 -3187169 -3195984 
3931.548 -3208910 -3225124 -3242752 -3259327 -3271955 -3278631 -3278631 
3934.923 -3273041 -3263833 -3253802 -3244561 -3236964 -3229959 -3221901 
3938.298 -3210751 -3195227 -3175854 -3154769 -3134473 -3118222 -3108156 
3941.673 -3105195 -3108353 -3115722 -3124341 -3131512 -3135394 -3135657 
3945.049 -3132335 -3126677 -3120130 -3114011 -3109143 -3106050 -3104570 
3948.424 -3104307 -3104603 -3105590 -3106576 -3107498 -3108221 -3108320 
3951.799 -3107498 -3105195 -3101313 -3096279 -3090621 -3085324 -3081113 
3955.174 -3078251 -3075980 -3073052 -3067689 -3058971 -3045908 -3029654 
3958.550 -3011557 -2993821 -2978289 -2966540 -2958807 -2954529 -2953015 
3961.925 -2953147 -2954068 -2955483 -2956964 -2958313 -2959103 -2959103 
3965.300 -2957688 -2954858 -2950777 -2945643 -2939983 -2933664 -2926687 
3968.675 -2918459 -2908815 -2897559 -2884920 -2871886 -2859904 -2850193 
3972.051 -2843808 -2841306 -2842227 -2845914 -2850918 -2855921 -2859772 
3975.426 -2861221 -2860036 -2855921 -2848975 -2839495 -2828073 -2814707 
3978.801 -2800321 -2785342 -2770625 -2757159 -2745668 -2736976 -2731741 
3982.176 -2729732 -2730819 -2734606 -2740466 -2747414 -2754723 -2761604 
3985.552 -2767135 -2770197 -2770461 -2767892 -2763579 -2758805 -2755809 
3988.927 -2756534 -2761867 -2771613 -2784058 -2796436 -2806312 -2811316 
3992.302 -2810526 -2804469 -2794790 -2783860 -2773819 -2766246 -2762098 
3995.677 -2761505 -2764205 -2769703 -2777407 -2787152 -2797621 -2808189 
3999.052 -2817571 -2824847 -2829225 -2830871 
##END=
