
##TITLE=Z189_2_e
##JCAMP-DX=5.01  $$ Nicolet v. 1
##DATATYPE=INFRARED SPECTRUM
##ORIGIN=UniL
##OWNER=Nicolet
##LONGDATE=2011/09/14
##TIME=16:49:11
##SPECTROMETER/DATA SYSTEM=Nicolet iS5
##DATA PROCESSING=
Ratio against background
%Transmittance->Absorbance
Truncated
ElementMultiply or ElementDivide
##COMMENTS=
Number of sample scans: 32
Collection length: 51.24 sec
Sample gain: 2.0
Background collected on: Mer Sep 14 16:41:24 2011 (GMT+02:00);
Number of background scans: 32
Background gain: 2.0
Sample spacing:  1.000
Number of scan points: 12415
Resolution points: 8192
Number of FFT points: 65536
Apodization: N-B fort;
Phase correction: Mertz;
Laser frequency: 15798.0 cm-1
Number of rejected sample scans: 0
Number of rejected background scans: 0
Bench serial number: ASB1000141;
##RESOLUTION=4.000
##XUNITS=1/CM
##YUNITS=ABSORBANCE
##FIRSTX=649.893372
##LASTX=4000.122314
##FIRSTY=0.100108
##MAXX=4000.122314
##MINX=649.893372
##MAXY=0.269571
##MINY=-0.005726
##XFACTOR=1.000000
##YFACTOR=1.000000E-009
##NPOINTS=6950
##DELTAX=0.482117
##ZPD=6100
##XYDATA=(X++(Y..Y))
649.893 100108256 99315944 98563272 97885248 97307184 96839200 96478040 
653.268 96209456 96016648 95888288 95822472 95827584 95916800 96099768 
656.643 96376592 96735392 97154944 97608672 98074288 98539240 99005360 
660.018 99486312 100000000 100562696 101179040 101841080 102530472 103227648 
663.393 103920040 104605328 105288528 105972048 106640632 107256712 
666.285 107755512 108062008 108134384 108012336 107833320 107752240 
669.178 107861864 108145512 108511744 108839768 109027712 109023368 
672.071 108829040 108500688 108116912 107748544 107422760 107117016 
674.963 106775976 106348680 105817032 105206880 104573584 103970936 
677.856 103425416 102920928 102411120 101843592 101193640 100474752 99735664 
681.231 99031664 98401984 97848640 97339520 96823704 96257760 95626224 
684.606 94944568 94248120 93571912 92935520 92335392 91752872 91167536 
687.981 90573032 89982880 89427648 88940624 88545872 88249880 88041448 
691.355 87899440 87802864 87740408 87713560 87733024 87811824 87960704 
694.730 88183016 88475712 88832464 89247632 89719400 90249632 90842432 
698.105 91501032 92226184 93014408 93858672 94749304 95675912 96629536 
701.480 97602488 98589512 99585864 100585344 101577960 102547168 103470696 
704.855 104324856 105088976 105753240 106321976 106813520 107253864 
707.747 107665496 108061920 108443312 108802136 109131560 109435232 
710.640 109730624 110046536 110411256 110840648 111331040 111859536 
713.533 112390184 112884824 113314736 113662192 113919168 114082144 
716.425 114148680 114119760 114005968 113837648 113668344 113564272 
719.318 113597672 113823600 114262544 114896616 115671376 116512592 
722.211 117333728 118058352 118625104 118989440 119129344 119046480 
725.104 118770208 118355240 117877536 117422856 117062096 116842840 
727.996 116778536 116852072 117027000 117263880 117536248 117832296 
730.889 118153552 118504904 118885904 119287352 119695448 120098112 
733.782 120493544 120891664 121310296 121766344 122268536 122814704 
736.674 123394168 123994872 124607920 125230152 125861512 126499280 
739.567 127136128 127760960 128365112 128949312 129525336 130111920 
742.460 130721536 131350128 131967632 132524208 132957008 133212328 
745.352 133260784 133103056 132766872 132295624 131739304 131141336 
748.245 130539312 129967808 129456640 129031776 128710968 128496928 
751.138 128377272 128327352 128322184 128343912 128391472 128477920 
754.031 128625152 128850880 129159288 129537032 129956456 130384104 
756.923 130785656 131134168 131409768 131596744 131684512 131668272 
759.816 131553592 131358968 131115664 130862144 130631688 130445568 
762.709 130308360 130211488 130141736 130090728 130061936 130068464 
765.601 130127920 130252000 130443472 130694136 130990160 131315248 
768.494 131656024 132001776 132342440 132671472 132990536 133318664 
771.387 133696616 134183240 134840416 135701232 136742720 137863152 
774.279 138899120 139640800 139886416 139507504 138470352 136848416 
777.172 134782928 132446440 129982904 127472472 124933000 122329008 
780.065 119605664 116711952 113625600 110357688 106950152 103462832 99964752 
783.440 96528312 93216120 90081376 87165064 84490256 82066464 79890632 
786.815 77951784 76236056 74730584 73426840 72319568 71405720 70683096 
790.189 70148752 69800048 69636416 69661312 69881496 70305952 70941840 
793.564 71788480 72833080 74044488 75373616 76751416 78086448 79277224 
796.939 80211144 80775104 80879472 80465376 79524144 78100568 76291744 
800.314 74231648 72059728 69915440 67908192 66104428 64529112 63164428 
803.689 61962000 60854028 59775148 58677092 57538192 56369220 55206960 
807.063 54104464 53109072 52251476 51534412 50932520 50398324 49874368 
810.438 49311928 48675592 47951712 47144820 46272588 45358264 44423356 
813.813 43488076 42568880 41679160 40831076 40034096 39294504 38614720 
817.188 37993824 37428776 36916228 36454480 36043724 35685588 35381696 
820.563 35131620 34933464 34784140 34681056 34624428 34617572 34666844 
823.938 34780124 34963232 35218604 35542588 35924900 36347036 36783820 
827.312 37204988 37574204 37855704 38018524 38040040 37913404 37649108 
830.687 37275272 36831104 36363712 35921376 35543488 35259896 35085492 
834.062 35018000 35037936 35109168 35186372 35216736 35151452 34956624 
837.437 34616680 34140732 33557908 32913666 32257036 31631004 31069510 
840.812 30591070 30200634 29894238 29662518 29494712 29379972 29309496 
844.186 29275078 29270080 29289752 29331402 29394542 29480136 29588948 
847.561 29719958 29869678 30031628 30198468 30363916 30523668 30676902 
850.936 30825030 30971538 31120088 31274744 31439994 31620708 31822350 
854.311 32051086 32311462 32606748 32938510 33307054 33713792 34162276 
857.686 34658988 35213252 35835760 36536212 37323476 38205320 39188640 
861.060 40281128 41489624 42817576 44259548 45797216 47395888 49001172 
864.435 50548828 51970280 53200596 54194400 54930424 55418840 55699940 
867.810 55843896 55945116 56102764 56421284 56994528 57893352 59168148 
871.185 60839620 62898600 65300248 67963208 70772512 73566160 76154512 
874.560 78337176 79908432 80706312 80630552 79658224 77848592 75330264 
877.935 72284808 68904184 65382244 61893868 58570264 55509196 52769776 
881.309 50375364 48326480 46606296 45190424 44050212 43157528 42486988 
884.684 42012564 41709544 41553788 41520904 41590800 41749304 41990668 
888.059 42318212 42742400 43277876 43937796 44731256 45662332 46731508 
891.434 47937836 49283792 50775620 52425024 54246764 56254848 58460164 
894.809 60865080 63458292 66205024 69039880 71862168 74521816 76836872 
898.183 78613104 79658032 79832528 79071504 77400664 74931776 71847976 
901.558 68381792 64761364 61202564 57883432 54921100 52386892 50306084 
904.933 48669444 47445892 46592420 46064604 45817576 45813564 46024488 
908.308 46430264 47020996 47794996 48756620 49913064 51269824 52825488 
911.683 54565580 56456224 58436284 60424880 62318584 64003200 65378888 
915.058 66366976 66928460 67071660 66851624 66362768 65716356 65037108 
918.432 64436092 63993992 63758620 63734404 63887724 64150936 64440204 
921.807 64673104 64780212 64727096 64520812 64214044 63893640 63673400 
925.182 63680148 64024248 64795172 66042976 67768856 69919016 72380352 
928.557 74996080 77553136 79808552 81525240 82472712 82477200 81447936 
931.932 79386968 76399984 72676488 68481216 64094560 59782488 55778452 
935.306 52241648 49266532 46889720 45100680 43862060 43124008 42838528 
938.681 42957140 43428936 44196924 45182960 46286556 47394928 48380776 
942.056 49126932 49547432 49592816 49264384 48608736 47712044 46677124 
945.431 45606020 44590164 43691680 42945692 42363504 41939280 41657752 
948.806 41500448 41449524 41487800 41596816 41758604 41953112 42161068 
952.181 42367520 42562780 42744080 42915112 43083536 43258840 43448896 
955.555 43660244 43897136 44162516 44458444 44786424 45147112 45539376 
958.930 45961020 46408584 46878940 47370760 47884708 48422928 48988264 
962.305 49581896 50203044 50849036 51516132 52202152 52907708 53636080 
965.680 54392492 55181860 56007348 56868924 57764312 58689872 59642960 
969.055 60622256 61627936 62660412 63719900 64804792 65913720 67045560 
972.429 68201408 69384720 70600560 71855368 73154272 74502144 75903184 
975.804 77362176 78885984 80483800 82165176 83941232 85822552 87819568 
979.179 89944896 92212792 94640968 97249816 100059360 103087136 106346312 
982.554 109843512 113577488 117535376 121690088 125988368 130339992 
985.447 134620304 138656240 142239232 145162288 147224432 148275232 
988.339 148240688 147128096 145031872 142113216 138598400 134738464 
991.232 130781800 126970664 123496800 120499368 118067312 116234280 
994.125 114995656 114320528 114167424 114492320 115254768 116422512 
997.017 117966480 119860776 122081976 124605712 127405912 130453440 
999.910 133705632 137099840 140551712 143941168 147126400 149960064 
1002.803 152294208 154015104 155055488 155403040 155104592 154261056 
1005.695 153024432 151568016 150082144 148756816 147747568 147180208 
1008.588 147138176 147659936 148752480 150400080 152578288 155260064 
1011.481 158421808 162045536 166112816 170605488 175505936 180794160 
1014.374 186447888 192435936 198697520 205129760 211568112 217763792 
1017.266 223419488 228202448 231789920 233951536 234579056 233730080 
1020.159 231615184 228593568 225123712 221668096 218688880 216567920 
1023.052 215559264 215807200 217327440 220035936 223762944 228293392 
1025.945 233398240 238828112 244348976 249738096 254772064 259255952 
1028.838 263024800 265959232 268007936 269186016 269571296 269275808 
1031.731 268434912 267185776 265643008 263903792 262032896 260054416 
1034.624 257949440 255652576 253067136 250071264 246552768 242433728 
1037.517 237680240 232313184 226397296 220031456 213327056 206401488 
1040.410 199377744 192368704 185482464 178816720 172444848 166421248 
1043.303 160780784 155541904 150719392 146330096 142394688 138940416 
1046.196 135994608 133577704 131702768 130371616 129576864 129303456 
1049.089 129530784 130234480 131382000 132935312 134850080 137074512 
1051.982 139559488 142258128 145126320 148124448 151206352 154308976 
1054.875 157352688 160230368 162814304 164978320 166597776 167572272 
1057.768 167840016 167379232 166217792 164430864 162148816 159542704 
1060.661 156806800 154158592 151798944 149897792 148594256 147975200 
1063.554 148084544 148925280 150465232 152639024 155346560 158466528 
1066.448 161846896 165315104 168705584 171854320 174622416 176909024 
1069.341 178640208 179770640 180276016 180145568 179381488 177998960 
1072.234 176028720 173514880 170513952 167098528 163353328 159380080 
1075.127 155306944 151273792 147435200 143952384 140964720 138592688 
1078.020 136925488 136010192 135855776 136425984 137642816 139374992 
1080.913 141440976 143631200 145698720 147405568 148562208 149043136 
1083.806 148825568 147988016 146705936 145211024 143757968 142607824 
1086.699 141974080 142017648 142835280 144446208 146795312 149750928 
1089.592 153130768 156698368 160188448 163355056 165966432 167841280 
1092.485 168866032 168984448 168202944 166577456 164209648 161228528 
1095.378 157771360 153981472 149981600 145868368 141717424 137579408 
1098.271 133490112 129478288 125566352 121772704 118110448 114585696 
1101.164 111200472 107956416 104859736 101927008 99186224 96673008 94430928 
1104.540 92503664 90928944 89740992 88966328 88623680 88726784 89282624 
1107.915 90291112 91743016 93619544 95891472 98515128 101437144 104590400 
1111.290 107888064 111231080 114499176 117552448 120252976 122463312 
1114.183 124067608 124990872 125197488 124697896 123538896 121800072 
1117.076 119581232 116987824 114132552 111117104 108024184 104919856 
1119.969 101845808 98825112 95870848 92992368 90201912 87519088 84967840 
1123.344 82576688 80375176 78388488 76640248 75152368 73942848 73030144 
1126.720 72430848 72156824 72215624 72607168 73323112 74345272 75645184 
1130.095 77185816 78914800 80768080 82670272 84531272 86262360 87784448 
1133.470 89037944 89999920 90686768 91155648 91489496 91789552 92159200 
1136.845 92679672 93406880 94357512 95507648 96790912 98106472 99337976 
1140.221 100354208 101034344 101283496 101031456 100242720 98911608 97056904 
1143.596 94716744 91945040 88813528 85403032 81803208 78110080 74410232 
1146.971 70782848 67295104 63995296 60919864 58092232 55524292 53220144 
1150.346 51176916 49386948 47838316 46516628 45407368 44495336 43767056 
1153.722 43211952 42821344 42588872 42509716 42579844 42795784 43154676 
1157.097 43654784 44295648 45078372 46004776 47076828 48295336 49659824 
1160.472 51167152 52811084 54580232 56458032 58417712 60421416 62422852 
1163.847 64362540 66175000 67795504 69157120 70201840 70883280 71166768 
1167.223 71036224 70493920 69561120 68273832 66678980 64831220 62783144 
1170.598 60586828 58292532 55943760 53582364 51246596 48967196 46771656 
1173.973 44681452 42711692 40874144 39176308 37622188 36213324 34948796 
1177.348 33825852 32840330 31987526 31263206 30662998 30183798 29822722 
1180.724 29577490 29445422 29423652 29508792 29697286 29985650 30370488 
1184.099 30849540 31420298 32079484 32822926 33642680 34527408 35463124 
1187.474 36431632 37412200 38383152 39319784 40197628 40994036 41688752 
1190.849 42268904 42731216 43083428 43343296 43536720 43695492 43850844 
1194.225 44032428 44265600 44568136 44951648 45420280 45970928 46592164 
1197.600 47263904 47959372 48640904 49263972 49779756 50133200 50271152 
1200.975 50148448 49730340 49002952 47975504 46683284 45180460 43535216 
1204.350 41823684 40114076 38466156 36926692 35524720 34276600 33187080 
1207.726 32252752 31465002 30811868 30281166 29859384 29534360 29295884 
1211.101 29135802 29049142 29033448 29088184 29213124 29407376 29668762 
1214.476 29993636 30376638 30811194 31289946 31803596 32341090 32890294 
1217.851 33437972 33970652 34477292 34947968 35375340 35754444 36082072 
1221.227 36357304 36581920 36761900 36907968 37034208 37160192 37307408 
1224.602 37497008 37750296 38084060 38510112 39034436 39655668 40364496 
1227.977 41142888 41966432 42803864 43619028 44377296 45044960 45593544 
1231.352 46003968 46266800 46385504 46376652 46271516 46113864 45953356 
1234.728 45846848 45848508 46005404 46358920 46939588 47768960 48861692 
1238.103 50225624 51862964 53768176 55927820 58317084 60896532 63616468 
1241.478 66411996 69204728 71911984 74440864 76697336 78599880 80079008 
1244.853 81091808 81625920 81699496 81357896 80663856 79697272 78542152 
1248.229 77280416 75991632 74738016 73559920 72471328 71456968 70476424 
1251.604 69470784 68381328 67158792 65776184 64236172 62570088 60834052 
1254.979 59093468 57420184 55878264 54513060 53351480 52395452 51625116 
1258.354 50998468 50459204 49944060 49385204 48723480 47914708 46931248 
1261.729 45767212 44435688 42967528 41402868 39789060 38175476 36604340 
1265.105 35111788 33724032 32456186 31315268 30300918 29408298 28629014 
1268.480 27953520 27371736 26873802 26450174 26092540 25792192 25542232 
1271.855 25336108 25168806 25036528 24936644 24866990 24825732 24810470 
1275.230 24818576 24847238 24893730 24955664 25030350 25114212 25202374 
1278.606 25288516 25365436 25426140 25465420 25479966 25468654 25430638 
1281.981 25365050 25269726 25141946 24979738 24784054 24560056 24318304 
1285.356 24072306 23837998 23631458 23466176 23353680 23304136 23326372 
1288.731 23430258 23625790 23922612 24328360 24847238 25477788 26211836 
1292.107 27032840 27916348 28826228 29717438 30540340 31240880 31773150 
1295.482 32105702 32226164 32145378 31894408 31520970 31077232 30615140 
1298.857 30180566 29805830 29512550 29311410 29203380 29181940 29234142 
1302.232 29342888 29486840 29643006 29790890 29911206 29990086 30018348 
1305.608 29991470 29909324 29775274 29596146 29381212 29142004 28892020 
1308.983 28644340 28411622 28204980 28033354 27903840 27822440 27793826 
1312.358 27822158 27910518 28060498 28272730 28546842 28882212 29278694 
1315.733 29736670 30256582 30838868 31483098 32188586 32954596 33780648 
1319.109 34666772 35611924 36612628 37660128 38738340 39824104 40885936 
1322.484 41884396 42779220 43529248 44100124 44473056 44649836 44658356 
1325.859 44548092 44389772 44261016 44229244 44347060 44637900 45095940 
1329.234 45688320 46367328 47081888 47784680 48444192 49045240 49588916 
1332.610 50089540 50571612 51066404 51605340 52218216 52928144 53746800 
1335.985 54672176 55687512 56765372 57867380 58950292 59972000 60889440 
1339.360 61665056 62269592 62683300 62899128 62921844 62765948 62450744 
1342.735 61996360 61422624 60745060 59976108 59125624 58200000 57203996 
1346.111 56141524 55016688 53836472 52612324 51360700 50105088 48875116 
1349.486 47702684 46624628 45678636 44899724 44322548 43976292 43882768 
1352.861 44057184 44505284 45223184 46194232 47388240 48758664 50238308 
1356.236 51749324 53202580 54504872 55575316 56345076 56766580 56820392 
1359.612 56514488 55887532 54999992 53938876 52807380 51709572 50750224 
1362.987 50011648 49540820 49346408 49398348 49639432 49991352 50372868 
1366.362 50705460 50917428 50958340 50800572 50444056 49913436 49251356 
1369.737 48509540 47734192 46966060 46236580 45567896 44980200 44493908 
1373.113 44129504 43908428 43846040 43946920 44201764 44589648 45084288 
1376.488 45658576 46291720 46970416 47687116 48440004 49231500 50067716 
1379.863 50957372 51910084 52931400 54016164 55140628 56256732 57298920 
1383.238 58182956 58820520 59135760 59066208 58578532 57677380 56419056 
1386.614 54913916 53308284 51768772 50431180 49376256 48627152 48157492 
1389.989 47913600 47829064 47841976 47895472 47936840 47921000 47805840 
1393.364 47556560 47154756 46602164 45923968 45157408 44341152 43500824 
1396.739 42644576 41770352 40876508 39972804 39087948 38264516 37546028 
1400.115 36965436 36533512 36242140 36071232 35999592 36010820 36095572 
1403.490 36250928 36477004 36772968 37135104 37556648 38029228 38544868 
1406.865 39097192 39681588 40294576 40932648 41592404 42270876 42965772 
1410.240 43676184 44402292 45143472 45896932 46655432 47406568 48135428 
1413.615 48827212 49470412 50061172 50603256 51106544 51583996 52049312 
1416.991 52516176 52998028 53511560 54075420 54703744 55402200 56160300 
1420.366 56952780 57745424 58504296 59202476 59820400 60350552 60797692 
1423.741 61177004 61510340 61819904 62122652 62425604 62727020 63019252 
1427.116 63293352 63541016 63756280 63935944 64079196 64187920 64266868 
1430.492 64324768 64374724 64432212 64514316 64634880 64801716 65015600 
1433.867 65271640 65563508 65887848 66250868 66671444 67180800 67809064 
1437.242 68573320 69469080 70468504 71526968 72586216 73584216 74449128 
1440.617 75105800 75490376 75549320 75249720 74580936 73550736 72183816 
1443.993 70516760 68601136 66494816 64254492 61939304 59604836 57308864 
1447.368 55121256 53116372 51363496 49912988 48782832 47963184 47428336 
1450.743 47153052 47119996 47319620 47741848 48364036 49142736 50020720 
1454.118 50921120 51758280 52448200 52910700 53097728 53017380 52750616 
1457.494 52418516 52127724 51939620 51864008 51884396 51981448 52143080 
1460.869 52364720 52642992 52969164 53323796 53676236 53993844 54248644 
1464.244 54432228 54559944 54668160 54797860 54975584 55207824 55479376 
1467.619 55762552 56022084 56221736 56325648 56290036 56064424 55590268 
1470.995 54810304 53693032 52258876 50595584 48833104 47101828 45489332 
1474.370 44025864 42703684 41505552 40425660 39477604 38686792 38073536 
1477.745 37643360 37381936 37263576 37260652 37355396 37544652 37837984 
1481.120 38251240 38798696 39488528 40322172 41298420 42418008 43686956 
1484.496 45114396 46705384 48454936 50336852 52295236 54249996 56089416 
1487.871 57679044 58881264 59559304 59608596 58986916 57730892 55957180 
1491.246 53825820 51506428 49129976 46771100 44463620 42207988 39996096 
1494.621 37834300 35749660 33793116 32028578 30509558 29262886 28282526 
1497.997 27542888 27010204 26655490 26458486 26404010 26478206 26666094 
1501.372 26949876 27310406 27729330 28183342 28643774 29072028 29408228 
1504.747 29573764 29476484 29031678 28205934 27050154 25690342 24265288 
1508.122 22869480 21536288 20258206 19017174 17804706 16626285 15503452 
1511.498 14463632 13527703 12707178 12000355 11396985 10883525 10447031 
1514.873 10076387 9760817 9490650 9258120 9058971 8894745 8770375 8689542 
1518.730 8650433 8642930 8649622 8652833 8641747 8621231 8611665 8638941 
1522.588 8719967 8853758 9025376 9213579 9402167 9584097 9764883 9958627 
1526.445 10181899 10444486 10746424 11080012 11436104 11809102 12199222 
1529.820 12611249 13050916 13520763 14020002 14544278 15089016 15651682 
1533.196 16234338 16840888 17471916 18123346 18784818 19443554 20084626 
1536.571 20694356 21262282 21777858 22232522 22619730 22934726 23174522 
1539.946 23339064 23434630 23473206 23469812 23438686 23386548 23311444 
1543.321 23202868 23049456 22844160 22592678 22311762 22024614 21749220 
1546.697 21489772 21235350 20964492 20655890 20297194 19893700 19466876 
1550.072 19047360 18658966 18308550 17984942 17667232 17336306 16984476 
1553.447 16620468 16266672 15948499 15680296 15458472 15260749 15052414 
1556.822 14790421 14429240 13934697 13301474 12575128 11845263 11206168 
1560.198 10708929 10352313 10103381 9920827 9768882 9618344 9450927 9259846 
1564.055 9051020 8840603 8649013 8492917 8377106 8294219 8227927 8161207 
1567.912 8080894 7983686 7876750 7775034 7694691 7645790 7630447 7644374 
1571.770 7680964 7733376 7795105 7859003 7915418 7953482 7964349 7945957 
1575.627 7908365 7873342 7866999 7906476 7994419 8121100 8271963 8434839 
1579.485 8602878 8775885 8957925 9154389 9368580 9600390 9846457 10101617 
1583.342 10359948 10615409 10861340 11089699 11290871 11456072 11578867 
1586.717 11658333 11700335 11717899 11728418 11751089 11805323 11906386 
1590.093 12066134 12292027 12586452 12945079 13354057 13790678 14221715 
1593.468 14607532 14911522 15102121 15161853 15089222 14899314 14619526 
1596.843 14281325 13917864 13555938 13214841 12907530 12640688 12416149 
1600.218 12231734 12082657 11962956 11867634 11794394 11744621 11722767 
1603.594 11733558 11779754 11859939 11968610 12096285 12231052 12361259 
1606.969 12473704 12555244 12593479 12575981 12493892 12343635 12128890 
1610.344 11861777 11561240 11251935 10956713 10692866 10469602 10286419 
1613.719 10135499 10004940 9882285 9757123 9624273 9486993 9356460 9249286 
1617.577 9179736 9155945 9176994 9234902 9316782 9408194 9496509 9571936 
1621.434 9631013 9677089 9720086 9772677 9845136 9942558 10062618 10199334 
1625.292 10345526 10496180 10648176 10799581 10949645 11097381 11243536 
1628.667 11390352 11543614 11710173 11895830 12103576 12331464 12573525 
1632.042 12819850 13060066 13285280 13488566 13667018 13822010 13960872 
1635.417 14095398 14240580 14411258 14615413 14854944 15125141 15417376 
1638.792 15720421 16022649 16316311 16597472 16868170 17134384 17403106 
1642.168 17677860 17955966 18227894 18480318 18699436 18875026 19004020 
1645.543 19092680 19156670 19215922 19290148 19394872 19537746 19719432 
1648.918 19935256 20176352 20427898 20666974 20864808 20983860 20989876 
1652.293 20872632 20671594 20473430 20360596 20367716 20471902 20625694 
1655.669 20782460 20911744 20999684 21043814 21049520 21023748 20971028 
1659.044 20890816 20777906 20625138 20426300 20178644 19883502 19547176 
1662.419 19180806 18799072 18418400 18053774 17715238 17404932 17116288 
1665.794 16834206 16537922 16203383 15808724 15340582 14798306 14196893 
1669.170 13563664 12932278 12331464 11780470 11286007 10844659 10445233 
1672.545 10070689 9701010 9315022 8897180 8445954 7979468 7533677 7146108 
1676.402 6842016 6623246 6473594 6368205 6285398 6213967 6154109 6115463 
1680.260 6109381 6141709 6208220 6295382 6384243 6459603 6516644 6568479 
1684.117 6641986 6766523 6957385 7209808 7509100 7839772 8192203 8561006 
1687.975 8942569 9332964 9725067 10110402 10482059 10836200 11173665 
1691.350 11497579 11810805 12112230 12395828 12649523 12859883 13015304 
1694.725 13114088 13168970 13206849 13257541 13335641 13434703 13527395 
1698.100 13577612 13544657 13396735 13125938 12763955 12377452 12033464 
1701.476 11767839 11572878 11416170 11257885 11065498 10818332 10508434 
1704.851 10141197 9733301 9307168 8882266 8470887 8076979 7698165 7328476 
1708.708 6961324 6591320 6215547 5834189 5450850 5071369 4701731 4345628 
1712.566 4003928 3674593 3354155 3040094 2732027 2431776 2141722 1862409 
1716.423 1592322 1328318 1071052 827648 610492 432183 299668 210385 154034 
1720.763 115156 78932 34957 -20343 -83390 -145964 -199388 -238698 -264892 
1725.102 -283468 -300653 -321016 -345847 -374087 -404510 -437248 -474088 
1728.960 -517113 -566851 -620819 -675144 -726882 -778349 -838144 -921341 
1732.817 -1042767 -1209727 -1410971 -1618131 -1796286 -1922120 -1994126 
1736.192 -2027140 -2042145 -2057909 -2087653 -2135861 -2199557 -2269704 
1739.568 -2336479 -2392830 -2436489 -2468745 -2492235 -2508147 -2516382 
1742.943 -2516613 -2509794 -2498494 -2486667 -2477146 -2470755 -2465615 
1746.318 -2458466 -2446473 -2429372 -2409800 -2392303 -2381758 -2380671 
1749.693 -2388711 -2402815 -2418038 -2430855 -2438071 -2438796 -2433096 
1753.069 -2421333 -2404594 -2385152 -2366698 -2353747 -2351012 -2360602 
1756.444 -2380605 -2405121 -2426374 -2438367 -2440147 -2435501 -2431284 
1759.819 -2435435 -2452601 -2482450 -2519611 -2555681 -2582757 -2596459 
1763.194 -2597480 -2589410 -2576696 -2562599 -2548995 -2536971 -2527286 
1766.570 -2521192 -2519874 -2522839 -2527748 -2530943 -2529131 -2521686 
1769.945 -2511935 -2506796 -2513945 -2538816 -2580451 -2630580 -2676619 
1773.320 -2708461 -2721797 -2719393 -2708725 -2697167 -2688671 -2683435 
1776.695 -2678430 -2670494 -2658935 -2646519 -2638846 -2641382 -2656300 
1780.071 -2681196 -2708988 -2731379 -2743462 -2744911 -2740730 -2737503 
1783.446 -2741059 -2753175 -2771448 -2790082 -2803810 -2809604 -2808123 
1786.821 -2801539 -2792782 -2783366 -2773358 -2762460 -2751496 -2743923 
1790.196 -2744812 -2759398 -2790214 -2834525 -2884097 -2929188 -2961341 
1793.572 -2977466 -2980461 -2976347 -2971049 -2968647 -2970490 -2975623 
1796.947 -2982994 -2991814 -3002870 -3017414 -3036136 -3058444 -3082297 
1800.322 -3105030 -3124802 -3141381 -3156216 -3170821 -3185426 -3198878 
1803.697 -3208679 -3212659 -3210028 -3202167 -3192300 -3183715 -3178748 
1807.073 -3177663 -3178880 -3180590 -3181676 -3182334 -3183880 -3187662 
1810.448 -3193385 -3198812 -3201082 -3197957 -3189372 -3178255 -3169275 
1813.823 -3166052 -3170361 -3180327 -3191116 -3196872 -3193287 -3178979 
1817.198 -3156216 -3129440 -3103188 -3080619 -3062195 -3046731 -3032550 
1820.573 -3018467 -3004581 -2992011 -2982040 -2975887 -2974241 -2977565 
1823.949 -2986121 -2999547 -3016756 -3034853 -3050647 -3060353 -3062096 
1827.324 -3056339 -3046830 -3039229 -3039229 -3050383 -3072065 -3099273 
1830.699 -3124571 -3141513 -3147006 -3141677 -3128782 -3112169 -3094733 
1834.074 -3077264 -3059596 -3040874 -3021297 -3001685 -2983225 -2966014 
1837.450 -2948210 -2926193 -2896275 -2855691 -2804732 -2746920 -2687189 
1840.825 -2631436 -2584009 -2547512 -2522180 -2506730 -2498264 -2492433 
1844.200 -2484361 -2468613 -2440970 -2399256 -2345047 -2282460 -2218281 
1847.575 -2159731 -2112384 -2078387 -2056359 -2042970 -2033901 -2027832 
1850.951 -2025986 -2032615 -2051643 -2084851 -2129728 -2180831 -2231368 
1854.326 -2276033 -2313211 -2345179 -2376651 -2411349 -2450954 -2494179 
1857.701 -2538355 -2580748 -2620963 -2660845 -2702699 -2748599 -2797589 
1861.076 -2846540 -2891042 -2927904 -2956503 -2978387 -2996486 -3013367 
1864.452 -3029391 -3043145 -3052654 -3057128 -3058181 -3059826 -3066472 
1867.827 -3080553 -3100589 -3121380 -3136315 -3140657 -3133387 -3118123 
1871.202 -3100556 -3085489 -3075717 -3070289 -3067196 -3063741 -3058971 
1874.577 -3053970 -3051305 -3053147 -3060451 -3071934 -3085587 -3099569 
1877.953 -3113649 -3129078 -3147796 -3170525 -3196313 -3222427 -3245317 
1881.328 -3262945 -3275409 -3285372 -3296093 -3310298 -3328153 -3347980 
1884.703 -3366228 -3380135 -3388847 -3393548 -3396540 -3400189 -3405647 
1888.078 -3412057 -3418435 -3423366 -3426949 -3429711 -3432439 -3434806 
1891.454 -3435233 -3431585 -3422577 -3409033 -3394173 -3382272 -3377011 
1894.829 -3379674 -3388518 -3399104 -3406501 -3407849 -3403017 -3394436 
1898.204 -3385329 -3378031 -3373230 -3369121 -3363696 -3355641 -3345579 
1901.579 -3335091 -3326114 -3319111 -3313093 -3305497 -3294448 -3279519 
1904.955 -3262188 -3245910 -3233774 -3227032 -3224828 -3224565 -3223809 
1908.330 -3221178 -3217856 -3215718 -3217033 -3222098 -3230025 -3238148 
1911.705 -3245087 -3250974 -3257683 -3267943 -3283136 -3303360 -3325555 
1915.080 -3346960 -3365833 -3382666 -3401176 -3425207 -3456830 -3495255 
1918.456 -3535583 -3572588 -3602886 -3627268 -3650268 -3677735 -3713480 
1921.831 -3756842 -3802072 -3840598 -3865065 -3872323 -3865393 -3851009 
1925.206 -3837018 -3828184 -3825293 -3825819 -3826180 -3825096 -3824177 
1928.581 -3827264 -3837478 -3855935 -3879547 -3902929 -3920890 -3931201 
1931.957 -3935896 -3939771 -3947421 -3961474 -3979959 -3999428 -4015973 
1935.332 -4028941 -4041415 -4059306 -4087568 -4126954 -4173557 -4219696 
1938.707 -4256970 -4280922 -4291880 -4294669 -4296506 -4301591 -4310285 
1942.082 -4318814 -4320848 -4312614 -4292930 -4265403 -4234954 -4206374 
1945.458 -4181466 -4160988 -4144218 -4132239 -4126692 -4130959 -4146449 
1948.833 -4171818 -4203158 -4234068 -4259071 -4275836 -4285187 -4290567 
1952.208 -4295522 -4301591 -4307693 -4312647 -4315075 -4317470 -4324457 
1955.583 -4341418 -4372056 -4415221 -4464974 -4513968 -4554627 -4583939 
1958.958 -4603249 -4616724 -4628460 -4639377 -4647572 -4648949 -4641770 
1962.334 -4628984 -4616265 -4611544 -4620330 -4642851 -4674452 -4707853 
1965.709 -4736106 -4756687 -4771206 -4783856 -4797521 -4812366 -4825112 
1969.084 -4832649 -4834025 -4833566 -4838973 -4857814 -4893625 -4943159 
1972.459 -4997307 -5045356 -5078695 -5094905 -5095659 -5084361 -5060912 
1975.835 -5019743 -4952430 -4852670 -4723618 -4579742 -4444116 -4339942 
1979.210 -4283087 -4274524 -4304183 -4352702 -4400855 -4435654 -4452775 
1982.585 -4455332 -4449561 -4441492 -4433720 -4426373 -4419452 -4413680 
1985.960 -4411384 -4414762 -4424503 -4436081 -4443198 -4439557 -4422896 
1989.336 -4396296 -4367398 -4345715 -4337514 -4342533 -4354998 -4365660 
1992.711 -4366939 -4356015 -4335677 -4311892 -4290830 -4275082 -4263402 
1996.086 -4252475 -4240433 -4227768 -4218547 -4218547 -4231542 -4257594 
1999.461 -4293488 -4332134 -4368316 -4399182 -4425914 -4451561 -4478715 
2002.837 -4506950 -4534003 -4555447 -4568267 -4572923 -4571021 -4566332 
2006.212 -4560529 -4553709 -4544069 -4531740 -4519903 -4515443 -4525182 
2009.587 -4553971 -4598856 -4650784 -4696053 -4721619 -4720963 -4695824 
2012.962 -4655800 -4612691 -4575808 -4549676 -4532756 -4520919 -4511869 
2016.338 -4506884 -4509869 -4524625 -4551118 -4583021 -4610331 -4623346 
2019.713 -4616888 -4593217 -4560955 -4531380 -4511967 -4505442 -4507671 
2023.088 -4512984 -4516328 -4517050 -4518460 -4525346 -4539118 -4557873 
2026.463 -4574660 -4582300 -4577349 -4561972 -4543315 -4529936 -4528363 
2029.839 -4538364 -4554856 -4569710 -4576168 -4570562 -4553873 -4529084 
2033.214 -4497932 -4461236 -4417320 -4365955 -4309629 -4254411 -4207292 
2036.589 -4174017 -4154293 -4143167 -4131812 -4112218 -4080346 -4038165 
2039.964 -3992927 -3953331 -3925914 -3912484 -3909923 -3913042 -3916227 
2043.340 -3915669 -3909923 -3898068 -3879350 -3851567 -3812419 -3760554 
2046.715 -3698138 -3629732 -3561874 -3499528 -3445950 -3401932 -3366326 
2050.090 -3339168 -3321938 -3316908 -3325424 -3346040 -3373428 -3398217 
2053.465 -3411137 -3405680 -3380562 -3341108 -3296454 -3257157 -3230321 
2056.841 -3218777 -3220881 -3232952 -3249922 -3268207 -3285142 -3298197 
2060.216 -3304478 -3300992 -3285208 -3257091 -3220158 -3179965 -3143421 
2063.591 -3114702 -3094865 -3081277 -3069335 -3055022 -3036400 -3014716 
2066.966 -2992603 -2972530 -2955516 -2940674 -2927049 -2915036 -2907334 
2070.342 -2908322 -2921783 -2948177 -2984113 -3021889 -3052950 -3070947 
2073.717 -3074237 -3066176 -3052785 -3040512 -3032089 -3026068 -3018500 
2077.092 -3005338 -2984212 -2957326 -2929254 -2904602 -2886565 -2875045 
2080.467 -2866915 -2858686 -2848350 -2835940 -2824155 -2815234 -2810954 
2083.843 -2810493 -2811251 -2810428 -2806411 -2799827 -2793309 -2789556 
2087.218 -2790642 -2796601 -2806675 -2819711 -2835545 -2855592 -2882287 
2090.593 -2916846 -2958873 -3004482 -3048080 -3083284 -3105326 -3112268 
2093.968 -3104964 -3087100 -3063379 -3038867 -3018039 -3004680 -3000599 
2097.344 -3006523 -3020705 -3039262 -3056240 -3065946 -3064366 -3050548 
2100.719 -3026890 -2998559 -2971148 -2948375 -2931097 -2917636 -2905425 
2104.094 -2892227 -2877547 -2862866 -2849371 -2837191 -2824847 -2809341 
2107.469 -2788206 -2761143 -2731181 -2703851 -2684720 -2677146 -2681295 
2110.844 -2693709 -2708593 -2721040 -2728580 -2731412 -2732136 -2732696 
2114.220 -2734210 -2735626 -2734803 -2730226 -2721896 -2711557 -2701777 
2117.595 -2694631 -2689955 -2686037 -2680702 -2672371 -2661800 -2651887 
2120.970 -2646355 -2647409 -2655115 -2667003 -2679154 -2688111 -2693182 
2124.345 -2695718 -2699373 -2708165 -2724234 -2748105 -2778856 -2815432 
2127.721 -2857962 -2908091 -2966672 -3034557 -3109175 -3186347 -3260117 
2131.096 -3325851 -3380727 -3425470 -3462320 -3493349 -3519446 -3540053 
2134.471 -3553560 -3560363 -3563189 -3568119 -3581724 -3609261 -3650630 
2137.846 -3701719 -3755134 -3802926 -3839777 -3864342 -3879120 -3888775 
2141.222 -3897149 -3906179 -3917016 -3928804 -3941938 -3957928 -3977989 
2144.597 -4003039 -4032486 -4064328 -4095478 -4123705 -4149042 -4172737 
2147.972 -4197054 -4223305 -4251032 -4279478 -4307332 -4335874 -4368743 
2151.347 -4411843 -4470878 -4549840 -4649211 -4767502 -4901914 -5048729 
2154.723 -5204498 -5363156 -5513545 -5638568 -5716566 -5726115 -5653351 
2158.098 -5501047 -5289873 -5052888 -4825506 -4635836 -4495375 -4401216 
2161.473 -4340958 -4301263 -4272720 -4250408 -4234987 -4226324 -4222879 
2164.848 -4220057 -4213133 -4199056 -4179629 -4159971 -4146351 -4143364 
2168.224 -4151307 -4166436 -4182582 -4194954 -4201812 -4204733 -4207259 
2171.599 -4212378 -4220647 -4230131 -4237448 -4240073 -4237382 -4230885 
2174.974 -4223765 -4218121 -4215135 -4214478 -4216907 -4223469 -4237513 
2178.349 -4261696 -4295883 -4335250 -4370777 -4391900 -4389014 -4358738 
2181.725 -4304872 -4237546 -4169324 -4110117 -4065674 -4035506 -4015514 
2185.100 -4000576 -3986788 -3971947 -3955794 -3936848 -3913371 -3883291 
2188.475 -3845098 -3800430 -3753557 -3710096 -3675337 -3651517 -3637224 
2191.850 -3627531 -3616490 -3600685 -3578963 -3553757 -3528221 -3504721 
2195.226 -3483390 -3462123 -3437830 -3409066 -3376650 -3344133 -3316250 
2198.601 -3296717 -3287115 -3287115 -3293626 -3303393 -3313455 -3321379 
2201.976 -3325391 -3324207 -3316381 -3301354 -3279552 -3253408 -3225946 
2205.351 -3200260 -3178123 -3159210 -3141151 -3121380 -3098813 -3074401 
2208.727 -3050482 -3030642 -3016493 -3007049 -2999020 -2987865 -2970292 
2212.102 -2945643 -2916385 -2887026 -2861714 -2843347 -2832813 -2828599 
2215.477 -2829587 -2835677 -2846737 -2864084 -2886928 -2912798 -2937119 
2218.852 -2955253 -2963809 -2963085 -2956043 -2948474 -2945479 -2950547 
2222.228 -2963809 -2982994 -3005042 -3027154 -3047258 -3064399 -3077428 
2225.603 -3084863 -3084501 -3074895 -3056141 -3031102 -3004680 -2982633 
2228.978 -2968976 -2965487 -2970424 -2980987 -2993788 -3006720 -3019290 
2232.353 -3032287 -3045514 -3057326 -3064663 -3063840 -3052654 -3030740 
2235.729 -3000599 -2966047 -2931393 -2898842 -2868857 -2841240 -2815366 
2239.104 -2792091 -2772732 -2759299 -2752155 -2749883 -2748401 -2743002 
2242.479 -2729732 -2706980 -2675960 -2640394 -2604232 -2571459 -2544053 
2245.854 -2523169 -2508740 -2500866 -2499087 -2502579 -2509267 -2516317 
2249.229 -2519908 -2517206 -2507159 -2491148 -2472468 -2454743 -2440147 
2252.605 -2427989 -2415632 -2399058 -2375926 -2346267 -2313475 -2282888 
2255.980 -2260178 -2248938 -2250125 -2261365 -2279164 -2299138 -2318155 
2259.355 -2333875 -2345607 -2353484 -2357142 -2357142 -2354473 -2350452 
2262.730 -2346530 -2344058 -2343037 -2342608 -2341224 -2337039 -2329492 
2266.106 -2318814 -2307246 -2296204 -2287140 -2280153 -2274055 -2268056 
2269.481 -2261464 -2254805 -2249663 -2247290 -2248641 -2252861 -2258629 
2272.856 -2263705 -2266968 -2267990 -2267727 -2266309 -2264298 -2260013 
2276.231 -2251674 -2237401 -2216073 -2188315 -2156368 -2122903 -2090160 
2279.607 -2059624 -2031163 -2004284 -1978162 -1951973 -1925781 -1899654 
2282.982 -1873460 -1846901 -1819945 -1793086 -1768040 -1747052 -1732201 
2286.357 -1724511 -1723686 -1727151 -1731277 -1732861 -1729990 -1722399 
2289.732 -1711772 -1700386 -1690055 -1681309 -1673519 -1665267 -1655266 
2293.108 -1642723 -1627671 -1611000 -1593041 -1574059 -1554217 -1533416 
2296.483 -1511955 -1490525 -1470382 -1452153 -1435906 -1420978 -1406810 
2299.858 -1393004 -1380156 -1369983 -1364236 -1364071 -1369059 -1377679 
2303.233 -1386828 -1393962 -1397727 -1398553 -1398289 -1399379 -1403705 
2306.609 -1411533 -1421870 -1432999 -1443369 -1452219 -1460013 -1467113 
2309.984 -1474245 -1481114 -1486430 -1489105 -1488213 -1484515 -1479331 
2313.359 -1475005 -1472792 -1472892 -1474345 -1475104 -1473321 -1468202 
2316.734 -1460145 -1450766 -1441883 -1435113 -1430985 -1428640 -1426262 
2320.110 -1421870 -1413646 -1400303 -1382039 -1360239 -1338406 -1321064 
2323.485 -1313367 -1320139 -1344252 -1385837 -1441949 -1507167 -1575082 
2326.860 -1639620 -1696359 -1743652 -1781965 -1813511 -1840006 -1862375 
2330.235 -1880586 -1893782 -1901337 -1903712 -1901964 -1898104 -1892694 
2333.611 -1886195 -1877584 -1865773 -1849904 -1830305 -1808462 -1786123 
2336.986 -1765103 -1746161 -1728802 -1712498 -1696722 -1681408 -1667314 
2340.361 -1655299 -1645463 -1637045 -1628496 -1617998 -1604200 -1586802 
2343.736 -1565772 -1541142 -1512054 -1476359 -1431612 -1375433 -1307189 
2347.112 -1228263 -1142514 -1054204 -968156 -889201 -820683 -765648 -726121 
2350.969 -702998 -696283 -704057 -723376 -749639 -778118 -804808 -827628 
2354.826 -846147 -861557 -875710 -889764 -903453 -915092 -922333 -923358 
2358.684 -917671 -906098 -890689 -873958 -857953 -843270 -830141 -817905 
2362.541 -805999 -794324 -782285 -769320 -754336 -736441 -714444 -688344 
2366.399 -658668 -626973 -594713 -563443 -533660 -505397 -478920 -453997 
2370.256 -431290 -411230 -394016 -378457 -362964 -344622 -320552 -288468 
2374.114 -247440 -197500 -140167 -77195 -10702 57822 127187 196728 266578 
2378.453 337070 409464 485187 565601 651871 743965 840694 940201 1039597 
2382.793 1136259 1228058 1313495 1392035 1463674 1528575 1586668 1637918 
2386.650 1682088 1718878 1748186 1769811 1783817 1790139 1789008 1781122 
2390.508 1767781 1750482 1731253 1711660 1692600 1673806 1654315 1632896 
2394.365 1608651 1581514 1552317 1522790 1494860 1470124 1449745 1434286 
2398.222 1424247 1420058 1421753 1430164 1445090 1466500 1493563 1525583 
2402.080 1561761 1601966 1646066 1694329 1746656 1802782 1861943 1923409 
2405.937 1986981 2052692 2121311 2193902 2271203 2353581 2440539 2531581 
2409.795 2625742 2722658 2821696 2922458 3024078 3125421 3224785 3320565 
2413.652 3411124 3495789 3573923 3645255 3708979 3764256 3809512 3843709 
2417.510 3866240 3877673 3879679 3874531 3864669 3852367 3838360 3823351 
2421.367 3807340 3790326 3772445 3753527 3734177 3714225 3693673 3673290 
2425.224 3654109 3638138 3627880 3626243 3635465 3656816 3690265 3734812 
2429.082 3788889 3850762 3918896 3992592 4070915 4153468 4239951 4330401 
2432.939 4424986 4524715 4630528 4743435 4863943 4991892 5126619 5266820 
2436.797 5411293 5559507 5711128 5867067 6028237 6195918 6371500 6555696 
2440.654 6749124 6951863 7163017 7381790 7606607 7836162 8069451 8306377 
2444.511 8547455 8793670 9046013 9304731 9568617 9836188 10104772 10371893 
2448.369 10636020 10896367 11153641 11408243 11661600 11914152 12165759 
2451.744 12415740 12662418 12903844 13137618 13360959 13571458 13766122 
2455.119 13942943 14100019 14236094 14349951 14440270 14505358 14543148 
2458.495 14551097 14526874 14468702 14375980 14249173 14089751 13900416 
2461.870 13684218 13444203 13183554 12905482 12612035 12305627 11988024 
2465.245 11661022 11326817 10987738 10647837 10311968 9985547 9674548 
2468.620 9383985 9117505 8876145 8659356 8464941 8290402 8133624 7993811 
2472.478 7870913 7765387 7677221 7605056 7546084 7497065 7454322 7415156 
2476.335 7377914 7342865 7310279 7281268 7256335 7234705 7215266 7196097 
2480.193 7175245 7151430 7123776 7092486 7058842 7024392 6990651 6959473 
2484.050 6931730 6907557 6886315 6866353 6846291 6824412 6799977 6772648 
2487.907 6743336 6713251 6684279 6658170 6636670 6620925 6611371 6607333 
2491.765 6607569 6609554 6610933 6609251 6602960 6591623 6575846 6557344 
2495.622 6537633 6518258 6499962 6482607 6465724 6448438 6429976 6409631 
2499.480 6386530 6359967 6329237 6294475 6255984 6215816 6175686 6138684 
2503.337 6106760 6081189 6061969 6048294 6038181 6030488 6023768 6017620 
2507.195 6011371 6004450 5996051 5984999 5970353 5952078 5930816 5908378 
2511.052 5886513 5866597 5848965 5833215 5818003 5802052 5784423 5764713 
2514.909 5743426 5721233 5698471 5675844 5653320 5630964 5608810 5587195 
2518.767 5565984 5545277 5524940 5504504 5484370 5465211 5448669 5436523 
2522.624 5430719 5432195 5440818 5455212 5473364 5492893 5512054 5529974 
2526.482 5546317 5561319 5575213 5588638 5601527 5614248 5627406 5641101 
2530.339 5655669 5670540 5684975 5698202 5709516 5719118 5728015 5738054 
2534.197 5751115 5768272 5789863 5815048 5842484 5870728 5898974 5927053 
2538.054 5955169 5984294 6014327 6045472 6076921 6107970 6138046 6166645 
2541.911 6193566 6219245 6243278 6266237 6288390 6310511 6333540 6358252 
2545.769 6385219 6414137 6443763 6472585 6499154 6522362 6542073 6559127 
2549.626 6574366 6588797 6603128 6617056 6630648 6643668 6656353 6669071 
2553.484 6682429 6696561 6711199 6725769 6739230 6751009 6761206 6769518 
2557.341 6776148 6780658 6782341 6779951 6772783 6760734 6744917 6726779 
2561.198 6708305 6690740 6674286 6658035 6640169 6619445 6594987 6567167 
2565.056 6537398 6507395 6478739 6452440 6428832 6407916 6389523 6373719 
2568.913 6360572 6350250 6343055 6338718 6337339 6338852 6343391 6351326 
2572.771 6362959 6378057 6396348 6416255 6436365 6455332 6472282 6486878 
2576.628 6499760 6511498 6523035 6535345 6548868 6564375 6582372 6603801 
2580.486 6629201 6658977 6693634 6732600 6775643 6821921 6870494 6920081 
2584.343 6969439 7017084 7061603 7102355 7139405 7173830 7207383 7242353 
2588.200 7280358 7322444 7368444 7417110 7466996 7516989 7566313 7615070 
2592.058 7663596 7712431 7761913 7811973 7861871 7911167 7958916 8004780 
2595.915 8048388 8089704 8128561 8165023 8199800 8233635 8267708 8303541 
2599.773 8342111 8384470 8430852 8481294 8535425 8593010 8653780 8717194 
2603.630 8782445 8848956 8915511 8981670 9047164 9112598 9178957 9247560 
2607.488 9318915 9393330 9470162 9547989 9625831 9702805 9778540 9853338 
2611.345 9927370 10000227 10071401 10139738 10203947 10263349 10317499 
2614.720 10366565 10410885 10450765 10485963 10516581 10542313 10563293 
2618.095 10579930 10593273 10604002 10613203 10621623 10629501 10637820 
2621.471 10647701 10660062 10676022 10696432 10721053 10749073 10778963 
2624.846 10809500 10839937 10870717 10902755 10937786 10977339 11022232 
2628.221 11072228 11126377 11183762 11242719 11302875 11363651 11425150 
2631.596 11487474 11550589 11614803 11679878 11746256 11813835 11883195 
2634.972 11954305 12027333 12102111 12178776 12256886 12336817 12418228 
2638.347 12500542 12583485 12665898 12746654 12825310 12901079 12974710 
2641.722 13046818 13118801 13191444 13265193 13339911 13415155 13490138 
2645.097 13564450 13637749 13710548 13783222 13856457 13930420 14005766 
2648.473 14082598 14160948 14241195 14323684 14408723 14496519 14586869 
2651.848 14679431 14773761 14869380 14965500 15062087 15158765 15255190 
2655.223 15351670 15448034 15544591 15641617 15739661 15838997 15940042 
2658.598 16043035 16148219 16255526 16364615 16474834 16585354 16695043 
2661.974 16802450 16906374 17006012 17101088 17192086 17280204 17366756 
2665.349 17453082 17540462 17628788 17718310 17808400 17898890 17989534 
2668.724 18080890 18173440 18268186 18365510 18465518 18567766 18671556 
2672.099 18775614 18878692 18979824 19078208 19173394 19265382 19354096 
2675.475 19439986 19523504 19605094 19685210 19763954 19841396 19917636 
2678.850 19992500 20066616 20140638 20215922 20294034 20376744 20465476 
2682.225 20561524 20665862 20778740 20900410 21030738 21169560 21316778 
2685.600 21471878 21634418 21804090 21980242 22162394 22350204 22543292 
2688.976 22741532 22944542 23152260 23364064 23579504 23797956 24019004 
2692.351 24242478 24468660 24698118 24931556 25169648 25412790 25661236 
2695.726 25914924 26173474 26437006 26705380 26979210 27258612 27543876 
2699.101 27834628 28130170 28429274 28730848 29033802 29337464 29641622 
2702.477 29946350 30251538 30556976 30861884 31164656 31463542 31756290 
2705.852 32041062 32315708 32578136 32826752 33059738 33275214 33471864 
2709.227 33648300 33803500 33937296 34049696 34141376 34213216 34266240 
2712.602 34301524 34319524 34320632 34304464 34270576 34218056 34146648 
2715.978 34055612 33944852 33814676 33665380 33497740 33312920 33112444 
2719.353 32897976 32672006 32437016 32196012 31952038 31708132 31467352 
2722.728 31232690 31006516 30790920 30587622 30397780 30221876 30060636 
2726.103 29914544 29784326 29670678 29574688 29496874 29437160 29395288 
2729.479 29369972 29359764 29363272 29379084 29406278 29444180 29491946 
2732.854 29549114 29614804 29687778 29767044 29851506 29940526 30033580 
2736.229 30130524 30231218 30335774 30444052 30555698 30670288 30787112 
2739.604 30905464 31023814 31140768 31254660 31363950 31467568 31565114 
2742.979 31657342 31745416 31831048 31915806 32000758 32086760 32173388 
2746.355 32260530 32347906 32435156 32522284 32609746 32697298 32785046 
2749.730 32872636 32959600 33045720 33131216 33216442 33302114 33389270 
2753.105 33478770 33571832 33668924 33770876 33878436 33991828 34111592 
2756.480 34237632 34369692 34506996 34648832 34793688 34940360 35087292 
2759.856 35232656 35374688 35511448 35640768 35760704 35869516 35965324 
2763.231 36046892 36112780 36161756 36192868 36205328 36199208 36175152 
2766.606 36134312 36078720 36010604 35932280 35846520 35755524 35661668 
2769.981 35567116 35474124 35384396 35299500 35220724 35148576 35083516 
2773.357 35025616 34974796 34930624 34892740 34860464 34832892 34809092 
2776.732 34787944 34768276 34748712 34727248 34701836 34670112 34629344 
2780.107 34577388 34512340 34433460 34341144 34236840 34122808 34001572 
2783.482 33876216 33749028 33622348 33498060 33377536 33261548 33150706 
2786.858 33044544 32942586 32843794 32747210 32652180 32558314 32465718 
2790.233 32374788 32285728 32198724 32113838 32030720 31949076 31868950 
2793.608 31790226 31713658 31639524 31568714 31501092 31436824 31374990 
2796.983 31314946 31255194 31194488 31131228 31064348 30992924 30916564 
2800.359 30835560 30749732 30659798 30565972 30468432 30367220 30262018 
2803.734 30153146 30041036 29926434 29810338 29694058 29578412 29464180 
2807.109 29351858 29241868 29134280 29029588 28928534 28831220 28738212 
2810.484 28650074 28566978 28488992 28416928 28350958 28291436 28238960 
2813.860 28193348 28154776 28122780 28097472 28079056 28068274 28065800 
2817.235 28072976 28090720 28119812 28160714 28213890 28279518 28357998 
2820.610 28449438 28553990 28671310 28800806 28941212 29091018 29248922 
2823.985 29413334 29583306 29757960 29936302 30117384 30299712 30481086 
2827.361 30659548 30832394 30997266 31151982 31294648 31424288 31539746 
2830.736 31640914 31728056 31801600 31862568 31911988 31950970 31981140 
2834.111 32003932 32021302 32035782 32049946 32066106 32086618 32113374 
2837.486 32147304 32189336 32240260 32301146 32373824 32460724 32564816 
2840.862 32689474 32837686 33013080 33219234 33460234 33741508 34069840 
2844.237 34452544 34897732 35412652 36001572 36664472 37394796 38178332 
2847.612 38991196 39802024 40573148 41261108 41824964 42228624 42444240 
2850.987 42458012 42269928 41894652 41356980 40691616 39938476 39135988 
2854.363 38322020 37529732 36783280 36101476 35495196 34968116 34519444 
2857.738 34143924 33834232 33581392 33376106 33209682 33073824 32961424 
2861.113 32866954 32786548 32717772 32660112 32613746 32579492 32558564 
2864.488 32552100 32561350 32587744 32633140 32699730 32789622 32904624 
2867.864 33045508 33211756 33401366 33610964 33835736 34070268 34308944 
2871.239 34545348 34773336 34987224 35182024 35354596 35504044 35631888 
2874.614 35742032 35840112 35932712 36025872 36124952 36234108 36355752 
2877.989 36491308 36641648 36806904 36986976 37181776 37390676 37613228 
2881.365 37848796 38096504 38355140 38623304 38897980 39175296 39450172 
2884.740 39716584 39967904 40197992 40402312 40578280 40725896 40848220 
2888.115 40951144 41042032 41130172 41225072 41335700 41470992 41639736 
2891.490 41850684 42114920 42445736 42858900 43374268 44013176 44797040 
2894.865 45746076 46873444 48182112 49659228 51273444 52971112 54673568 
2898.241 56289396 57715000 58846776 59603164 59927876 59802980 59249412 
2901.616 58324664 57112232 55702204 54189740 52658108 51171436 49779864 
2904.991 48516028 47398216 46436308 45632852 44985712 44489720 44138492 
2908.366 43925072 43843180 43888084 44056192 44344380 44749328 45265580 
2911.742 45884376 46594156 47377928 48214356 49080000 49946180 50782584 
2915.117 51560344 52250992 52832036 53288728 53614488 53811608 53889212 
2918.492 53861752 53744216 53550240 53290452 52970476 52592688 52156864 
2921.867 51662812 51112432 50511980 49871472 49206040 48534292 47874788 
2925.243 47246472 46665392 46142900 45687180 45301548 44985896 44736984 
2928.618 44549484 44416200 44328124 44275800 44248944 44236288 44227300 
2931.993 44211300 44177592 44117072 44021504 43883904 43700328 43469144 
2935.368 43191600 42871332 42514068 42126640 41716072 41290076 40856704 
2938.744 40423876 40000780 39596388 39218956 38875584 38570976 38306820 
2942.119 38081640 37891276 37729444 37587972 37457816 37328712 37189720 
2945.494 37030456 36841132 36614756 36348044 36042576 35705192 35346044 
2948.869 34978388 34615960 34270112 33949404 33658720 33398468 33166334 
2952.245 32958136 32768968 32593388 32427304 32266918 32109450 31952858 
2955.620 31795430 31635922 31473410 31307466 31138064 30965950 30792200 
2958.995 30618482 30446718 30278432 30115040 29957638 29806860 29663298 
2962.370 29527764 29401492 29286030 29182826 29093958 29020910 28964730 
2965.746 28926302 28905690 28902822 28916880 28946772 28991188 29048362 
2969.121 29116952 29195830 29284508 29383338 29493222 29615726 29752032 
2972.496 29903290 30069336 30248696 30437654 30630214 30817702 30988226 
2975.871 31128168 31223612 31260784 31229808 31125534 30948766 30706274 
2979.247 30409864 30075266 29718858 29356714 29003798 28671204 28367442 
2982.622 28097506 27863244 27663184 27493256 27347704 27219310 27101184 
2985.997 26987848 26875564 26763136 26651296 26542376 26438660 26341550 
2989.372 26250272 26161756 26070444 25968914 25849862 25706794 25536432 
2992.748 25338742 25118460 24883832 24644634 24411454 24193394 23995964 
2996.123 23821756 23669910 23537492 23420606 23315640 23220030 23131852 
2999.498 23050398 22975108 22905456 22841190 22782106 22727774 22678514 
3002.873 22634180 22594772 22559974 22529020 22501102 22475628 22452598 
3006.249 22431978 22414812 22401974 22394264 22391926 22394856 22402462 
3009.624 22413870 22428280 22444994 22463486 22483444 22504382 22526750 
3012.999 22550412 22575856 22603464 22633972 22667692 22704942 22745792 
3016.374 22790066 22837386 22887398 22939792 22994252 23050608 23108506 
3019.750 23167392 23226566 23285118 23341792 23395744 23445856 23491812 
3023.125 23533574 23571564 23607246 23642336 23678726 23718338 23762712 
3026.500 23812832 23868838 23930524 23996490 24064986 24133948 24201138 
3029.875 24264166 24321598 24372552 24417520 24457758 24495268 24532184 
3033.250 24570190 24610128 24652034 24695242 24738804 24782196 24825346 
3036.626 24868956 24913834 24961104 25011538 25065802 25124042 25186398 
3040.001 25252658 25322514 25395542 25470936 25547748 25625174 25702504 
3043.376 25779746 25857210 25935182 26014014 26093772 26173790 26253544 
3046.751 26332750 26411404 26490428 26570802 26653552 26739032 26826994 
3050.127 26916244 27005232 27093002 27178744 27262282 27343928 27423860 
3053.502 27501904 27577946 27651636 27723186 27793440 27864056 27936418 
3056.877 28012218 28091992 28175174 28261096 28348624 28436950 28525894 
3060.252 28615850 28707238 28800308 28894676 28989878 29085384 29180664 
3063.628 29275928 29371746 29469038 29568304 29669898 29773644 29879508 
3067.003 29986928 30095544 30205074 30314884 30424432 30533088 30639994 
3070.378 30745358 30849326 30952750 31056732 31161842 31268262 31375774 
3073.753 31483598 31591556 31699612 31808514 31919372 32032896 32149304 
3077.129 32268242 32388568 32509428 32629746 32749676 32869634 32990094 
3080.504 33111584 33233826 33356208 33478092 33599004 33719272 33839320 
3083.879 33960368 34082600 34206224 34330388 34454232 34576924 34698320 
3087.254 34818676 34939352 35061464 35185944 35313156 35442992 35574560 
3090.630 35707064 35839932 35972628 36104968 36237312 36369804 36503020 
3094.005 36637612 36774376 36913668 37056220 37201880 37350196 37500692 
3097.380 37652252 37804300 37956032 38107248 38257608 38406788 38554756 
3100.755 38701284 38846524 38990688 39134504 39278400 39423396 39569676 
3104.131 39717492 39866996 40017892 40170260 40324244 40479960 40637472 
3107.506 40796608 40957116 41118624 41280708 41442928 41605020 41766408 
3110.881 41926400 42083856 42237424 42386260 42529852 42668516 42803644 
3114.256 42936984 43070476 43205544 43342924 43482840 43624632 43767936 
3117.632 43912792 44059088 44207232 44357408 44509396 44662280 44814860 
3121.007 44965352 45112740 45255836 45394716 45529848 45662444 45793532 
3124.382 45924668 46056720 46190768 46327256 46466624 46608912 46754016 
3127.757 46901532 47050684 47201072 47351728 47502184 47651988 47801212 
3131.133 47950456 48100412 48251720 48405484 48562048 48721220 48882496 
3134.508 49044720 49206744 49367940 49527936 49687204 49846720 50007596 
3137.883 50170760 50336740 50505244 50675412 50845720 51014864 51181428 
3141.258 51345444 51506764 51666612 51826636 51988096 52152120 52319272 
3144.634 52489032 52660536 52832412 53003680 53173816 53342748 53510812 
3148.009 53678748 53846972 54015940 54185576 54356028 54527224 54699728 
3151.384 54873760 55049900 55228104 55408376 55590040 55772460 55955368 
3154.759 56138168 56320292 56501392 56680380 56856196 57027852 57195112 
3158.135 57358316 57519200 57679880 57842588 58008952 58179392 58352972 
3161.510 58527988 58702200 58874172 59043168 59209272 59373120 59535552 
3164.885 59697244 59858580 60019364 60179904 60340160 60500400 60660740 
3168.260 60820712 60979912 61137376 61291920 61442968 61590096 61733188 
3171.635 61872740 62008816 62141916 62272380 62400704 62527648 62653712 
3175.011 62779464 62905184 63030280 63154688 63277872 63400240 63522032 
3178.386 63644356 63767440 63891068 64014032 64134612 64250692 64361348 
3181.761 64466416 64567364 64666256 64765328 64865804 64968264 65071864 
3185.136 65175532 65278224 65379628 65479664 65579152 65678700 65778540 
3188.512 65878516 65977940 66075996 66172028 66265188 66355280 66441916 
3191.887 66525520 66606396 66685432 66763440 66841268 66919112 66996576 
3195.262 67072088 67144944 67213792 67279008 67341688 67404016 67468104 
3198.637 67535224 67605136 67676576 67747712 67816920 67883272 67947320 
3202.013 68010128 68072448 68134656 68195792 68254448 68309160 68359264 
3205.388 68405072 68448128 68489904 68531416 68572848 68613792 68653448 
3208.763 68691560 68728592 68765696 68804056 68844200 68885784 68927408 
3212.138 68967376 69004616 69039224 69072280 69105688 69141544 69180208 
3215.514 69221392 69263176 69303128 69339192 69370064 69395952 69418304 
3218.889 69439064 69460600 69485064 69513600 69546968 69584800 69626384 
3222.264 69670456 69715888 69761992 69808528 69855768 69904184 69954240 
3225.639 70005784 70058072 70109504 70158768 70204600 70246544 70285192 
3229.015 70321656 70357104 70392880 70429816 70468624 70510208 70555656 
3232.390 70606376 70663680 70727440 70796848 70870216 70944960 71018664 
3235.765 71090240 71159320 71227008 71294512 71363000 71432552 71502672 
3239.140 71572448 71641136 71708664 71775656 71842616 71910416 71978424 
3242.516 72045728 72111168 72174120 72235112 72295736 72358512 72425712 
3245.891 72499400 72579552 72665136 72754720 72846360 72938928 73032296 
3249.266 73126664 73222152 73318528 73414408 73507680 73595952 73676936 
3252.641 73749808 73814880 73873480 73928000 73981040 74034704 74089880 
3256.017 74146944 74205032 74263136 74320184 74375544 74428752 74480272 
3259.392 74530072 74578624 74625992 74672184 74717360 74761000 74803312 
3262.767 74843744 74881416 74915048 74942920 74963552 74976272 74981464 
3266.142 74980880 74976664 74971896 74968512 74967648 74968904 74970912 
3269.518 74971784 74969384 74962128 74948944 74929096 74902600 74869648 
3272.893 74831104 74788600 74743960 74699456 74656720 74616592 74578736 
3276.268 74541680 74503480 74462144 74416840 74367608 74315584 74262272 
3279.643 74209472 74158536 74110392 74065200 74023392 73984656 73948704 
3283.019 73914880 73882440 73850112 73816768 73782096 73746352 73710424 
3286.394 73675912 73643768 73614720 73588608 73564360 73540808 73517184 
3289.769 73492616 73467656 73443096 73419664 73398944 73381840 73369528 
3293.144 73363048 73362816 73369328 73381840 73399736 73421944 73447720 
3296.520 73476760 73509760 73547792 73591720 73641848 73697240 73756296 
3299.895 73816728 73877048 73937072 73997424 74060400 74128352 74203344 
3303.270 74286216 74376728 74473592 74575080 74679192 74784104 74888504 
3306.645 74991544 75093200 75194288 75297080 75404120 75518560 75642336 
3310.021 75776216 75918696 76067224 76218128 76368768 76517648 76665312 
3313.396 76813104 76962928 77115688 77271232 77427864 77583640 77736984 
3316.771 77887272 78034808 78180696 78325704 78470336 78614376 78756912 
3320.146 78897072 79034144 79167912 79298424 79425272 79548384 79667624 
3323.521 79783352 79896560 80008376 80119848 80231352 80341888 80449224 
3326.897 80550528 80643472 80726456 80799728 80864384 80922152 80974240 
3330.272 81021040 81061856 81095800 81121792 81139728 81148912 81149672 
3333.647 81140728 81121080 81089168 81044160 80986184 80916840 80838520 
3337.022 80753632 80663856 80569272 80468368 80359552 80240872 80111120 
3340.398 79970168 79818192 79656120 79484072 79302128 79110464 78909080 
3343.773 78698688 78479544 78251784 78015144 77768528 77511112 77242816 
3347.148 76964672 76679184 76390104 76100184 75811960 75526488 75243256 
3350.523 74961624 74680720 74400360 74121432 73845040 73571816 73301968 
3353.899 73035400 72771488 72510360 72252488 71998992 71751464 71511112 
3357.274 71278656 71054528 70838432 70630696 70431144 70240008 70056976 
3360.649 69880952 69710520 69543816 69379736 69218208 69060552 68908536 
3364.024 68764456 68629544 68503632 68385752 68274224 68168032 68067136 
3367.400 67972544 67885328 67806848 67736752 67674056 67615592 67558336 
3370.775 67498840 67434592 67363856 67285472 67198736 67103640 66999860 
3374.150 66887916 66767880 66639536 66501996 66353544 66191628 66013500 
3377.525 65816588 65599224 65360712 65101348 64821756 64522044 64202212 
3380.901 63861588 63499324 63115148 62709028 62281940 61835716 61372512 
3384.276 60894396 60404204 59904524 59398308 58888324 58377080 57866400 
3387.651 57357148 56849440 56342472 55835420 55327452 54817672 54306124 
3391.026 53793416 53280636 52770112 52264668 51766832 51279108 50802360 
3394.402 50335700 49876788 49422108 48968460 48514100 48059068 47605804 
3397.777 47158040 46718668 46289396 45869464 45456224 45045544 44634008 
3401.152 44219192 43800888 43380128 42959040 42539388 42122368 41708080 
3404.527 41296196 40886408 40478976 40074392 39673924 39277856 38886708 
3407.903 38499900 38117012 37737248 37360452 36986256 36615264 36247184 
3411.278 35882400 35520980 35163304 34810276 34463088 34123172 33792184 
3414.653 33470754 33159148 32856374 32561064 32271274 31985280 31701680 
3418.028 31419904 31139060 30859642 30581862 30306854 30035284 29768392 
3421.404 29507124 29252146 29003834 28761966 28526000 28295256 28068558 
3424.779 27845120 27623600 27403038 27182836 26962216 26741110 26520116 
3428.154 26300044 26081598 25866002 25653222 25443460 25236820 25032808 
3431.529 24831486 24633202 24438198 24246226 24057212 23869818 23683100 
3434.905 23496218 23308996 23122032 22936752 22754660 22577078 22404800 
3438.280 22237438 22074080 21912910 21752252 21590538 21426520 21259848 
3441.655 21090458 20919498 20748328 20578616 20411818 20248798 20089170 
3445.030 19931510 19774150 19615390 19454782 19293092 19132914 18977366 
3448.406 18829106 18689092 18556422 18428700 18302122 18173508 18041098 
3451.781 17904828 17766112 17627030 17489682 17355030 17223388 17093886 
3455.156 16966076 16838924 16712362 16586250 16460620 16335474 16210193 
3458.531 16084742 15958879 15833190 15708329 15585083 15464034 15344667 
3461.906 15226603 15108228 14989165 14869003 14748428 14628435 14510360 
3465.282 14395125 14283345 14174880 14069387 13966073 13864188 13763078 
3468.657 13662471 13561920 13461667 13362052 13263998 13168253 13075910 
3472.032 12986966 12901386 12818076 12735668 12652832 12568785 12483900 
3475.407 12398999 12315205 12234290 12156729 12082794 12011936 11943577 
3478.783 11876964 11811826 11747924 11685460 11624571 11565289 11507887 
3482.158 11452229 11398584 11346986 11297706 11250541 11205420 11161970 
3485.533 11119816 11079026 11039769 11002691 10968198 10936767 10908531 
3488.908 10883015 10859845 10838272 10817754 10797780 10777570 10756817 
3492.284 10735249 10712631 10690046 10669027 10651844 10641351 10640231 
3495.659 10649874 10670928 10702238 10742688 10790511 10844931 10905134 
3499.034 10971393 11043814 11122060 11204876 11290667 11377971 11465632 
3502.409 11554503 11645944 11742920 11847952 11962853 12088142 12222532 
3505.785 12364054 12510193 12658768 12809066 12961123 13116478 13277389 
3509.160 13446322 13624723 13813253 14011105 14216407 14426603 14639127 
3512.535 14852167 15064832 15276639 15488104 15699156 15909176 16117167 
3515.910 16321437 16520848 16714292 16901204 17081514 17254622 17419004 
3519.286 17572306 17711096 17831598 17931484 18008528 18062376 18093394 
3522.661 18102272 18089456 18055122 17998860 17919640 17817030 17689906 
3526.036 17538288 17361826 17161442 16938516 16695766 16436461 16164348 
3529.411 15882196 15592329 15295550 14992045 14681350 14364061 14040912 
3532.787 13713215 13382315 13049105 12713968 12376941 12038472 11699926 
3536.162 11363685 11033142 10711442 10400840 10102024 9814632 9536948 
3539.537 9267259 9004267 8747384 8496600 8251397 8011463 7775136 7541196 
3543.395 7307954 7075142 6842252 6610731 6381991 6158143 5941195 5733051 
3547.252 5535276 5349064 5174599 5011065 4856203 4707292 4560574 4413003 
3551.109 4262570 4109346 3954873 3802460 3655112 3515530 3384843 3262707 
3554.967 3147348 3036891 2928930 2822063 2715389 2608209 2500921 2393460 
3558.824 2285992 2178784 2072101 1966510 1862842 1762292 1665657 1574032 
3562.682 1487014 1403437 1320342 1234139 1140312 1035280 917621 788643 
3566.539 653397 519487 394838 285775 194672 120326 58386 3379 -49631 -104359 
3571.361 -162690 -225153 -291084 -359190 -428609 -498546 -568406 -637825 
3575.218 -706902 -775670 -844824 -914794 -985744 -1057707 -1129229 -1199252 
3579.076 -1265729 -1327043 -1382402 -1431579 -1475335 -1514596 -1550585 
3582.451 -1584293 -1616711 -1648995 -1683058 -1721376 -1766852 -1822485 
3585.826 -1889593 -1967904 -2053853 -2141598 -2223951 -2293963 -2347156 
3589.201 -2382615 -2402123 -2410591 -2413787 -2418104 -2428647 -2450163 
3592.577 -2484394 -2531503 -2588949 -2652250 -2716364 -2776024 -2827941 
3595.952 -2870009 -2903022 -2928365 -2948572 -2965948 -2982139 -2998099 
3599.327 -3014288 -3030543 -3046665 -3062294 -3077165 -3091213 -3103879 
3602.702 -3115360 -3125624 -3134934 -3144309 -3155230 -3169736 -3190030 
3606.078 -3218053 -3254526 -3298921 -3348769 -3399762 -3447495 -3488024 
3609.453 -3519807 -3544194 -3565260 -3587737 -3616129 -3652732 -3696626 
3612.828 -3744228 -3789624 -3827527 -3854195 -3869498 -3875738 -3878464 
3616.203 -3883455 -3895704 -3919117 -3954513 -3999690 -4049655 -4097874 
3619.579 -4137884 -4164861 -4176905 -4176117 -4166699 -4154031 -4142708 
3622.954 -4136144 -4134962 -4138015 -4142905 -4147401 -4151602 -4157969 
3626.329 -4171621 -4198793 -4244568 -4309170 -4386193 -4462056 -4521379 
3629.704 -4552594 -4553807 -4531314 -4496686 -4461433 -4434113 -4419518 
3633.080 -4418403 -4427652 -4443034 -4459957 -4475370 -4488455 -4499801 
3636.455 -4511147 -4523116 -4536101 -4548692 -4559315 -4567021 -4571152 
3639.830 -4572300 -4571840 -4570726 -4569710 -4568365 -4565808 -4560889 
3643.205 -4553053 -4542921 -4532724 -4526002 -4526887 -4539478 -4566627 
3646.581 -4608987 -4664979 -4730993 -4801519 -4871083 -4934445 -4986858 
3649.956 -5024525 -5044143 -5043783 -5023936 -4987676 -4940899 -4890840 
3653.331 -4845887 -4813119 -4797357 -4799913 -4817739 -4843757 -4869052 
3656.706 -4885893 -4890807 -4885172 -4873147 -4860500 -4851523 -4848246 
3660.082 -4850343 -4855880 -4861975 -4866267 -4867282 -4864268 -4857322 
3663.457 -4846051 -4830585 -4810629 -4786543 -4759768 -4732467 -4708148 
3666.832 -4690678 -4684449 -4692841 -4717129 -4754819 -4799159 -4838613 
3670.207 -4859321 -4850867 -4807712 -4733057 -4635181 -4526625 -4420502 
3673.583 -4328460 -4260777 -4224159 -4219761 -4242468 -4283645 -4334397 
3676.958 -4389473 -4448675 -4513443 -4585185 -4662717 -4742202 -4817445 
3680.333 -4882551 -4933692 -4970185 -4993998 -5007657 -5013946 -5013749 
3683.708 -5007198 -4994489 -4977620 -4960718 -4949809 -4951873 -4972085 
3687.083 -5012472 -5070147 -5136460 -5199947 -5249774 -5278777 -5285880 
3690.459 -5274718 -5250952 -5220409 -5187113 -5153749 -5121823 -5092253 
3693.834 -5066185 -5044700 -5028587 -5017942 -5011588 -5007231 -5002023 
3697.209 -4993736 -4981551 -4966974 -4953282 -4945321 -4947254 -4962159 
3700.584 -4989019 -5023936 -5060519 -5090386 -5107742 -5109904 -5097721 
3703.960 -5074830 -5046338 -5017123 -4990264 -4967695 -4950071 -4937164 
3707.335 -4929335 -4927042 -4931300 -4943421 -4963830 -4992000 -5025606 
3710.710 -5061272 -5094349 -5119760 -5133939 -5134201 -5120546 -5094840 
3714.085 -5060421 -5021937 -4983647 -4949351 -4922324 -4903945 -4894575 
3717.461 -4893854 -4900472 -4913282 -4931169 -4954232 -4981092 -5010474 
3720.836 -5039493 -5064449 -5081904 -5089076 -5085703 -5073161 -5055181 
3724.211 -5035956 -5019154 -5006412 -4997929 -4991476 -4984008 -4971659 
3727.586 -4952430 -4925600 -4893101 -4858239 -4825833 -4801191 -4788640 
3730.962 -4790803 -4807090 -4834418 -4866791 -4898637 -4926517 -4950235 
3734.337 -4971822 -4994195 -5018302 -5042342 -5062058 -5072178 -5069460 
3737.712 -5053707 -5027145 -4994130 -4958195 -4922324 -4888382 -4858338 
3741.087 -4835500 -4824949 -4834222 -4870920 -4939785 -5036971 -5146775 
3744.463 -5244536 -5304996 -5315830 -5282083 -5220343 -5150606 -5089633 
3747.838 -5049220 -5034351 -5043947 -5071523 -5108365 -5146316 -5180139 
3751.213 -5206790 -5224435 -5230459 -5221686 -5195691 -5153290 -5098442 
3754.588 -5038216 -4980732 -4933069 -4900308 -4884811 -4885303 -4898572 
3757.964 -4920031 -4945157 -4969824 -4990461 -5003465 -5005659 -4995276 
3761.339 -4972936 -4941980 -4908040 -4877735 -4857093 -4849327 -4854537 
3764.714 -4869052 -4886810 -4901029 -4907320 -4904600 -4895132 -4883009 
3768.089 -4872787 -4867905 -4869805 -4877538 -4888022 -4897753 -4903224 
3771.465 -4902176 -4893985 -4879798 -4861451 -4841889 -4823310 -4807352 
3774.840 -4794703 -4784970 -4777072 -4770616 -4765831 -4763570 -4765405 
3778.215 -4772222 -4783167 -4795620 -4805615 -4809350 -4805091 -4793162 
3781.590 -4776613 -4759014 -4743906 -4733090 -4726601 -4722963 -4719980 
3784.966 -4717129 -4714343 -4713425 -4716178 -4723585 -4735614 -4750297 
3788.341 -4765110 -4777957 -4787264 -4792704 -4793982 -4791164 -4783593 
3791.716 -4770747 -4752132 -4728797 -4703559 -4680746 -4665241 -4660816 
3795.091 -4669076 -4688022 -4712343 -4735057 -4750362 -4755409 -4752132 
3798.467 -4745938 -4744758 -4756950 -4787526 -4836679 -4897097 -4955739 
3801.842 -4996684 -5008509 -4988725 -4944273 -4887662 -4833206 -4794244 
3805.217 -4779399 -4790344 -4821934 -4861811 -4895197 -4909514 -4900374 
3808.592 -4870723 -4829405 -4785068 -4744889 -4711753 -4685531 -4663799 
3811.968 -4644753 -4628100 -4616363 -4614560 -4627214 -4657144 -4702051 
3815.343 -4754590 -4802174 -4832649 -4838777 -4821770 -4789165 -4752755 
3818.718 -4725716 -4718603 -4737810 -4782807 -4845395 -4910366 -4959702 
3822.093 -4981125 -4970742 -4934085 -4881994 -4827209 -4780677 -4749182 
3825.469 -4734696 -4734434 -4741939 -4749379 -4750493 -4742922 -4727781 
3828.844 -4709328 -4692644 -4682122 -4680123 -4686679 -4699232 -4713687 
3832.219 -4725814 -4731812 -4729780 -4719947 -4704674 -4688285 -4676386 
3835.594 -4675173 -4688481 -4718079 -4760784 -4810170 -4856405 -4890905 
3838.969 -4908564 -4908826 -4895754 -4874982 -4852342 -4831961 -4815020 
3842.345 -4801355 -4788968 -4776056 -4761309 -4744299 -4725421 -4705296 
3845.720 -4684745 -4664520 -4644950 -4625936 -4606856 -4587283 -4566529 
3849.095 -4544921 -4524198 -4508590 -4504884 -4522362 -4569644 -4652948 
3852.470 -4769469 -4905091 -5033434 -5127488 -5169432 -5157875 -5104467 
3855.846 -5026654 -4940506 -4857420 -4784150 -4723159 -4674616 -4636951 
3859.221 -4608528 -4588103 -4574627 -4567972 -4567644 -4573382 -4585480 
3862.596 -4603676 -4627936 -4657046 -4687826 -4715162 -4733713 -4739121 
3865.971 -4730534 -4711262 -4688547 -4671633 -4668552 -4684253 -4717817 
3869.347 -4762226 -4805156 -4833861 -4841430 -4827963 -4800437 -4767765 
3872.722 -4739186 -4719619 -4710246 -4707394 -4705493 -4699101 -4684712 
3876.097 -4662061 -4634099 -4605217 -4580267 -4563447 -4557315 -4562234 
3879.472 -4575840 -4593381 -4608692 -4616363 -4613445 -4600233 -4581283 
3882.848 -4563250 -4553250 -4557349 -4577808 -4612068 -4651670 -4685105 
3886.223 -4702215 -4696741 -4669896 -4628558 -4582824 -4542758 -4516263 
3889.598 -4508327 -4518985 -4544397 -4576529 -4606626 -4626559 -4631214 
3892.973 -4619805 -4593938 -4557775 -4516066 -4473731 -4435261 -4403840 
3896.349 -4381896 -4370383 -4368972 -4376517 -4390917 -4409613 -4431063 
3899.724 -4453660 -4476846 -4500982 -4526166 -4552791 -4580824 -4609151 
3903.099 -4636000 -4659144 -4675534 -4683401 -4681434 -4669830 -4650162 
3906.474 -4624461 -4595315 -4564627 -4534134 -4504589 -4476354 -4449659 
3909.850 -4424897 -4402462 -4383175 -4367824 -4357032 -4350832 -4348798 
3913.225 -4350242 -4354703 -4362182 -4373040 -4387735 -4406136 -4427455 
3916.600 -4449495 -4469271 -4483634 -4490324 -4488455 -4478617 -4462515 
3919.975 -4442411 -4420699 -4399084 -4378780 -4360936 -4346502 -4336497 
3923.351 -4331510 -4331871 -4336398 -4343419 -4350176 -4353817 -4352833 
3926.726 -4346535 -4336136 -4323572 -4311729 -4303166 -4300148 -4303953 
3930.101 -4315107 -4333053 -4356113 -4381732 -4406562 -4426602 -4438180 
3933.476 -4439361 -4429882 -4411384 -4387341 -4362215 -4339711 -4322850 
3936.852 -4312516 -4307923 -4307168 -4307824 -4307824 -4306414 -4303986 
3940.227 -4302149 -4302706 -4306971 -4315567 -4327607 -4341352 -4354342 
3943.602 -4363954 -4368611 -4367464 -4361034 -4350701 -4338170 -4325277 
3946.977 -4313172 -4302345 -4292766 -4283908 -4275607 -4267798 -4260974 
3950.353 -4256117 -4253558 -4253099 -4253919 -4254510 -4253099 -4248735 
3953.728 -4241385 -4231804 -4221927 -4213363 -4207391 -4204175 -4203256 
3957.103 -4203453 -4203781 -4203519 -4202993 -4202731 -4203519 -4206012 
3960.478 -4209819 -4214643 -4219105 -4221829 -4222157 -4219696 -4214577 
3963.854 -4207391 -4198859 -4189506 -4179727 -4169816 -4160036 -4150125 
3967.229 -4140345 -4130729 -4121408 -4112546 -4104538 -4097120 -4090423 
3970.604 -4084482 -4078902 -4073552 -4068497 -4063573 -4058485 -4053036 
3973.979 -4046701 -4038724 -4028842 -4017254 -4004845 -3993354 -3984884 
3977.354 -3981141 -3983012 -3990202 -4000379 -4011148 -4019815 -4024476 
3980.730 -4024739 -4021357 -4016269 -4010721 -4005961 -4001857 -3997687 
3984.105 -3992533 -3985803 -3977890 -3969781 -3963116 -3959077 -3958355 
3987.480 -3960916 -3965479 -3971225 -3976774 -3981534 -3985080 -3987346 
3990.855 -3988528 -3988790 -3988429 -3987838 -3987543 -3987838 -3988790 
3994.231 -3990104 -3991023 -3990925 -3989184 -3986000 -3982454 -3979630 
3997.606 -3979499 -3983078 -3990464 -4001135 -4013511 -4025921 -4037312 
##END=
