
##TITLE=Z189_3_e
##JCAMP-DX=5.01  $$ Nicolet v. 1
##DATATYPE=INFRARED SPECTRUM
##ORIGIN=UniL
##OWNER=Nicolet
##LONGDATE=2011/09/14
##TIME=17:10:31
##SPECTROMETER/DATA SYSTEM=Nicolet iS5
##DATA PROCESSING=
Ratio against background
%Transmittance->Absorbance
Truncated
ElementMultiply or ElementDivide
##COMMENTS=
Number of sample scans: 32
Collection length: 51.24 sec
Sample gain: 2.0
Background collected on: Mer Sep 14 16:54:19 2011 (GMT+02:00);
Number of background scans: 32
Background gain: 2.0
Sample spacing:  1.000
Number of scan points: 12415
Resolution points: 8192
Number of FFT points: 65536
Apodization: N-B fort;
Phase correction: Mertz;
Laser frequency: 15798.0 cm-1
Number of rejected sample scans: 0
Number of rejected background scans: 0
Bench serial number: ASB1000141;
##RESOLUTION=4.000
##XUNITS=1/CM
##YUNITS=ABSORBANCE
##FIRSTX=649.893372
##LASTX=4000.122314
##FIRSTY=0.099496
##MAXX=4000.122314
##MINX=649.893372
##MAXY=0.250882
##MINY=-0.003988
##XFACTOR=1.000000
##YFACTOR=1.000000E-009
##NPOINTS=6950
##DELTAX=0.482117
##ZPD=6100
##XYDATA=(X++(Y..Y))
649.893 99496272 98756016 98050824 97415272 96864376 96399880 96020736 
653.268 95730384 95538936 95457448 95487704 95614744 95807264 96030080 
656.643 96256272 96479192 96713864 96987056 97323224 97728576 98190208 
660.018 98680120 99173320 99657168 100140976 100648048 101206232 101832696 
663.393 102525272 103262024 104012064 104740384 105409264 105980080 
666.285 106408280 106647536 106675240 106522048 106286336 106084984 
669.178 106000376 106045128 106178560 106334288 106447320 106474664 
672.071 106396128 106218248 105964600 105660560 105319144 104937576 
674.963 104503480 104008488 103461696 102889352 102326352 101800360 
677.856 101319304 100867712 100414664 99927344 99387128 98793664 98162048 
681.231 97510152 96851000 96187544 95516768 94839520 94167488 93521312 
684.606 92927640 92405032 91955560 91563864 91202816 90844392 90468512 
687.981 90068776 89650392 89223776 88798288 88378968 87970648 87581392 
691.355 87226872 86929304 86709616 86581232 86544024 86585760 86686440 
694.730 86828176 87004072 87219344 87488736 87828416 88249792 88754504 
698.105 89336384 89984888 90690808 91448432 92252776 93096552 93965456 
701.480 94836592 95685536 96490776 97241312 97939464 98597616 99231408 
704.855 99850944 100457672 101044888 101602784 102123008 102602648 103042104 
708.229 103441848 103799168 104109240 104369264 104587160 104784152 
711.122 104997864 105270624 105638416 106119536 106706112 107363824 
714.015 108036088 108662064 109182600 109550344 109739576 109743552 
716.908 109578696 109281920 108912784 108548040 108267640 108150872 
719.800 108257184 108614536 109215696 110016528 110945440 111904120 
722.693 112788032 113497568 113944840 114076152 113879760 113394824 
725.586 112703616 111919992 111167688 110542360 110103872 109864672 
728.478 109799520 109861264 110000944 110184960 110395456 110627504 
731.371 110879952 111147656 111420880 111690328 111954672 112224152 
734.264 112517896 112856424 113250088 113692672 114162120 114630568 
737.156 115073648 115480528 115854816 116210376 116562416 116919336 
740.049 117282888 117651224 118025960 118415416 118832368 119284512 
742.942 119765904 120250048 120696152 121054560 121285680 121371464 
745.835 121318184 121151992 120906896 120617320 120308968 120000528 
748.727 119709280 119451560 119244792 119102144 119026256 119008256 
751.620 119029176 119069536 119116608 119171240 119245744 119358128 
754.513 119521760 119737744 119994408 120271776 120549920 120813328 
757.405 121054120 121267624 121447008 121581440 121656848 121662504 
760.298 121598976 121480624 121334520 121189480 121069448 120985952 
763.191 120939024 120922392 120931848 120970456 121049128 121182040 
766.083 121379968 121645888 121973840 122352056 122764800 123194840 
768.976 123624904 124035608 124411432 124748408 125066120 125411480 
771.869 125855176 126474368 127313736 128357496 129502344 130574760 
774.762 131348056 131601008 131189688 130073112 128330872 126120624 
777.654 123642256 121071728 118517704 116022328 113564184 111090912 
780.547 108544592 105888616 103115584 100246720 97323064 94395968 91523160 
783.922 88756536 86142544 83719272 81510296 79527456 77770464 76230768 
787.297 74895240 73751416 72790488 72007048 71398968 70964624 70702248 
790.671 70610112 70688088 70939736 71372640 71996368 72818856 73840216 
794.046 75047504 76409112 77875504 79377424 80824552 82119056 83153440 
797.421 83821776 84041296 83758928 82968864 81714536 80088928 78218256 
800.796 76233336 74264232 72412648 70738352 69261808 67962080 66789596 
804.171 65676652 64560480 63397132 62172580 60906900 59646720 58453948 
807.546 57381420 56459848 55686796 55028536 54426932 53815092 53139144 
810.920 52364088 51482032 50507660 49471156 48407336 47346928 46314908 
814.295 45327916 44395240 43522360 42711068 41961104 41271492 40640384 
817.670 40066908 39551380 39094800 38698892 38364440 38090244 37873596 
821.045 37710756 37598556 37536744 37528292 37578396 37693880 37880320 
824.420 38140344 38472784 38871960 39327984 39824792 40340316 40846112 
827.794 41304904 41677008 41924832 42018804 41946800 41717020 41359716 
831.169 40919504 40450788 40010592 39645752 39391576 39265956 39266356 
834.544 39368756 39529024 39691604 39790840 39765856 39573884 39194836 
837.919 38638840 37940884 37156436 36345448 35561396 34847396 34228164 
841.294 33713468 33302010 32986018 32755248 32599174 32508142 32473288 
844.669 32485858 32538958 32626786 32744958 32890078 33057984 33242482 
848.043 33435610 33627964 33810988 33979896 34133708 34276064 34413376 
851.418 34552884 34701012 34861792 35038400 35233228 35449212 35690660 
854.793 35962300 36269836 36618724 37014180 37461428 37965944 38533388 
858.168 39169672 39880248 40670620 41547300 42518452 43594664 44788296 
861.543 46109884 47562624 49136728 50804260 52518680 54212868 55811828 
864.917 57240020 58429080 59333160 59932820 60239964 60296644 60175564 
868.292 59974092 59795032 59747276 59929472 60415172 61256548 62474616 
871.667 64059912 65969488 68127904 70430672 72734896 74875832 76681440 
875.042 77976480 78623664 78538456 77701272 76161576 74026736 71448176 
878.417 68586240 65602852 62644832 59823248 57221536 54890832 52852096 
881.792 51105908 49637052 48423596 47439388 46659600 46063536 45631340 
885.166 45346272 45192516 45154832 45220428 45380664 45632152 45977960 
888.541 46426024 46986732 47669184 48478680 49416016 50478112 51660868 
891.916 52961792 54382088 55927256 57606436 59429272 61403996 63532732 
895.291 65805948 68193808 70638960 73053856 75309064 77251000 78719016 
898.666 79557296 79657984 78974128 77532616 75427856 72809920 69867056 
902.040 66785692 63744992 60898016 58351080 56174632 54399776 53025656 
905.415 52027688 51366968 51000776 50884868 50982148 51265612 51716736 
908.790 52326672 53093796 54022244 55118812 56390196 57838384 59454916 
912.165 61214696 63068212 64946176 66758612 68404368 69794992 70860776 
915.540 71567712 71922576 71972984 71798872 71493720 71160648 70890696 
918.914 70747360 70765456 70941024 71236528 71583224 71899664 72107336 
922.289 72144264 71985688 71650040 71203616 70745368 70398912 70295672 
925.664 70543728 71221776 72361400 73941944 75886256 78063880 80311912 
929.039 82427680 84196168 85420664 85920512 85568520 84305984 82148800 
932.414 79192560 75599272 71592016 67409440 63281320 59415784 55960420 
935.789 53010048 50610480 48764964 47452136 46637872 46285416 46355604 
939.163 46802320 47570092 48579460 49726140 50893100 51947092 52764948 
942.538 53254528 53359648 53075636 52443676 51546948 50488012 49371360 
945.913 48294264 47326012 46508776 45859776 45376068 45042680 44839104 
949.288 44745616 44742752 44812360 44938088 45102780 45290220 45487604 
952.663 45685304 45879180 46070020 46262452 46462604 46676604 46909800 
956.037 47165796 47447592 47757716 48097856 48468976 48870520 49299936 
959.412 49753932 50228672 50721472 51231796 51760972 52311084 52884316 
962.787 53481092 54100600 54740764 55400056 56077576 56774248 57491852 
966.162 58232016 58996140 59784692 60597836 61436324 62302096 63197188 
969.537 64123548 65081412 66068932 67082956 68120544 69180672 70265600 
972.912 71380376 72531816 73726800 74970128 76265440 77615648 79024608 
976.286 80498200 82044360 83671376 85387504 87199296 89112672 91134800 
979.661 93275632 95548112 97968480 100551840 103309768 106248080 109365368 
983.036 112653368 116095136 119664024 123315120 126974832 130543784 
985.929 133882728 136825216 139206000 140866272 141689360 141620624 
988.821 140671072 138920512 136500336 133593392 130402160 127127784 
991.714 123968680 121084640 118593840 116574728 115059912 114049264 
994.607 113519816 113439144 113771368 114482952 115546632 116936128 
997.500 118625624 120590728 122804240 125237360 127860280 130633488 
1000.392 133504256 136404752 139241360 141904432 144281184 146259360 
1003.285 147752544 148710848 149126272 149035744 148518496 147693776 
1006.178 146698880 145685856 144808176 144192272 143941408 144124208 
1009.070 144772512 145891920 147469120 149482912 151908464 154722080 
1011.963 157902272 161424800 165264304 169395792 173792928 178430080 
1014.856 183276880 188281872 193363840 198395632 203190784 207530656 
1017.748 211176608 213903680 215558272 216077200 215515744 214036368 
1020.641 211907792 209471728 207075760 205072320 203757888 203333552 
1023.534 203914768 205513472 208058960 211409488 215386128 219799824 
1026.427 224448288 229144432 233712400 237976576 241783520 245002624 
1029.320 247538480 249349184 250444464 250882176 250745392 250133360 
1032.213 249144896 247862464 246357136 244679584 242853856 240873584 
1035.106 238698384 236261232 233474448 230254672 226544672 222321584 
1037.999 217606320 212454384 206947760 201177392 195237200 189224512 
1040.892 183229184 177338480 171632992 166174400 161008400 156163120 
1043.785 151650080 147475344 143645552 140171744 137072800 134371280 
1046.678 132087944 130240112 128837424 127881928 127368984 127288368 
1049.571 127624168 128352016 129440024 130848304 132528216 134430976 
1052.464 136509328 138718448 141019088 143368992 145714256 147990016 
1055.357 150111072 151977056 153490240 154555136 155097152 155072784 
1058.250 154470912 153319760 151683632 149670208 147418640 145085232 
1061.144 142844432 140856640 139256720 138154256 137616752 137676848 
1064.037 138333328 139557168 141290624 143447552 145923536 148589648 
1066.930 151300352 153918320 156310016 158364976 160005552 161177904 
1069.823 161851808 162014448 161664256 160811344 159475920 157691888 
1072.716 155502848 152960144 150125632 147067088 143863216 140611664 
1075.609 137418608 134402480 131687016 129379008 127569048 126321208 
1078.502 125665072 125598432 126083464 127051416 128393424 129965168 
1081.395 131603392 133119448 134334624 135110320 135359680 135076400 
1084.288 134331056 133268848 132076040 130955216 130112592 129716832 
1087.181 129895672 130726456 132224816 134345744 136980048 139974480 
1090.074 143127904 146213296 149018528 151344352 153035136 153995360 
1092.967 154180048 153599008 152304608 150388128 147963040 145149232 
1095.860 142070576 138832064 135516224 132185864 128881496 125629616 
1098.753 122448904 119351592 116344632 113428816 110598520 107844272 
1101.646 105157440 102536512 99993080 97553536 95255184 93145784 91275256 
1105.022 89687456 88423392 87514912 86985128 86851160 87121944 87797624 
1108.397 88868288 90313304 92101160 94186592 96516768 99027496 101640296 
1111.772 104269672 106814960 109163128 111205872 112838464 113976072 
1114.665 114567448 114593040 114067536 113031336 111547360 109691760 
1117.558 107543792 105188560 102704088 100155536 97596472 95061672 92571568 
1120.934 90137888 87768392 85473016 83266808 81168568 79199880 77382288 
1124.309 75733256 74268640 73002744 71948736 71122240 70539448 70214968 
1127.684 70160320 70380368 70871384 71619528 72600976 73783032 75119984 
1131.059 76557048 78030248 79464224 80785600 81929432 82847584 83522512 
1134.435 83969536 84237512 84396000 84528936 84720624 85036624 85520584 
1137.810 86184088 87005816 87930928 88877360 89751992 90450552 90878008 
1141.185 90961056 90646512 89908544 88745192 87172680 85221568 82933568 
1144.560 80363544 77572952 74630432 71610576 68581352 65606052 62739536 
1147.936 60021912 57484100 55146836 53021124 51111872 49418392 47935692 
1151.311 46655396 45567120 44659712 43921444 43341680 42911492 42623228 
1154.686 42471348 42451512 42560332 42795784 43156468 43642440 44254592 
1158.061 44993724 45860440 46853732 47970436 49205224 50551252 51999188 
1161.437 53536444 55146988 56807028 58484312 60140324 61726964 63192784 
1164.812 64488256 65563740 66376516 66892824 67086472 66944236 66466280 
1168.187 65667368 64574516 63225052 61663868 59935024 58082916 56149328 
1171.562 54170300 52179620 50207804 48279784 46418576 44643668 42969468 
1174.938 41408372 39969172 38657168 37475008 36422880 35498720 34699324 
1178.313 34020992 33460088 33013654 32679972 32458256 32348156 32349550 
1181.688 32461294 32681010 33005070 33428956 33948256 34559268 35258852 
1185.063 36043332 36907860 37843372 38835836 39867176 40913388 41947384 
1188.438 42941888 43867996 44699596 45414796 45996824 46437492 46739184 
1191.814 46914856 46986732 46984372 46943136 46896180 46875472 46908360 
1195.189 47013316 47202032 47477564 47834540 48259716 48731604 49223520 
1198.564 49700764 50123792 50451128 50637020 50638288 50418528 49950828 
1201.939 49225488 48252568 47063832 45706428 44239112 42726460 41225948 
1205.315 39787208 38448276 37231952 36150088 35204696 34390960 33699792 
1208.690 33120132 32640964 32251536 31942658 31707988 31543132 31446334 
1212.065 31417698 31458090 31568360 31748232 31996262 32309644 32684508 
1215.440 33115662 33596428 34118472 34670684 35241280 35817196 36385692 
1218.816 36936464 37461068 37952928 38407440 38821416 39193136 39523584 
1222.191 39817532 40084168 40336460 40591412 40867588 41182264 41551748 
1225.566 41988220 42498940 43085808 43744336 44463548 45224544 46003672 
1228.941 46772132 47498120 48153012 48710584 49150604 49461616 49640884 
1232.317 49696824 49648792 49529308 49381120 49252096 49195988 49263008 
1235.692 49496072 49931612 50595472 51504416 52668428 54090428 55767296 
1239.067 57687260 59829904 62162792 64639992 67207560 69800160 72343680 
1242.442 74764352 76982864 78921992 80516784 81714256 82484208 82822240 
1245.818 82749560 82309000 81556792 80562448 79398024 78133128 76835800 
1249.193 75559416 74339296 73188304 72094424 71022872 69922912 68743536 
1252.568 67441672 65993868 64403236 62698536 60930992 59160176 57452480 
1255.943 55867032 54446424 53216140 52179208 51318000 50594764 49958708 
1259.319 49353020 48716996 47998708 47159740 46176544 45044700 43775816 
1262.694 42395724 40937744 39441316 37947612 36492572 35108160 33818900 
1266.069 32639570 31577804 30634054 29802670 29074792 28439852 27887834 
1269.444 27409498 26998004 26647632 26353308 26110204 25913694 25758896 
1272.820 25642360 25561244 25513944 25499220 25515456 25559768 25628372 
1276.195 25716144 25817158 25925546 26034522 26136842 26225140 26292196 
1279.570 26331340 26339156 26314020 26257170 26171080 26058376 25920128 
1282.945 25756258 25566058 25349946 25111054 24856710 24597610 24347564 
1286.321 24121934 23935110 23800336 23729570 23732476 23818328 23995928 
1289.696 24272120 24652420 25138964 25729610 26416368 27183752 28009462 
1293.071 28860150 29695122 30469606 31136034 31655024 32000758 32164752 
1296.446 32158080 32008604 31757358 31448082 31123898 30822968 30572976 
1299.822 30393410 30295128 30280206 30343484 30472556 30649984 30853666 
1303.197 31060112 31248712 31400886 31503442 31548082 31530664 31450930 
1306.572 31312276 31122080 30890808 30632276 30362600 30097178 29850050 
1309.947 29633250 29455102 29322222 29239954 29212842 29244844 29338706 
1313.323 29495210 29712862 29988666 30319324 30702184 31136248 31621310 
1316.698 32158010 32746282 33385192 34073604 34810668 35595996 36429544 
1320.073 37309432 38229816 39177540 40132752 41067164 41945048 42730372 
1323.448 43386936 43885848 44213140 44372820 44391496 44313848 44202060 
1326.823 44123856 44137976 44290404 44601328 45065100 45651512 46315608 
1330.199 47008924 47686008 48315816 48884092 49392516 49856308 50300764 
1333.574 50756664 51253716 51818684 52471044 53219432 54060784 54979532 
1336.949 55951260 56942920 57917012 58836912 59665388 60369896 60925924 
1340.324 61317940 61541764 61603424 61516180 61296228 60958824 60517464 
1343.700 59981736 59359028 58655324 57875596 57024376 56106156 55125620 
1347.075 54088816 53005216 51887456 50754092 49629144 48539108 47515528 
1350.450 46591352 45798136 45168180 44729712 44505540 44513764 44764272 
1353.825 45258372 45985732 46923164 48031200 49251872 50516484 51746488 
1357.201 52859392 53784680 54462648 54852480 54937832 54725880 54248908 
1360.576 53557808 52725104 51836904 50980360 50243480 49695636 49376516 
1363.951 49293924 49422588 49713732 50100476 50512388 50880324 51139716 
1367.326 51243428 51163908 50897348 50462588 49895704 49241556 48541852 
1370.702 47833136 47143968 46494204 45901904 45385480 44964984 44663020 
1374.077 44499300 44485280 44620496 44892340 45280656 45762572 46318220 
1377.452 46933608 47600112 48314968 49080560 49903920 50795360 51766272 
1380.827 52824216 53965140 55165908 56376916 57529072 58531704 59287088 
1384.203 59707812 59717736 59269656 58356232 57026188 55389856 53602268 
1387.578 51846124 50276624 48991604 48027608 47366104 46956940 46735752 
1390.953 46642040 46619720 46616880 46588552 46491072 46286780 45953024 
1394.328 45486428 44907332 44249932 43551440 42837432 42116236 41384424 
1397.704 40636600 39876548 39125580 38419676 37799200 37297804 36930548 
1401.079 36694108 36573016 36547752 36601276 36721620 36902920 37142724 
1404.454 37439504 37791064 38193672 38643044 39134680 39665032 40230960 
1407.829 40828856 41454264 42101596 42765548 43441460 44127340 44823636 
1411.205 45531796 46252020 46980272 47706716 48417376 49097176 49733052 
1414.580 50320036 50860804 51365360 51846980 52318560 52791288 53274008 
1417.955 53776652 54311568 54890792 55523352 56207516 56928532 57661188 
1421.330 58376056 59046584 59650944 60178684 60632088 61026280 61384840 
1424.706 61732884 62090384 62465360 62855012 63248628 63633040 63994564 
1428.081 64321844 64607000 64845988 65039576 65193244 65319316 65436096 
1431.456 65564276 65727116 65942920 66221460 66563056 66959732 67398840 
1434.831 67867632 68361040 68886712 69468184 70135200 70911648 71804464 
1438.207 72795224 73844144 74893432 75877968 76722200 77349032 77695248 
1441.582 77710984 77369184 76664760 75610120 74232352 72567928 70666024 
1444.957 68581160 66365704 64073704 61756072 59466888 57273892 55251884 
1448.332 53472804 51990636 50826348 49971572 49400092 49085192 49009112 
1451.708 49164148 49544980 50136360 50903348 51795012 52739132 53650888 
1455.083 54443868 55030344 55350220 55397348 55240260 54995592 54774216 
1458.458 54647792 54636632 54732272 54919784 55188860 55533292 55944592 
1461.833 56406908 56889588 57346936 57731008 57999520 58135940 58158256 
1465.208 58116320 58071968 58072308 58141628 58277256 58459636 58658964 
1468.584 58842524 58976060 59014700 58902744 58572960 57953096 56994416 
1471.959 55699380 54142412 52448836 50753464 49153276 47686636 46352176 
1475.334 45134836 44030452 43054452 42236512 41601300 41159060 40897844 
1478.709 40791404 40808944 40927696 41138444 41445296 41859912 42393896 
1482.085 43054708 43843696 44759608 45803364 46980052 48296560 49755752 
1485.460 51350072 53051188 54802972 56526904 58115980 59442532 60377704 
1488.835 60794568 60599588 59761268 58326104 56418452 54202132 51846944 
1492.210 49479736 47168900 44939516 42782328 40678700 38623664 36634728 
1495.586 34756392 33050798 31575378 30364166 29419894 28723202 28244440 
1498.961 27955888 27837772 27874904 28053146 28357254 28768234 29265154 
1502.336 29827158 30428236 31036624 31610336 32083336 32367218 32354940 
1505.711 31942550 31081576 29820770 28303426 26696466 25122568 23632470 
1509.087 22224778 20879690 19583014 18333746 17147584 16048295 15056118 
1512.462 14184192 13434156 12798487 12265339 11820849 11451276 11140655 
1515.837 10873672 10638601 10430604 10254562 10121457 10042273 10019655 
1519.212 10044985 10097378 10150999 10184273 10192143 10190243 10208764 
1522.588 10274103 10395274 10563972 10761063 10967722 11171727 11373005 
1525.963 11581556 11813120 12079727 12385089 12725773 13096023 13492393 
1529.338 13916633 14374472 14872465 15412946 15993392 16604977 17235488 
1532.713 17874546 18516276 19162694 19818956 20490798 21178606 21876912 
1536.089 22574180 23255264 23906332 24510026 25049164 25506634 25866002 
1539.464 26113336 26241576 26257840 26181640 26041382 25864630 25667950 
1542.839 25453122 25207288 24912886 24556376 24140464 23685620 23224852 
1546.214 22789264 22393078 22031028 21681122 21316604 20916786 20478988 
1549.590 20020326 19571576 19160824 18800630 18484776 18194790 17909972 
1552.965 17618818 17325754 17049224 16813438 16635409 16516615 16440419 
1556.340 16377002 16282804 16103687 15785908 15291603 14632239 13882729 
1559.715 13151961 12526290 12038540 11678278 11413278 11207459 11027873 
1563.091 10849755 10659552 10456738 10252865 10066620 9916251 9809786 
1566.466 9743501 9703211 9670415 9627761 9564586 9479745 9382732 9289532 
1570.323 9215846 9173712 9169312 9203324 9272912 9372271 9492174 9618344 
1574.181 9733402 9820021 9866421 9873878 9859371 9850830 9872794 9937302 
1578.038 10042849 10180203 10338570 10511048 10695752 10894431 11110060 
1581.413 11343958 11594113 11855954 12123780 12391669 12653821 12905004 
1584.789 13137823 13343943 13515158 13644588 13731033 13779528 13802855 
1588.164 13818556 13846980 13908387 14018942 14190491 14429617 14737047 
1591.539 15106272 15521377 15957331 16379032 16745145 17017796 17164992 
1594.914 17169714 17033062 16773624 16422972 16016942 15591642 15175646 
1598.290 14788673 14444106 14148864 13905787 13714447 13571321 13471066 
1601.665 13407808 13377873 13380299 13416898 13490684 13602979 13751347 
1605.040 13929087 14124766 14324301 14512929 14674495 14793403 14855837 
1608.415 14849322 14765224 14601021 14361732 14060967 13720568 13368511 
1611.791 13031248 12730072 12476432 12270451 12103235 11959686 11823675 
1615.166 11680150 11519763 11343380 11162446 10997050 10866878 10786572 
1618.541 10760485 10784261 10846902 10933912 11030355 11121822 11198280 
1621.916 11256287 11299781 11339230 11386168 11450834 11536979 11642881 
1625.292 11763617 11893616 12027673 12161772 12292811 12418739 12539419 
1628.667 12657540 12778832 12911251 13061773 13235405 13432549 13648999 
1632.042 13876092 14102894 14317965 14509469 14667812 14786650 14866499 
1635.417 14916014 14952879 14998940 15070595 15175921 15313089 15473442 
1638.792 15644159 15811954 15967369 16106645 16233204 16356289 16487051 
1642.168 16633309 16796390 16969764 17140690 17293860 17413072 17486750 
1645.543 17510378 17489544 17439252 17382276 17344616 17347618 17404794 
1648.918 17520314 17689664 17899408 18126074 18338068 18490276 18532564 
1652.293 18430602 18196104 17901374 17639798 17474572 17411002 17417972 
1655.669 17455532 17492372 17511242 17505686 17478158 17434388 17379240 
1659.044 17313514 17233626 17133038 17004150 16840234 16637063 16393932 
1662.419 16115619 15812984 15501839 15200249 14924004 14681213 14471511 
1665.794 14284954 14104365 13907669 13672797 13383067 13031317 12623939 
1669.170 12178435 11720827 11275942 10862903 10492480 10167110 9881064 
1672.545 9622985 9376097 9119806 8835125 8512954 8161377 7807317 7485301 
1676.402 7224463 7035773 6912136 6835823 6787625 6755114 6734990 6733341 
1680.260 6759893 6821888 6918128 7037121 7158065 7257211 7315031 7327061 
1684.117 7309976 7297644 7323961 7404876 7538970 7715062 7920142 8142301 
1687.975 8371870 8601121 8822107 9028692 9217674 9390994 9555475 9720052 
1691.832 9892589 10075844 10264739 10444859 10596803 10699590 10740038 
1695.207 10722616 10673271 10630554 10623558 10659247 10719050 10768433 
1698.583 10762081 10657752 10433896 10106772 9734724 9388082 9115238 8922242 
1702.440 8786164 8671829 8546644 8386901 8179035 7921458 7624343 7305629 
1706.297 6983109 6670686 6375165 6096881 5832174 5575650 5322295 5069257 
1710.155 4816634 4567338 4326686 4099880 3889642 3696046 3515798 3344172 
1714.012 3177153 3012267 2849111 2687150 2523883 2353981 2170925 1973301 
1717.870 1767216 1568245 1393930 1257433 1162073 1102409 1066069 1038966 
1721.727 1009739 971880 925225 874093 824693 782070 747451 719504 696074 
1726.067 675697 658541 645433 635544 626618 614308 594865 568056 536904 
1730.406 507711 485851 471156 455467 421404 348809 221424 41021 -168851 
1734.746 -370048 -529291 -633061 -686822 -706770 -711434 -717388 -734490 
1738.603 -766574 -811125 -862086 -912975 -959263 -999199 -1032718 -1060352 
1742.461 -1081836 -1097105 -1106161 -1109830 -1109466 -1105467 -1097733 
1745.836 -1084447 -1064318 -1036883 -1004059 -970140 -940914 -922002 -917472 
1749.693 -928714 -955031 -993447 -1039693 -1088347 -1133625 -1169876 
1753.069 -1192842 -1201004 -1195948 -1183028 -1169976 -1165514 -1176056 
1756.444 -1202920 -1240190 -1278085 -1306991 -1320932 -1320601 -1312045 
1759.819 -1304877 -1308313 -1328694 -1366746 -1418105 -1474873 -1528398 
1763.194 -1572672 -1604563 -1622917 -1628496 -1623280 -1609746 -1591556 
1766.570 -1572738 -1556924 -1545435 -1536553 -1526351 -1511294 -1490129 
1769.945 -1466386 -1447728 -1443997 -1463546 -1507464 -1568843 -1633942 
1773.320 -1689461 -1726921 -1745897 -1751639 -1751111 -1749263 -1747349 
1776.695 -1743652 -1735402 -1721508 -1704412 -1689296 -1682266 -1687547 
1780.071 -1705006 -1730089 -1755566 -1774904 -1785100 -1787377 -1785562 
1783.446 -1784671 -1787575 -1795065 -1805525 -1816183 -1825158 -1830998 
1786.821 -1832648 -1828721 -1816909 -1795098 -1762463 -1721409 -1678206 
1790.196 -1642294 -1624303 -1631896 -1667149 -1724907 -1794571 -1864222 
1793.572 -1925023 -1973610 -2010881 -2039309 -2061371 -2078223 -2089962 
1796.947 -2096919 -2100481 -2103152 -2107999 -2116968 -2130882 -2147829 
1800.322 -2165864 -2182809 -2198106 -2212579 -2227446 -2243104 -2258069 
1803.697 -2269902 -2276230 -2275472 -2268089 -2256289 -2242510 -2228632 
1807.073 -2214787 -2200117 -2183765 -2166457 -2150401 -2139784 -2138564 
1810.448 -2148324 -2168567 -2195469 -2224017 -2250487 -2272308 -2289480 
1813.823 -2303027 -2313013 -2318913 -2318221 -2308333 -2287767 -2257838 
1817.198 -2222007 -2185117 -2151687 -2124320 -2103316 -2087027 -2072913 
1820.573 -2058997 -2044058 -2027832 -2010716 -1993697 -1977898 -1964738 
1823.949 -1955832 -1952105 -1952929 -1955832 -1957118 -1952533 -1940065 
1827.324 -1920470 -1898830 -1882269 -1878574 -1892496 -1923307 -1964639 
1830.699 -2006197 -2038320 -2055996 -2059195 -2052105 -2039837 -2026942 
1834.074 -2014904 -2002569 -1987166 -1966387 -1939504 -1907539 -1872470 
1837.450 -1835881 -1797738 -1756160 -1708373 -1651965 -1585977 -1511691 
1840.825 -1431877 -1350165 -1270850 -1198063 -1135079 -1084083 -1045213 
1844.200 -1015463 -989480 -961313 -926201 -882588 -832456 -780697 -733928 
1848.058 -697474 -674747 -665417 -667336 -676533 -690229 -708093 -731381 
1851.915 -762506 -802394 -850049 -901866 -954106 -1003067 -1048056 -1090462 
1855.772 -1133096 -1178336 -1226908 -1277457 -1327934 -1376919 -1424248 
1859.148 -1471406 -1520573 -1572309 -1625426 -1676721 -1721673 -1757909 
1862.523 -1784638 -1803150 -1815886 -1824696 -1829579 -1829480 -1823343 
1865.898 -1811663 -1797771 -1787938 -1788400 -1803447 -1833011 -1871448 
1869.273 -1910277 -1941285 -1959592 -1964969 -1960813 -1951643 -1941615 
1872.649 -1932445 -1924495 -1917271 -1911102 -1906516 -1905593 -1909551 
1876.024 -1918920 -1932742 -1949400 -1967541 -1986639 -2007352 -2030207 
1879.399 -2055601 -2082245 -2107834 -2130255 -2148456 -2163424 -2177897 
1882.774 -2194810 -2216073 -2241159 -2267364 -2290601 -2307509 -2316309 
1886.150 -2317792 -2314463 -2308531 -2302433 -2297259 -2293271 -2290898 
1889.525 -2291062 -2294457 -2301313 -2310904 -2320560 -2327514 -2329624 
1892.900 -2326295 -2318814 -2310376 -2303587 -2299929 -2298643 -2297490 
1896.275 -2294358 -2288327 -2280153 -2272176 -2266672 -2263573 -2260870 
1899.651 -2255432 -2243466 -2223226 -2196095 -2165501 -2136025 -2111362 
1903.026 -2093094 -2080333 -2071298 -2064109 -2057777 -2052665 -2049302 
1906.401 -2047917 -2047653 -2046696 -2044058 -2039375 -2034263 -2031328 
1909.776 -2032779 -2039507 -2051116 -2064966 -2079047 -2091808 -2102855 
1913.152 -2112318 -2120265 -2125969 -2128079 -2125705 -2119737 -2113143 
1916.527 -2111032 -2118188 -2137048 -2166358 -2200744 -2233841 -2261134 
1919.902 -2281702 -2298907 -2318221 -2344685 -2379485 -2419488 -2458103 
1923.277 -2488249 -2505413 -2508905 -2502283 -2491444 -2481067 -2474280 
1926.653 -2472007 -2473852 -2479518 -2489566 -2504589 -2524157 -2546326 
1930.028 -2567276 -2582625 -2589904 -2589048 -2583910 -2580451 -2582856 
1933.403 -2593725 -2611280 -2631436 -2649648 -2663545 -2672865 -2679286 
1936.778 -2685082 -2689692 -2690252 -2683633 -2667168 -2641645 -2612268 
1940.154 -2586281 -2571393 -2572052 -2588587 -2615924 -2647705 -2676619 
1943.529 -2698023 -2709811 -2711425 -2702567 -2683765 -2654917 -2618064 
1946.904 -2577553 -2539112 -2507817 -2486733 -2474379 -2466505 -2457280 
1950.279 -2442717 -2422124 -2399618 -2380605 -2370686 -2372004 -2384427 
1953.655 -2405286 -2433030 -2467822 -2512759 -2571097 -2643226 -2725057 
1957.030 -2807563 -2878436 -2927378 -2948539 -2943010 -2917636 -2881990 
1960.405 -2843577 -2806411 -2772074 -2739972 -2711359 -2688408 -2673326 
1963.780 -2667662 -2669176 -2673326 -2674709 -2669176 -2656926 -2642139 
1967.156 -2630876 -2627122 -2632029 -2642732 -2655543 -2667102 -2677771 
1970.531 -2689889 -2706881 -2728745 -2752616 -2772107 -2781852 -2780041 
1973.906 -2770164 -2758312 -2750245 -2744681 -2733288 -2700690 -2632786 
1977.281 -2522642 -2377408 -2217523 -2066483 -1947783 -1874714 -1847330 
1980.656 -1856766 -1889659 -1932643 -1976645 -2017741 -2053952 -2083828 
1984.032 -2104998 -2114132 -2109548 -2093226 -2070374 -2049203 -2036902 
1987.407 -2037001 -2048939 -2068890 -2090753 -2109845 -2124749 -2135399 
1990.782 -2142916 -2148027 -2149576 -2146181 -2137938 -2125837 -2113143 
1994.157 -2103580 -2099590 -2100283 -2103679 -2106416 -2107076 -2106416 
1997.533 -2107438 -2113703 -2127321 -2146280 -2166589 -2183106 -2192172 
2000.908 -2194348 -2194150 -2197315 -2209183 -2230973 -2259816 -2290041 
2004.283 -2315057 -2329986 -2333710 -2327745 -2314793 -2296006 -2272671 
2007.658 -2244389 -2211787 -2177073 -2143048 -2113208 -2088742 -2068165 
2011.034 -2049005 -2027832 -2003460 -1978558 -1957019 -1943660 -1941450 
2014.409 -1949268 -1963715 -1979383 -1990762 -1994291 -1989080 -1975095 
2017.784 -1952632 -1922021 -1884545 -1842942 -1803513 -1773716 -1760252 
2021.159 -1767347 -1792789 -1828293 -1861847 -1881510 -1879431 -1855248 
2024.535 -1813511 -1764113 -1716459 -1677216 -1649424 -1633909 -1628496 
2027.910 -1632094 -1643581 -1661241 -1681903 -1701970 -1716162 -1720188 
2031.285 -1712399 -1692431 -1661703 -1622389 -1574521 -1517898 -1453408 
2034.660 -1383459 -1314160 -1253802 -1209462 -1185242 -1180285 -1187819 
2038.036 -1198625 -1204605 -1200376 -1185870 -1165481 -1144662 -1128767 
2041.411 -1119612 -1115911 -1114787 -1112804 -1107549 -1098923 -1088016 
2044.786 -1076349 -1064847 -1053113 -1038635 -1018802 -989182 -946501 
2048.161 -889565 -820583 -746365 -676897 -624855 -599941 -606558 -641795 
2052.019 -694861 -751591 -796804 -820583 -821047 -804610 -782980 -767964 
2055.876 -767104 -781260 -804775 -829744 -848991 -860234 -864500 -866154 
2059.734 -868898 -873759 -878918 -880538 -875214 -861756 -842642 -820484 
2063.591 -798623 -778051 -758206 -737434 -715172 -692512 -672034 -656286 
2067.448 -646162 -639645 -633425 -624392 -612349 -600768 -594977 -601033 
2071.306 -622208 -656319 -697176 -736408 -766541 -783740 -789363 -786982 
2075.163 -781624 -776100 -769981 -761051 -746993 -727147 -703792 -681132 
2079.021 -663300 -653176 -650894 -654665 -661811 -670645 -680172 -690461 
2082.878 -702171 -713816 -723177 -728271 -727444 -721622 -713816 -708391 
2086.736 -709317 -718480 -735251 -757181 -781557 -805899 -829877 -854117 
2090.593 -879546 -906164 -932714 -956453 -974967 -986339 -989579 -985348 
2094.450 -973942 -956420 -933673 -907288 -879546 -854183 -835002 -824354 
2098.308 -822899 -828454 -836458 -842708 -843568 -837747 -826106 -810629 
2102.165 -792373 -772098 -749176 -723111 -695092 -667667 -643615 -625980 
2106.023 -615326 -609437 -604540 -596069 -581477 -561722 -539848 -520422 
2109.880 -506754 -500036 -498083 -497719 -495270 -489081 -479648 -468990 
2113.738 -459127 -451283 -444596 -438076 -430628 -422187 -414375 -409740 
2117.595 -409542 -414176 -422452 -431919 -440293 -446913 -452044 -456247 
2121.452 -460153 -463099 -463165 -458564 -449197 -436851 -425663 -420433 
2125.310 -425497 -442743 -471374 -508707 -551695 -598021 -646923 -699492 
2129.167 -756155 -816714 -880373 -943460 -1002703 -1055162 -1098461 -1130816 
2133.025 -1150611 -1155601 -1144563 -1117365 -1076250 -1027198 -977744 
2136.400 -936484 -909967 -901337 -910330 -934301 -969644 -1012422 -1059889 
2140.257 -1109037 -1156096 -1196708 -1226611 -1242239 -1243759 -1234507 
2143.633 -1220399 -1207711 -1201367 -1201764 -1207513 -1214716 -1220300 
2147.008 -1224232 -1228791 -1237547 -1254067 -1279935 -1314424 -1356837 
2150.383 -1406083 -1462523 -1527903 -1603936 -1690979 -1788136 -1892793 
2153.758 -2002536 -2116242 -2232522 -2348936 -2457444 -2542472 -2583185 
2157.134 -2554759 -2438895 -2231698 -1950356 -1628694 -1308775 -1031264 
2160.509 -821708 -688741 -625782 -615227 -635972 -667601 -694728 -707464 
2164.366 -701609 -677228 -638917 -595904 -557288 -532204 -526975 -542661 
2168.224 -575587 -619892 -668627 -717289 -765020 -813076 -864302 -919853 
2172.081 -977281 -1031198 -1076085 -1105930 -1118224 -1114985 -1100245 
2175.456 -1081043 -1064880 -1057873 -1066070 -1093404 -1140862 -1206522 
2178.832 -1284692 -1364632 -1434453 -1482765 -1500860 -1487487 -1447464 
2182.207 -1389503 -1324004 -1258725 -1197898 -1143109 -1094230 -1051460 
2185.582 -1017149 -993877 -982802 -983496 -991430 -1000323 -1004092 -998406 
2189.439 -982504 -957908 -928119 -895418 -860532 -823229 -782550 -739716 
2193.297 -697276 -659429 -630083 -610992 -601132 -597922 -596301 -592893 
2197.154 -585448 -574098 -559670 -544150 -528563 -513638 -500201 -488717 
2201.012 -480078 -475213 -473757 -473823 -473095 -468891 -459855 -447145 
2204.869 -433441 -421525 -413713 -409939 -408019 -405305 -399247 -389316 
2208.727 -377299 -365248 -355780 -349522 -345384 -341146 -335783 -329724 
2212.584 -324890 -325221 -333068 -349522 -373260 -401001 -428807 -453997 
2216.441 -475047 -491298 -502882 -509038 -508574 -500764 -485771 -465945 
2220.299 -445126 -426921 -414342 -408019 -405636 -403418 -398618 -389415 
2224.156 -377663 -366738 -360017 -360249 -366738 -377265 -387693 -394877 
2228.014 -396532 -392163 -383555 -372598 -361308 -351741 -344821 -341444 
2231.871 -341908 -345649 -351178 -355978 -356971 -351741 -338564 -317771 
2235.729 -291481 -262507 -233830 -207767 -185709 -167857 -154575 -145467 
2239.586 -139902 -136822 -133542 -126984 -114562 -93759 -64871 -29819 7388 
2243.926 42579 72006 93680 107930 115852 119630 121055 121751 122778 125231 
2248.747 130070 138190 149592 162851 175778 186485 193545 197590 200938 
2253.087 207037 218806 237138 260047 284051 303978 315219 315948 306797 
2257.427 290616 271452 253682 240188 232630 231071 234022 239393 244598 
2261.766 246753 244200 236575 224706 211977 202098 198650 203590 216551 
2266.106 234785 254411 271552 283587 290085 292605 293070 293700 295987 
2270.445 299734 304608 309549 313760 317175 319330 320192 319861 318999 
2274.785 318534 320623 327587 340685 360648 385984 414306 442531 467839 
2279.125 489499 507810 523999 539492 555582 572403 589854 607639 626054 
2283.464 645267 665708 686350 705499 721197 731353 735668 735104 732515 
2287.804 730722 732349 737692 746023 755217 763615 770851 778286 788045 
2292.143 802850 823332 848961 876849 904240 928081 946809 960390 969423 
2296.483 975135 978157 978954 978157 976463 974902 975002 977659 982872 
2300.823 989348 995226 998415 997817 993865 987821 981710 977194 974869 
2305.162 974271 973973 972445 968991 963512 956439 948602 941197 934722 
2309.502 930007 927317 927151 929741 934489 940068 945215 948038 947606 
2313.841 944418 940367 937810 939570 947075 960390 978157 998083 1018042 
2318.181 1036973 1054876 1073045 1093506 1118121 1148020 1183004 1221280 
2322.038 1259327 1292093 1313196 1316752 1297942 1254841 1188751 1105299 
2325.896 1011998 917953 831864 759466 703475 663352 636009 617494 604354 
2330.235 594665 587764 583982 583949 588096 596689 609530 626486 647192 
2334.575 670819 696240 721263 744297 763748 779614 792659 804875 817987 
2338.915 832627 848098 862871 874624 882194 885381 885415 884319 883555 
2343.254 883987 885514 888137 892420 900721 916659 944451 987422 1046639 
2347.594 1120413 1204799 1294220 1381764 1461447 1527611 1576393 1606323 
2351.451 1618794 1617730 1608750 1598208 1591324 1590825 1596911 1607487 
2355.309 1619426 1630268 1638317 1644004 1649027 1655280 1664659 1677465 
2359.166 1693198 1711161 1730488 1750748 1772605 1796893 1824276 1855355 
2363.023 1889597 1926604 1965245 2004223 2042139 2077695 2109890 2137493 
2366.881 2160535 2179250 2194136 2206457 2216648 2225540 2233334 2240128 
2370.738 2246756 2254649 2265707 2282161 2305545 2336591 2374636 2418215 
2374.596 2465764 2515751 2567477 2620875 2676281 2734361 2795484 2860184 
2378.453 2928896 3001890 3079668 3162534 3249921 3340666 3432664 3523380 
2382.311 3610339 3691936 3766963 3835418 3897833 3954371 4005299 4050346 
2386.168 4089378 4122291 4149655 4172135 4190301 4204586 4214356 4218772 
2390.025 4216999 4208401 4193345 4173105 4149587 4124934 4101085 4078909 
2393.883 4058674 4040112 4022454 4005232 3988211 3971257 3954906 3939960 
2397.740 3927488 3918863 3915519 3918628 3928960 3946748 3971458 4002590 
2401.598 4039477 4081652 4129082 4181703 4239115 4301253 4367215 4436434 
2405.455 4508544 4583645 4662143 4744507 4830772 4920272 5012171 5105497 
2409.313 5199849 5295865 5395156 5499000 5608475 5723281 5841342 5959469 
2413.170 6073931 6181366 6279717 6367734 6445209 6512271 6568781 6614432 
2417.027 6649186 6673007 6687308 6693937 6695619 6694845 6693533 6692860 
2420.885 6692658 6692355 6690773 6686601 6678795 6666951 6650869 6631792 
2424.742 6610933 6590714 6573726 6562491 6559228 6565249 6581194 6607502 
2428.600 6644442 6692490 6752321 6824345 6907894 7001494 7102792 7208966 
2432.457 7317659 7427829 7539578 7654457 7774360 7900639 8033773 8173397 
2436.314 8317861 8465955 8617208 8771422 8929987 9094225 9265939 9446288 
2440.172 9635858 9834595 10042001 10257242 10479242 10707027 10939927 
2443.547 11177779 11420524 11668918 11923483 12184398 12451302 12723180 
2446.922 12998302 13274793 13550845 13825089 14096390 14363342 14625077 
2450.298 14880317 15127440 15365881 15595489 15816147 16028836 16233616 
2453.673 16430199 16617300 16792568 16953536 17098092 17224008 17329856 
2457.048 17414348 17475918 17512484 17521728 17500754 17447460 17360928 
2460.423 17241004 17088992 16907406 16698658 16465472 16210571 15936501 
2463.799 15645603 15340994 15025933 14703937 14378890 14054464 13734316 
2467.174 13422263 13121259 12834764 12566295 12318204 12092878 11891301 
2470.549 11713712 11559301 11426510 11313554 11218170 11138411 11071718 
2473.924 11016081 10969523 10929971 10896198 10866946 10841330 10818603 
2477.300 10797984 10778895 10760417 10742178 10723499 10704072 10683697 
2480.675 10661861 10638363 10612659 10584581 10554127 10521707 10488271 
2484.050 10454872 10422323 10391100 10361678 10333718 10307116 10281737 
2487.425 10257683 10234987 10214293 10195772 10179592 10165889 10154255 
2490.801 10143843 10133464 10122000 10107282 10087747 10062483 10031320 
2494.176 9995209 9956118 9916319 9878387 9843542 9811888 9782335 9753022 
2498.033 9721611 9686576 9647377 9604082 9558151 9511004 9464066 9418657 
2501.891 9375216 9333946 9294407 9256056 9218283 9180751 9143357 9106136 
2505.748 9069730 9035120 9003083 8974398 8949029 8926334 8905094 8884058 
2509.605 8861637 8836783 8809325 8779131 8747012 8713746 8680449 8648371 
2513.463 8618459 8591184 8567088 8545563 8526031 8507446 8488998 8470414 
2517.320 8452271 8435785 8422710 8414197 8411089 8412980 8418656 8426325 
2521.178 8434162 8440751 8445109 8447305 8447677 8447069 8446866 8448150 
2525.035 8452136 8459907 8471699 8487172 8505385 8524780 8543636 8560533 
2528.893 8575166 8587433 8598620 8609570 8621061 8633770 8647425 8661689 
2532.750 8676494 8691773 8707594 8724057 8741197 8758507 8775412 8791370 
2536.607 8806079 8819976 8834009 8849497 8867419 8888860 8913685 8941757 
2540.465 8972064 9003455 9035052 9065839 9095207 9122648 9148399 9172426 
2544.322 9195201 9217098 9238116 9258391 9277515 9295321 9311941 9327751 
2548.180 9343561 9360556 9379448 9400575 9423601 9447541 9470974 9493291 
2552.037 9513645 9532071 9548768 9563977 9577830 9590127 9601034 9610248 
2555.895 9618209 9625458 9632267 9638839 9644667 9648800 9650155 9647410 
2559.752 9640126 9628135 9611975 9592159 9569498 9544704 9518556 9492174 
2563.609 9466776 9443646 9423702 9407382 9394143 9383003 9372948 9362994 
2567.467 9352973 9343358 9335165 9329003 9325178 9323485 9323317 9323959 
2571.324 9325280 9327582 9331780 9338720 9349147 9363062 9379922 9398612 
2575.182 9418149 9437755 9456853 9475038 9492378 9508939 9525127 9541689 
2579.039 9559641 9580065 9604184 9632471 9664960 9701043 9740010 9780709 
2582.896 9822834 9866117 9910386 9955677 10001346 10046545 10090664 10133429 
2586.754 10175318 10217856 10262636 10311425 10364970 10423035 10484130 
2590.129 10546319 10607295 10665257 10719151 10768807 10814562 10857331 
2593.504 10898440 10938975 10980397 11024271 11071141 11121346 11174379 
2596.880 11228813 11282811 11334503 11382494 11426545 11467163 11505812 
2600.255 11544771 11586048 11631173 11681342 11736928 11797663 11862901 
2603.630 11932031 12004067 12078500 12154855 12232927 12312580 12393885 
2607.005 12476296 12559644 12643042 12725909 12807497 12887597 12966005 
2610.381 13042926 13118186 13191820 13263314 13332087 13397487 13458762 
2613.756 13515329 13567151 13613851 13655460 13691809 13722996 13749124 
2617.131 13770739 13788490 13803608 13817221 13830493 13844449 13859877 
2620.506 13876913 13895387 13915230 13935724 13956390 13976954 13997417 
2623.882 14018257 14040433 14064732 14092146 14123295 14158243 14196277 
2627.257 14236881 14279442 14323582 14369747 14418382 14470346 14525572 
2630.632 14584230 14645433 14708392 14772492 14837116 14902778 14969752 
2634.007 15038145 15108262 15179523 15251380 15323420 15395232 15467022 
2637.383 15538925 15611288 15683869 15756531 15828414 15899381 15969295 
2640.758 16038772 16108433 16179342 16251778 16325532 16400089 16474592 
2644.133 16547868 16619815 16690498 16760333 16830074 16900446 16971762 
2647.508 17044226 17117908 17192776 17268966 17346168 17424800 17504584 
2650.884 17585382 17667438 17750890 17836260 17923922 18014228 18107108 
2654.259 18201736 18297456 18393024 18487922 18581632 18674980 18768764 
2657.634 18864400 18962690 19064290 19168444 19274630 19380910 19485866 
2661.009 19588248 19687256 19782924 19875766 19966376 20055892 20144594 
2664.385 20232900 20320908 20408136 20494584 20580180 20665514 20751456 
2667.760 20838910 20928678 21021696 21117658 21216354 21316778 21417922 
2671.135 21518670 21618398 21716754 21813496 21909182 22003910 22098204 
2674.510 22192278 22286090 22379332 22471406 22561686 22649714 22735072 
2677.885 22817934 22898748 22978356 23057594 23137408 23218842 23302844 
2681.261 23390534 23483104 23581708 23687300 23800582 23921700 24050276 
2684.636 24185758 24327590 24475742 24630398 24792370 24962018 25139630 
2688.011 25324446 25515104 25709924 25907116 26105488 26304902 26505678 
2691.386 26708834 26915470 27126296 27341492 27561000 27784466 28011724 
2694.762 28242920 28478130 28717750 28961862 29210644 29463862 29721234 
2698.137 29982560 30247524 30516238 30788322 31063530 31341512 31621632 
2701.512 31903040 32184768 32465972 32745604 33022948 33297106 33567288 
2704.887 33832728 34092420 34344840 34588116 34820400 35039192 35242464 
2708.263 35428432 35596424 35745920 35877252 35991132 36087652 36167300 
2711.638 36230072 36275744 36304416 36316376 36311476 36290404 36253016 
2715.013 36199496 36129596 36043292 35940740 35822304 35689256 35542732 
2718.388 35384252 35215300 35037612 34852100 34660600 34464096 34264412 
2721.764 34063424 33863532 33667528 33478234 33298786 33131502 32978404 
2725.139 32840080 32716732 32607566 32511856 32428696 32357938 32299828 
2728.514 32255034 32224168 32207570 32205146 32215708 32238048 32270916 
2731.889 32313176 32364220 32423448 32490574 32565314 32646894 32734382 
2735.265 32826498 32922066 33020228 33120346 33221878 33324796 33428918 
2738.640 33533960 33639388 33744588 33848560 33950048 34048192 34141736 
2742.015 34230532 34314936 34395588 34474172 34552200 34630924 34711168 
2745.390 34792544 34874324 34955512 35035132 35113188 35189932 35266148 
2748.766 35342804 35420700 35499832 35579808 35659760 35739368 35817948 
2752.141 35895712 35972884 36050348 36128988 36209616 36293000 36379568 
2755.516 36470228 36564652 36663028 36764888 36869372 36975788 37082960 
2758.891 37190332 37296972 37401764 37503292 37599532 37688100 37766416 
2762.267 37832168 37883392 37918860 37938064 37940884 37927688 37899052 
2765.642 37855844 37799164 37730780 37652720 37567052 37475912 37381324 
2769.017 37284660 37187624 37091476 36997652 36908076 36824324 36748084 
2772.392 36680588 36622328 36572760 36530992 36495704 36465292 36438516 
2775.768 36413940 36391024 36368724 36345700 36320700 36291992 36257228 
2779.143 36214188 36160852 36095500 36017444 35926844 35824424 35712208 
2782.518 35592504 35467620 35340112 35212244 35085568 34961580 34841152 
2785.893 34725096 34613272 34505884 34402076 34301376 34202924 34106000 
2789.269 34010248 33915728 33822268 33730368 33640176 33552252 33466638 
2792.644 33383798 33304154 33228352 33156824 33089810 33027310 32968606 
2796.019 32913026 32858986 32805308 32750710 32694228 32635466 32574102 
2799.394 32510356 32444262 32376074 32305610 32232836 32157474 32079198 
2802.770 31998116 31914272 31828374 31740852 31652674 31564760 31477292 
2806.145 31390556 31304546 31219410 31135394 31053030 30972996 30896356 
2809.520 30823678 30755174 30690806 30630358 30573614 30520718 30472306 
2812.895 30429090 30391810 30360434 30334710 30313994 30297296 30283690 
2816.271 30273456 30267702 30267914 30275980 30294098 30323552 30365764 
2819.646 30421378 30490718 30574360 30672422 30784800 30911228 31050682 
2823.021 31201574 31362380 31531196 31706028 31885780 32068386 32252360 
2826.396 32435980 32617140 32793910 32964102 33125888 33277250 33416930 
2829.771 33543624 33656428 33754976 33839356 33910460 33969612 34018628 
2833.147 34059052 34092884 34121664 34146756 34170376 34194644 34222032 
2836.522 34255268 34297004 34348892 34412084 34487160 34574300 34674276 
2839.897 34787944 34917804 35067460 35241388 35444716 35683252 35963200 
2843.272 36290912 36673844 37119044 37634328 38226344 38899500 39653924 
2846.648 40483700 41374840 42302320 43232704 44124700 44929892 45601788 
2850.023 46098908 46389188 46455708 46297692 45930264 45379744 44683216 
2853.398 43882696 43019000 42132480 41258776 40425404 39654104 38958864 
2856.773 38346052 37816372 37365472 36985892 36667824 36401148 36176340 
2860.149 35984328 35817876 35670912 35539100 35420088 35312796 35217776 
2863.524 35136612 35071556 35024680 34997456 34991028 35005828 35042352 
2866.899 35100652 35181128 35284152 35410240 35558844 35728756 35917380 
2870.274 36120632 36333416 36549332 36761248 36962876 37148064 37312640 
2873.650 37455108 37576120 37678956 37768836 37852196 37935024 38023044 
2877.025 38120448 38229892 38353184 38490668 38642424 38808188 38987716 
2880.400 39180480 39386464 39605064 39835504 40076428 40325916 40580792 
2883.775 40836976 41089996 41334456 41565348 41778664 41971360 42142484 
2887.151 42292644 42424584 42542788 42652728 42761120 42874956 43001332 
2890.526 43147576 43321252 43530200 43783808 44093780 44473200 44938672 
2893.901 45507988 46198472 47026572 48002852 49128972 50393412 51769144 
2897.276 53211192 54654140 56023028 57233368 58201480 58861420 59167468 
2900.652 59104780 58689344 57966464 57002348 55869408 54644484 53396628 
2904.027 52179584 51036812 49997668 49079924 48294080 47644148 47130488 
2907.402 46750364 46500624 46377352 46377096 46497712 46737192 47093336 
2910.777 47563068 48140836 48817240 49580080 50412424 51292644 52197368 
2914.153 53098288 53965552 54771248 55488600 56096012 56580272 56935856 
2917.528 57165064 57276840 57284588 57201992 57041720 56813372 56522224 
2920.903 56170104 55756600 55280408 54742120 54145828 53499452 52816132 
2924.278 52113040 51408176 50721140 50069088 49465288 48919656 48437748 
2927.654 48020652 47666740 47371388 47128528 46930472 46768628 46634404 
2931.029 46518104 46411052 46304400 46189368 46058560 45904888 45722592 
2934.404 45507988 45259072 44976192 44661916 44320164 43956164 43575032 
2937.779 43182488 42783788 42384580 41990412 41607244 41240520 40895548 
2941.155 40576424 40285816 40025016 39793200 39587896 39403768 39234044 
2944.530 39069748 38900044 38714760 38504572 38263252 37989012 37684772 
2947.905 37358176 37019016 36679360 36350568 36041532 35758404 35504508 
2951.280 35279912 35082332 34908112 34752516 34610292 34476540 34347316 
2954.656 34219092 34089768 33957896 33822624 33683068 33538364 33387624 
2958.031 33230536 33067354 32899372 32728918 32558958 32392174 32231268 
2961.406 32078200 31933922 31799354 31675198 31561982 31460334 31371250 
2964.781 31294860 31231836 31182064 31145930 31123898 31116990 31125890 
2968.156 31151164 31192674 31249390 31319432 31400706 31491116 31589526 
2971.532 31695798 31810478 31934776 32069638 32214350 32366790 32521710 
2974.907 32671508 32805808 32913346 32982372 33002570 32966640 32871350 
2978.282 32718234 32512638 32263386 31981926 31680044 31369790 31062570 
2981.657 30767800 30493240 30244468 30023922 29831240 29663298 29515564 
2985.033 29381850 29256648 29135944 29017614 28901902 28790502 28685788 
2988.408 28589696 28502400 28421774 28343356 28260458 28164850 28048798 
2991.783 27906208 27734098 27533286 27309208 27070750 26827982 26591374 
2995.158 26369330 26166438 25984216 25820920 25673470 25538192 25412440 
2998.534 25294804 25184746 25082548 24988196 24901272 24821276 24747362 
3001.909 24678654 24614968 24555990 24501402 24451414 24405462 24363300 
3005.284 24325032 24291112 24262238 24239184 24222612 24212278 24207724 
3008.659 24207514 24210282 24214730 24220196 24226186 24233158 24241182 
3012.035 24250712 24261924 24275098 24289604 24305724 24323104 24341432 
3015.410 24361092 24382680 24407110 24435536 24469152 24508308 24552868 
3018.785 24601748 24652736 24703764 24752728 24798438 24840678 24880184 
3022.160 24917764 24954612 24991146 25027330 25063240 25098800 25134434 
3025.536 25171404 25211152 25254942 25304180 25358940 25418482 25481336 
3028.911 25545604 25608900 25669286 25725356 25776160 25821800 25862626 
3032.286 25899590 25933706 25965432 25995156 26022738 26048032 26070902 
3035.661 26092154 26113090 26135644 26161580 26192586 26229398 26272130 
3039.037 26320218 26372744 26428800 26487890 26549560 26613848 26680224 
3042.412 26748440 26817762 26887902 26958446 27029244 27100160 27171268 
3045.787 27242276 27312736 27382570 27451602 27520506 27589916 27660748 
3049.162 27733426 27808134 27884514 27961754 28039504 28117232 28195008 
3052.538 28272552 28349792 28426020 28500454 28572286 28640978 28707026 
3055.913 28771420 28835220 28899988 28966396 29034724 29104872 29176766 
3059.288 29250516 29326440 29405284 29486982 29571246 29657408 29743908 
3062.663 29830032 29915324 30000276 30085954 30173356 30263262 30355636 
3066.039 30449952 30545068 30640384 30735756 30831042 30926456 31021892 
3069.414 31117026 31211116 31303976 31395468 31486340 31577728 31670850 
3072.789 31765948 31863350 31961988 32061074 32160472 32260102 32361042 
3076.164 32464470 32570816 32679722 32789946 32899584 33006750 33110478 
3079.540 33210612 33308160 33404476 33500708 33597536 33694992 33792360 
3082.915 33889396 33985880 34082132 34178800 34277104 34377760 34481632 
3086.290 34589156 34700508 34815696 34934324 35055644 35178720 35302336 
3089.665 35425340 35547120 35667532 35786896 35906044 36025364 36145008 
3093.041 36264936 36384576 36503924 36622976 36742892 36865044 36990944 
3096.416 37121756 37257872 37398728 37542560 37687520 37831516 37972596 
3099.791 38109888 38242736 38371172 38495588 38617004 38736420 38855400 
3103.166 38975208 39097156 39222328 39351344 39483992 39620020 39758524 
3106.542 39898376 40038856 40179344 40319264 40458500 40596976 40733976 
3109.917 40869480 41003104 41134216 41263148 41390184 41515980 41641924 
3113.292 41769144 41898300 42029576 42162384 42295640 42428164 42558940 
3116.667 42687232 42813448 42938448 43062792 43187464 43313052 43439300 
3120.042 43565984 43692452 43818036 43942304 44065544 44187568 44308564 
3123.418 44428644 44547540 44665040 44781208 44896232 45010776 45126084 
3126.793 45243664 45364844 45490772 45621516 45756312 45893840 46032036 
3130.168 46168696 46302964 46434356 46563432 46691808 46821548 46953952 
3133.543 47090012 47229476 47371536 47514496 47656832 47797516 47935692 
3136.919 48071688 48206176 48340112 48475088 48612292 48752876 48897480 
3140.294 49045760 49196652 49348788 49500492 49650056 49797148 49941760 
3143.669 50084672 50227036 50370116 50514400 50659960 50806384 50952976 
3147.044 51099348 51245068 51389904 51534300 51678036 51821148 51964008 
3150.420 52107440 52252072 52399040 52549268 52702844 52859132 53017196 
3153.795 53175544 53333124 53489336 53643916 53797280 53949944 54101240 
3157.170 54250896 54398164 54542624 54684728 54825680 54966636 55109068 
3160.545 55253992 55401036 55549560 55698584 55847060 55994756 56141336 
3163.921 56286680 56430568 56572348 56711152 56846412 56978096 57106672 
3167.296 57233520 57359872 57486672 57614192 57742172 57869576 57995996 
3170.671 58121284 58245660 58369572 58493564 58617628 58741192 58863548 
3174.046 58983388 59099844 59212196 59319904 59422776 59521036 59615252 
3177.422 59706332 59795832 59885316 59976144 60068596 60162548 60256524 
3180.797 60349412 60440148 60528548 60615324 60701924 60789384 60878232 
3184.172 60968432 61059000 61149008 61238004 61325952 61413044 61500224 
3187.547 61587308 61673956 61759240 61842328 61922604 62000372 62076624 
3190.923 62152276 62227944 62303820 62379168 62453308 62525392 62594964 
3194.298 62662556 62728740 62794244 62859112 62924100 62988528 63052924 
3197.673 63117252 63181936 63247204 63312864 63378228 63442452 63504504 
3201.048 63563764 63620224 63674396 63726656 63777572 63827196 63875364 
3204.424 63922004 63967532 64012340 64057380 64103312 64150476 64198872 
3207.799 64248620 64299136 64350972 64404428 64459928 64517120 64575248 
3211.174 64632000 64684904 64732328 64773208 64808404 64840220 64871572 
3214.549 64905084 64942332 64983272 65026760 65071100 65114632 65156244 
3217.925 65196356 65235748 65275832 65318116 65363408 65412096 65464140 
3221.300 65518544 65574528 65630904 65686524 65740832 65793732 65845588 
3224.675 65897292 65949200 66001928 66055200 66108444 66161028 66212588 
3228.050 66263100 66313208 66363424 66414424 66466400 66519492 66573368 
3231.426 66628484 66685044 66743888 66805788 66870792 66938356 67007288 
3234.801 67076108 67143592 67209072 67272928 67335848 67398600 67461952 
3238.176 67525504 67589536 67654000 67718936 67785824 67855112 67927288 
3241.551 68001640 68077096 68151128 68222464 68290232 68354960 68418416 
3244.927 68482920 68550032 68620816 68694936 68771520 68849752 68929080 
3248.302 69009120 69090616 69173408 69256880 69340016 69421408 69499096 
3251.677 69572240 69640576 69704336 69764208 69821568 69876512 69929992 
3255.052 69982264 70034200 70086184 70139288 70193736 70249552 70306224 
3258.427 70361976 70415280 70464920 70509624 70549456 70584896 70617168 
3261.803 70647736 70677680 70707504 70737024 70765456 70791352 70813896 
3265.178 70832464 70847048 70858320 70867176 70874432 70880240 70884920 
3268.553 70887152 70886136 70881064 70871424 70857736 70840416 70820528 
3271.928 70798800 70776336 70753872 70732032 70711448 70692424 70674288 
3275.304 70656040 70636160 70613464 70587040 70557176 70525336 70493224 
3278.679 70462824 70434960 70409200 70384496 70359016 70331624 70302208 
3282.054 70272144 70242928 70216632 70194320 70175744 70160240 70146576 
3285.429 70133800 70121960 70111448 70102960 70096960 70093424 70091864 
3288.805 70091432 70091664 70092136 70093496 70096184 70100512 70107016 
3292.180 70116200 70128304 70144464 70165656 70192408 70224968 70262400 
3295.555 70303304 70345728 70388864 70432352 70477048 70524704 70576864 
3298.930 70634560 70697760 70765456 70836864 70911024 70987640 71067096 
3302.306 71149592 71235360 71324112 71415448 71509080 71604992 71704168 
3305.681 71806544 71912456 72021048 72130808 72240000 72348056 72455392 
3309.056 72563928 72676376 72794952 72920856 73053856 73192072 73333280 
3312.431 73476176 73619976 73765128 73912248 74061264 74211008 74359928 
3315.807 74505808 74647904 74786192 74922008 75057120 75192864 75329592 
3319.182 75466640 75602832 75737048 75868856 75998104 76125296 76250160 
3322.557 76371968 76489712 76602456 76709944 76813696 76915424 77016928 
3325.932 77119208 77221472 77321432 77416216 77503864 77582848 77653408 
3329.308 77716528 77773080 77823536 77867416 77903528 77931240 77950280 
3332.683 77960544 77962488 77955744 77938888 77910232 77868048 77811640 
3336.058 77741816 77660896 77571672 77476696 77377056 77272104 77160280 
3339.433 77040192 76910352 76771072 76623256 76467704 76304976 76134536 
3342.809 75954768 75764264 75561704 75346384 75118880 74880240 74631144 
3346.184 74372912 74106736 73833544 73555288 73274160 72991960 72710456 
3349.559 72430648 72152400 71875504 71599560 71324304 71049920 70776608 
3352.934 70504248 70232528 69961008 69689400 69417952 69148032 68881432 
3356.310 68620384 68366984 68121864 67885528 67657632 67437768 67225512 
3359.685 67021316 66824920 66636332 66454656 66278308 66105396 65934120 
3363.060 65763808 65593720 65424652 65257812 65094844 64937212 64786672 
3366.435 64644420 64511812 64388744 64274704 64167836 64065596 63965120 
3369.811 63864084 63761152 63655556 63547232 63436128 63321336 63201368 
3373.186 63073768 62937164 62789880 62632008 62463712 62285692 62098068 
3376.561 61900172 61690068 61466632 61228352 60975108 60707492 60427052 
3379.936 60134464 59830932 59516400 59189944 58851252 58499212 58133440 
3383.312 57753788 57360400 56953540 56534300 56104460 55665816 55221292 
3386.687 54773428 54323548 53873120 53422296 52970700 52518272 52065676 
3390.062 51614036 51165472 50722512 50286144 49857496 49436216 49020944 
3393.437 48609848 48201064 47792744 47383548 46973260 46561368 46149164 
3396.813 45738496 45331304 44929928 44535756 44149128 43769292 43394736 
3400.188 43023244 42653456 42284792 41917420 41552004 41189260 40828896 
3403.563 40470140 40111928 39753148 39393572 39033676 38674844 38318656 
3406.938 37966412 37618680 37275708 36936972 36602140 36271024 35943508 
3410.313 35619912 35300428 34984924 34673016 34364168 34058048 33754828 
3413.689 33454650 33158254 32866846 32581136 32302112 32030684 31767088 
3417.064 31511384 31262490 31018830 30778008 30537390 30295378 30051048 
3420.439 29805226 29559932 29318038 29082232 28854696 28635880 28425488 
3423.814 28221810 28022292 27824984 27627836 27429014 27227708 27023674 
3427.190 26817232 26609656 26403236 26199588 26000926 25808086 25620850 
3430.565 25437804 25257366 25077562 24897446 24717302 24538038 24360986 
3433.940 24188070 24019460 23855256 23694544 23536234 23379170 23223036 
3437.315 23067380 22912616 22758850 22605976 22453576 22301158 22147716 
3440.691 21992930 21836738 21679450 21521942 21365920 21212074 21061170 
3444.066 20913136 20766542 20619822 20471312 20320006 20166252 20011790 
3447.441 19859222 19711768 19571854 19439986 19315642 19196458 19079490 
3450.816 18962138 18842946 18720986 18596570 18470740 18344220 18217908 
3454.192 18092532 17968676 17846616 17727006 17609432 17493648 17378586 
3457.567 17263448 17147446 17030648 16913504 16796768 16680995 16565802 
3460.942 16450055 16332379 16211879 16088489 15963795 15840545 15721316 
3464.317 15608334 15502079 15401445 15303856 15206837 15108468 15008029 
3467.693 14906412 14804683 14704211 14605818 14509195 14413895 14318753 
3471.068 14223529 14127675 14031569 13935279 13838805 13742832 13648144 
3474.443 13555938 13468092 13386313 13311587 13244218 13182973 13125665 
3477.818 13069901 13013187 12953920 12891556 12826471 12758734 12689813 
3481.194 12620426 12551459 12483968 12419456 12358430 12301571 12248979 
3484.569 12199801 12153355 12108754 12065181 12022803 11981791 11941908 
3487.944 11903356 11866102 11830009 11795348 11763073 11734307 11710206 
3491.319 11691145 11676372 11664188 11652819 11639988 11625217 11609223 
3494.695 11593671 11581386 11574647 11575363 11584346 11602076 11627974 
3498.070 11661771 11703092 11751430 11805936 11865659 11929273 11995824 
3501.445 12064873 12136660 12211661 12290969 12374657 12463304 12556847 
3504.820 12655084 12759075 12869644 12987854 13113917 13247429 13386655 
3508.196 13530437 13676968 13826320 13978973 14136507 14299850 14468873 
3511.571 14641561 14814968 14986009 15152384 15313569 15470661 15625302 
3514.946 15779344 15933134 16085772 16235508 16380753 16520126 16653588 
3518.321 16781340 16903170 17017866 17122942 17214562 17289412 17344340 
3521.697 17377378 17388862 17379448 17350202 17302168 17235694 17150238 
3525.072 17045190 16919464 16771799 16601741 16409347 16195644 15963003 
3528.447 15715165 15455382 15187690 14914677 14637791 14357588 14074692 
3531.822 13789208 13502374 13215320 12928558 12642223 12355498 12066782 
3535.198 11775295 11481146 11186142 10893615 10607159 10329646 10062957 
3538.573 9806973 9560928 9323723 9095139 8875096 8664731 8464366 8273111 
3542.430 8089097 7908974 7728722 7544432 7353346 7153585 6945601 6731692 
3546.288 6515770 6303283 6100308 5912174 5742822 5593270 5461251 5342455 
3550.145 5230767 5119913 5005735 4886662 4763500 4638666 4515474 4396099 
3554.002 4281142 4170228 4062688 3957715 3855776 3757271 3663198 3573289 
3557.860 3486370 3400571 3313955 3225185 3134699 3043430 2954650 2870423 
3561.717 2793116 2724092 2663279 2608975 2558344 2506586 2447370 2373836 
3565.575 2279763 2160935 2017871 1856420 1686479 1519997 1367405 1234504 
3569.432 1122639 1029102 948735 876982 809390 743501 677921 612052 545596 
3573.772 478652 411719 344664 278746 214761 152741 92254 32373 -28328 -90380 
3578.594 -153317 -215781 -275190 -329393 -377265 -418413 -453864 -484513 
3582.451 -510990 -533130 -550041 -561523 -568439 -574197 -584124 -604110 
3586.308 -640604 -696812 -772330 -862219 -958536 -1052783 -1137756 -1208835 
3590.166 -1264705 -1306529 -1336721 -1359017 -1377481 -1396274 -1418369 
3593.541 -1446176 -1480123 -1518856 -1559829 -1600271 -1638135 -1672463 
3596.916 -1704148 -1734346 -1765202 -1798101 -1833110 -1869402 -1906087 
3600.292 -1941549 -1974435 -2004383 -2030866 -2053688 -2072485 -2086994 
3603.667 -2095996 -2099327 -2097018 -2090324 -2080894 -2072089 -2066582 
3607.042 -2067703 -2077299 -2095271 -2119440 -2146477 -2172391 -2194282 
3610.417 -2211425 -2225468 -2239807 -2258464 -2284570 -2318781 -2359152 
3613.792 -2401002 -2439092 -2468745 -2488051 -2498198 -2503403 -2509366 
3617.168 -2522708 -2549785 -2593560 -2654357 -2728745 -2809835 -2889133 
3620.543 -2959103 -3014255 -3051963 -3072427 -3077428 -3069828 -3051601 
3623.918 -3024160 -2988062 -2943734 -2892688 -2838277 -2787284 -2749290 
3627.293 -2736120 -2757620 -2817473 -2908980 -3015308 -3113978 -3187070 
3630.669 -3227196 -3236504 -3223447 -3200358 -3178387 -3165361 -3165164 
3634.044 -3177235 -3197595 -3221079 -3243443 -3262353 -3278467 -3293791 
3637.419 -3310430 -3330718 -3354983 -3382765 -3412255 -3441315 -3467678 
3640.794 -3489700 -3505642 -3514154 -3513990 -3503932 -3483028 -3450815 
3644.170 -3407948 -3356101 -3297934 -3237951 -3181511 -3134374 -3102300 
3647.545 -3089963 -3100030 -3132795 -3185985 -3254789 -3332822 -3411794 
3650.920 -3482765 -3538508 -3573738 -3586423 -3578602 -3554973 -3522568 
3654.295 -3489569 -3464489 -3453971 -3461169 -3485099 -3521023 -3562236 
3657.671 -3603248 -3640838 -3674286 -3704741 -3732928 -3759207 -3782923 
3661.046 -3802368 -3816031 -3822994 -3822961 -3816688 -3805554 -3789690 
3664.421 -3769522 -3743965 -3711673 -3671263 -3622569 -3566344 -3506398 
3667.796 -3447758 -3396935 -3359455 -3337754 -3328054 -3319637 -3299184 
3671.172 -3253046 -3173091 -3059826 -2920203 -2768452 -2622544 -2504886 
3674.547 -2437445 -2435699 -2501953 -2622906 -2776387 -2939423 -3097102 
3677.922 -3244199 -3379477 -3503472 -3615504 -3712494 -3791431 -3851075 
3681.297 -3892880 -3920036 -3936717 -3945221 -3945385 -3935207 -3911926 
3684.673 -3874556 -3825753 -3771624 -3720247 -3681087 -3661209 -3663673 
3688.048 -3686048 -3721529 -3760587 -3795963 -3823980 -3844802 -3860402 
3691.423 -3873505 -3884408 -3892683 -3897773 -3898167 -3894489 -3887921 
3694.798 -3880631 -3874096 -3869893 -3867430 -3865788 -3863062 -3858136 
3698.174 -3850746 -3842306 -3835245 -3833110 -3838890 -3854359 -3878989 
3701.549 -3909561 -3941051 -3967384 -3984063 -3987904 -3978809 -3958256 
3704.924 -3929461 -3894949 -3857216 -3818035 -3777668 -3736935 -3696791 
3708.299 -3658482 -3624541 -3597957 -3581231 -3576860 -3585996 -3607717 
3711.675 -3639327 -3677013 -3715418 -3749353 -3774843 -3789591 -3793237 
3715.050 -3787850 -3776354 -3762788 -3750831 -3742947 -3739892 -3741075 
3718.425 -3744622 -3748729 -3752736 -3757138 -3763116 -3771887 -3783219 
3721.800 -3795339 -3805226 -3809692 -3806671 -3796916 -3783219 -3770080 
3725.176 -3761310 -3758944 -3761474 -3765120 -3763478 -3751718 -3726916 
3728.551 -3689661 -3643138 -3592864 -3544489 -3502190 -3467974 -3441578 
3731.926 -3420276 -3401110 -3382469 -3365504 -3354819 -3356627 -3376354 
3735.301 -3416364 -3473956 -3541203 -3607289 -3663279 -3702836 -3724157 
3738.677 -3727803 -3715155 -3687296 -3644518 -3587902 -3520563 -3448580 
3742.052 -3382732 -3337458 -3327331 -3363005 -3442301 -3548203 -3650531 
3745.427 -3721233 -3746101 -3726391 -3673957 -3604628 -3534959 -3477736 
3748.802 -3441677 -3430631 -3443583 -3476520 -3524376 -3582282 -3645142 
3752.177 -3706942 -3760028 -3797146 -3813141 -3807032 -3782201 -3745148 
3755.553 -3703066 -3663838 -3632722 -3611857 -3601868 -3601506 -3609294 
3758.928 -3624245 -3645405 -3670540 -3695805 -3715944 -3725733 -3722186 
3762.303 -3705398 -3679083 -3648987 -3621715 -3601966 -3591122 -3587376 
3765.678 -3585700 -3581592 -3573015 -3561283 -3551194 -3548762 -3559607 
3769.054 -3585470 -3624771 -3670967 -3716075 -3752933 -3777077 -3787686 
3772.429 -3787226 -3779770 -3769160 -3758485 -3748893 -3739334 -3728460 
3775.804 -3714071 -3695542 -3674056 -3652371 -3635088 -3626183 -3628451 
3779.179 -3641594 -3661998 -3684109 -3702277 -3712856 -3714860 -3710293 
3782.555 -3702639 -3696134 -3692881 -3694261 -3699156 -3706022 -3713020 
3785.930 -3719360 -3725076 -3730661 -3736837 -3743505 -3750075 -3755824 
3789.305 -3760390 -3763510 -3765481 -3766073 -3764397 -3759109 -3748433 
3792.680 -3731219 -3708486 -3682992 -3658909 -3640970 -3632624 -3633839 
3796.056 -3641232 -3647804 -3645800 -3629239 -3596314 -3549846 -3497523 
3799.431 -3450881 -3420999 -3417482 -3445128 -3498378 -3564011 -3624705 
3802.806 -3666203 -3680725 -3670212 -3642054 -3608571 -3582907 -3575973 
3806.181 -3594408 -3637027 -3695148 -3754641 -3803288 -3833373 -3843357 
3809.557 -3836854 -3818889 -3793894 -3764168 -3729347 -3687920 -3639195 
3812.932 -3584057 -3527005 -3475008 -3436515 -3418205 -3422676 -3444043 
3816.307 -3471031 -3490621 -3492231 -3473167 -3437732 -3396442 -3361460 
3819.682 -3346138 -3359455 -3402951 -3469387 -3543208 -3608341 -3652634 
3823.058 -3672709 -3672249 -3659928 -3645602 -3637027 -3639491 -3653061 
3826.433 -3674056 -3695641 -3710687 -3714761 -3705562 -3685390 -3658022 
3829.808 -3628812 -3602229 -3580771 -3564734 -3551950 -3538705 -3520531 
3833.183 -3494894 -3460643 -3419290 -3374250 -3330685 -3293791 -3268503 
3836.559 -3258143 -3263537 -3283202 -3312962 -3347980 -3383685 -3416298 
3839.934 -3444306 -3467218 -3485658 -3500909 -3514516 -3528418 -3544029 
3843.309 -3562368 -3583597 -3606172 -3627695 -3645077 -3655525 -3656839 
3846.684 -3648330 -3629831 -3601670 -3563452 -3514220 -3452360 -3377636 
3850.060 -3290963 -3197858 -3108485 -3036663 -3000040 -3013564 -3082626 
3853.435 -3196872 -3332131 -3459099 -3555236 -3613303 -3636041 -3633117 
3856.810 -3614584 -3588460 -3559903 -3531343 -3503637 -3476619 -3450979 
3860.185 -3426884 -3405384 -3387302 -3373000 -3363038 -3357909 -3358172 
3863.561 -3364419 -3375992 -3390064 -3401636 -3404956 -3394699 -3369219 
3866.936 -3331869 -3290207 -3255085 -3238181 -3247948 -3285964 -3344659 
3870.311 -3408342 -3461301 -3492231 -3499167 -3487137 -3467119 -3450059 
3873.686 -3443583 -3450026 -3465607 -3482469 -3491114 -3485658 -3464194 
3877.062 -3429711 -3388420 -3348572 -3318190 -3303590 -3307240 -3326871 
3880.437 -3356068 -3385395 -3405581 -3410578 -3399368 -3375795 -3347783 
3883.812 -3325851 -3320261 -3337097 -3375927 -3428166 -3479840 -3515535 
3887.187 -3525132 -3506233 -3464128 -3408573 -3351958 -3306385 -3280177 
3890.563 -3276724 -3294087 -3324602 -3359750 -3391444 -3414622 -3427771 
3893.938 -3431223 -3426127 -3413274 -3393614 -3367411 -3336242 -3302209 
3897.313 -3267878 -3236767 -3211278 -3192366 -3179768 -3172038 -3167631 
3900.688 -3165525 -3166512 -3172367 -3185787 -3208186 -3239628 -3277414 
3904.063 -3317006 -3352977 -3380628 -3397559 -3403641 -3400387 -3391444 
3907.439 -3379905 -3368430 -3358994 -3352353 -3348572 -3347223 -3347783 
3910.814 -3349328 -3350972 -3351399 -3349328 -3343935 -3334630 -3322300 
3914.189 -3308785 -3296520 -3288069 -3285668 -3289976 -3299710 -3312994 
3917.564 -3326936 -3339102 -3348210 -3353602 -3355378 -3353241 -3346960 
3920.940 -3335518 -3318913 -3297901 -3274882 -3253671 -3238280 -3231932 
3924.315 -3235583 -3247751 -3264359 -3280210 -3290864 -3293692 -3288694 
3927.690 -3277710 -3263997 -3250777 -3240911 -3236405 -3238641 -3248212 
3931.065 -3265641 -3290207 -3320557 -3353799 -3386020 -3413241 -3432078 
3934.441 -3441019 -3440394 -3432439 -3419914 -3405219 -3390129 -3375072 
3937.816 -3359389 -3342489 -3323582 -3303557 -3283761 -3265937 -3251665 
3941.191 -3242358 -3237885 -3237885 -3241009 -3245548 -3249790 -3252421 
3944.566 -3252520 -3249231 -3243081 -3234794 -3225815 -3218152 -3213416 
3947.942 -3212791 -3216507 -3223611 -3232689 -3241996 -3250053 -3256170 
3951.317 -3260117 -3261892 -3261169 -3258374 -3253243 -3245910 -3237260 
3954.692 -3228117 -3219730 -3213481 -3209469 -3207298 -3206180 -3204206 
3958.067 -3200161 -3193648 -3184241 -3173190 -3161611 -3151118 -3142335 
3961.443 -3136578 -3133749 -3133914 -3136644 -3141381 -3146907 -3152565 
3964.818 -3157368 -3160427 -3161710 -3161512 -3159769 -3157006 -3153355 
3968.193 -3148618 -3142203 -3133979 -3123617 -3111610 -3098944 -3086936 
3971.568 -3077000 -3070058 -3066670 -3066406 -3068643 -3071966 -3074993 
3974.944 -3076803 -3076079 -3072756 -3066670 -3058675 -3049659 -3041072 
3978.319 -3033636 -3028075 -3024620 -3022679 -3021330 -3019520 -3016657 
3981.694 -3012445 -3007082 -3001554 -2996947 -2993887 -2992867 -2993459 
3985.069 -2994841 -2996025 -2995664 -2993196 -2988687 -2982731 -2976907 
3988.445 -2972793 -2971707 -2974439 -2980757 -2989214 -2998099 -3005667 
3991.820 -3010274 -3011458 -3009780 -3006358 -3002870 -3001192 -3002212 
3995.195 -3006325 -3013400 -3022580 -3032484 -3042552 -3051864 -3059629 
3998.570 -3065551 -3069400 -3071144 -3070848 -3068874 
##END=
