
##TITLE=Z189_1_a
##JCAMP-DX=5.01  $$ Nicolet v. 1
##DATATYPE=INFRARED SPECTRUM
##ORIGIN=UniL
##OWNER=Nicolet
##LONGDATE=2011/09/14
##TIME=15:44:32
##SPECTROMETER/DATA SYSTEM=Nicolet iS5
##DATA PROCESSING=
Ratio against background
%Transmittance->Absorbance
Truncated
ElementMultiply or ElementDivide
##COMMENTS=
Number of sample scans: 32
Collection length: 51.22 sec
Sample gain: 2.0
Background collected on: Mer Sep 14 15:42:45 2011 (GMT+02:00);
Number of background scans: 32
Background gain: 2.0
Sample spacing:  1.000
Number of scan points: 12415
Resolution points: 8192
Number of FFT points: 65536
Apodization: N-B fort;
Phase correction: Mertz;
Laser frequency: 15798.0 cm-1
Number of rejected sample scans: 0
Number of rejected background scans: 0
Bench serial number: ASB1000141;
##RESOLUTION=4.000
##XUNITS=1/CM
##YUNITS=ABSORBANCE
##FIRSTX=649.893372
##LASTX=4000.122314
##FIRSTY=0.101319
##MAXX=4000.122314
##MINX=649.893372
##MAXY=0.250732
##MINY=-0.003323
##XFACTOR=1.000000
##YFACTOR=1.000000E-009
##NPOINTS=6950
##DELTAX=0.482117
##ZPD=6100
##XYDATA=(X++(Y..Y))
649.893 101318976 100458296 99699392 99073664 98582984 98211936 97939168 
653.268 97752104 97649160 97633936 97705128 97850880 98048128 98274544 
656.643 98519872 98792704 99118288 99526944 100038168 100648336 101330560 
660.018 102043536 102751640 103435040 104095856 104752352 105427680 
662.911 106137352 106885512 107667112 108472616 109293640 110114544 
665.803 110908440 111623144 112176240 112480760 112492136 112257928 
668.696 111901896 111560632 111313400 111164216 111067504 110958232 
671.589 110783472 110512784 110149432 109719616 109260184 108796552 
674.481 108333712 107860712 107362888 106835424 106289296 105744704 
677.374 105219832 104718872 104229064 103725872 103186168 102599960 
680.267 101974816 101328928 100679536 100033624 99384088 98716464 98018976 
683.642 97293504 96555664 95831024 95143048 94501728 93903176 93333464 
687.016 92778816 92234136 91705888 91207640 90753328 90348024 89986672 
690.391 89658008 89352792 89070120 88820200 88619376 88483920 88423240 
693.766 88437896 88521416 88666960 88873008 89143952 89487176 89907680 
697.141 90401800 90957944 91560432 92194592 92855136 93546256 94278624 
700.516 95060568 95892544 96762008 97648496 98529392 99386208 100210960 
703.890 101003072 101763712 102490024 103171584 103793528 104343864 
706.783 104819800 105231024 105595992 105935928 106265768 106590568 
709.676 106909040 107219640 107528088 107851792 108215528 108643000 
712.569 109147960 109724816 110347392 110972048 111550616 112036624 
715.461 112393400 112601488 112657192 112575256 112386448 112140496 
718.354 111902360 111739488 111720496 111896928 112293064 112902360 
721.247 113684664 114575256 115485152 116319768 116989264 117415256 
724.139 117550800 117387216 116962672 116353208 115663032 115003472 
727.032 114459368 114081712 113879072 113827872 113887464 114019624 
729.925 114201680 114425768 114693856 115006064 115353760 115719208 
732.817 116083400 116432864 116768088 117100712 117448264 117822040 
735.710 118221400 118633944 119042824 119435856 119812440 120183448 
738.603 120565008 120969488 121399240 121845912 122297472 122747624 
741.496 123198672 123660760 124142256 124638784 125125648 125563160 
744.388 125901176 126099136 126138208 126024280 125783992 125453728 
747.281 125070496 124663728 124257112 123872336 123530704 123253416 
750.174 123056176 122942608 122902552 122914112 122954264 123007480 
753.066 123072672 123162456 123296712 123490328 123745432 124048432 
755.959 124373928 124694984 124987248 125235360 125431032 125568080 
758.852 125640560 125643208 125574928 125443992 125268968 125075936 
761.744 124888688 124723288 124582976 124462088 124352440 124252384 
764.637 124170704 124127008 124143232 124236024 124411784 124665616 
767.530 124984768 125351784 125748368 126156416 126556400 126932936 
770.423 127281784 127621632 127997008 128476488 129133864 130011648 
773.315 131092000 132270720 133373784 134173304 134446384 134046104 
776.208 132926448 131161272 128902824 126346248 123664856 120968312 
779.101 118302632 115653768 112978760 110229800 107379520 104427328 
781.993 101398808 98336288 95290216 92315352 89460176 86767072 84270264 
785.368 81990576 79937584 78109648 76498200 75090560 73875208 72844760 
788.743 71995080 71325008 70834256 70521552 70385664 70426304 70646728 
792.118 71052808 71652160 72449360 73440424 74608360 75916288 77311016 
795.493 78721168 80057096 81224328 82122544 82654760 82747472 82355704 
798.867 81477720 80157344 78482760 76573488 74553360 72546936 70653624 
802.242 68934976 67416520 66084176 64895464 63789352 62706844 61605828 
805.617 60470008 59314664 58179240 57116048 56168676 55360120 54683000 
808.992 54102512 53563696 53006264 52383640 51667624 50853128 49953544 
812.367 48992904 47997412 46989244 45987352 45007580 44063052 43167996 
815.742 42334864 41572676 40886812 40277056 39739820 39269112 38859676 
819.116 38507176 38208760 37962108 37764788 37614060 37507952 37446332 
822.491 37432064 37470492 37568608 37733416 37969484 38277328 38653148 
825.866 39087732 39565100 40062400 40550088 40989812 41340984 41565676 
829.241 41634812 41537092 41282820 40904540 40449300 39973352 39533632 
832.616 39175296 38930196 38811052 38811304 38904284 39046364 39186464 
835.990 39265812 39232084 39049700 38703348 38204128 37584648 36894732 
839.365 36188044 35512384 34905420 34388488 33968752 33643184 33402656 
842.740 33236544 33134044 33086554 33086840 33128322 33205784 33314530 
846.115 33449888 33607276 33780648 33962408 34144352 34318196 34477688 
849.490 34620268 34747528 34863840 34975296 35087796 35205812 35332884 
852.865 35472476 35628868 35807696 36016116 36260436 36546196 36877416 
856.239 37256248 37685132 38167404 38707620 39311768 39986248 40737212 
859.614 41570780 42494444 43516828 44649028 45901464 47278760 48774640 
862.989 50365616 52010056 53645004 55198868 56598048 57775548 58686916 
866.364 59314096 59671088 59801348 59778112 59697280 59658276 59764312 
869.739 60107368 60754856 61753360 63119860 64842640 66877136 69146136 
873.113 71543144 73921200 76110488 77932872 79207752 79794376 79608160 
876.488 78633752 76928072 74608640 71838872 68789536 65631912 62519572 
879.863 59566792 56858048 54443456 52342184 50553072 49059820 47839388 
883.238 46864660 46108596 45547032 45155200 44910492 44792120 44780476 
886.613 44860888 45025112 45272496 45609960 46049464 46604964 47287548 
889.987 48103300 49052584 50131824 51336648 52665064 54119516 55707700 
893.362 57440720 59330236 61385716 63609564 65991320 68499216 71072280 
896.737 73617776 75998968 78053176 79610184 80505376 80624640 79920336 
900.112 78423896 76238624 73526912 70491040 67327680 64223988 61335572 
903.487 58766612 56582612 54807824 53434732 52433732 51762576 51377184 
906.862 51234256 51298460 51545756 51960984 52539136 53282064 54196352 
910.236 55289740 56568496 58032352 59669416 61450332 63321872 65211380 
913.611 67026308 68663424 70032760 71062912 71718360 72005248 71970440 
916.986 71695024 71274672 70815336 70411576 70130608 70010920 70052656 
920.361 70222592 70457672 70682360 70823408 70822552 70655304 70336536 
923.736 69923920 69505672 69192760 69104368 69339928 69973552 71036848 
927.110 72513296 74334216 76379720 78497960 80497872 82174976 83340832 
930.485 83821776 83495008 82304320 80265592 77473048 74084920 70318968 
933.860 66406280 62568516 59003544 55849136 53190484 51064912 49469188 
937.235 48377960 47754092 47560444 47757272 48298372 49127896 50166076 
940.610 51309908 52445136 53444664 54193948 54610852 54649668 54314308 
943.985 53651304 52744708 51694680 50601096 49555120 48620892 47836980 
947.359 47218912 46763020 46455044 46274988 46203300 46220692 46308268 
950.734 46449512 46626804 46824204 47028900 47231768 47429116 47621852 
954.109 47815084 48015284 48228832 48461456 48717444 49000024 49312260 
957.484 49656076 50032468 50440820 50879168 51343844 51831488 52339416 
960.859 52866988 53414912 53985024 54578504 55195480 55834588 56494184 
964.233 57173340 57872376 58593660 59340148 60114716 60918836 61752824 
967.608 62615976 63507876 64428716 65379276 66359796 67369616 68406000 
970.983 69465312 70544864 71644224 72766704 73918576 75108160 76343328 
974.358 77629640 78971032 80370040 81830048 83356720 84957680 86641656 
977.733 88416976 90290912 92270112 94362536 96578672 98932496 101440872 
981.108 104119432 106980160 110028312 113261912 116670808 120235192 
984.000 123924872 127689736 131449400 135096528 138482704 141431664 
986.893 143769824 145332656 146001600 145725152 144522832 142486544 
989.786 139762912 136551616 133070736 129534360 126150608 123084192 
992.678 120454144 118336264 116757992 115713408 115173512 115100552 
995.571 115454760 116199512 117305640 118745472 120492672 122522624 
998.464 124807904 127320304 130029264 132894008 135858464 138849616 
1001.356 141765952 144489312 146898592 148874816 150329104 151212400 
1004.249 151522592 151305328 150650112 149687520 148564160 147440128 
1007.142 146474384 145796848 145511504 145686496 146351760 147510240 
1010.035 149145232 151232896 153746176 156660192 159953408 163601600 
1012.927 167579248 171860320 176414848 181212016 186213648 191357808 
1015.820 196551056 201652624 206461408 210746000 214258528 216770928 
1018.713 218134384 218299216 217342384 215451120 212921120 210118672 
1021.605 207409312 205157584 203664592 203130240 203664064 205269136 
1024.498 207864816 211297712 215376768 219901600 224657024 229444224 
1027.391 234077232 238371904 242169760 245339488 247788848 249482816 
1030.284 250440800 250731648 250448592 249699872 248591008 247208000 
1033.177 245622800 243883296 242008400 239983808 237759264 235258864 
1036.070 232386112 229051712 225196144 220797296 215879600 210503424 
1038.963 204757360 198737616 192543504 186277200 180032256 173898896 
1041.856 167959936 162278736 156902176 151859632 147164352 142825104 
1044.750 138852224 135260352 132072536 129314616 127009240 125174136 
1047.643 123817384 122938040 122526976 122568928 123043496 123922400 
1050.536 125171392 126749184 128606480 130694136 132963720 135368448 
1053.429 137865872 140409040 142938560 145383216 147650304 149632848 
1056.322 151226848 152333344 152875952 152812928 152137936 150886368 
1059.215 149131840 146992336 144617680 142172976 139840864 137786736 
1062.108 136148768 135037472 134519440 134624560 135348640 136658528 
1065.001 138493040 140761600 143356368 146143712 148973376 151702752 
1067.894 154192992 156328224 158027552 159234176 159917424 160064656 
1070.787 159675968 158763488 157350736 155475792 153188240 150545968 
1073.680 147619200 144483776 141225392 137947344 134758928 131779016 
1076.573 129130168 126916168 125223648 124111568 123603192 123689352 
1079.466 124323192 125427720 126885680 128546120 130241680 131783056 
1082.359 132993280 133737864 133936224 133588296 132771416 131637576 
1085.252 130379040 129203456 128322008 127906352 128086088 128938080 
1088.146 130475864 132649752 135344256 138398240 141602592 144721552 
1091.039 147536176 149842304 151482816 152363280 152443664 151740544 
1093.932 150313072 148259568 145698720 142753792 139550272 136194160 
1096.825 132767856 129334200 125933048 122589976 119321712 116138424 
1099.718 113045000 110041376 107122824 104282648 101516504 98828272 96233856 
1103.093 93763312 91455304 89357432 87518200 85979920 84781320 83952568 
1106.468 83515288 83484768 83868152 84664128 85860792 87436168 89356744 
1109.844 91575488 94036752 96673456 99402912 102135712 104766992 107180328 
1113.219 109265216 110916056 112049400 112617336 112605056 112033664 
1116.112 110949976 109423328 107534576 105365424 103001272 100518096 
1119.005 97977744 95429912 92906344 90425744 87998800 85633848 83341512 
1122.380 81138328 79044152 77081776 75274576 73641880 72201424 70969112 
1125.755 69959536 69188136 68670448 68419960 68446608 68754056 69337600 
1129.131 70182288 71263160 72546072 73983240 75517064 77081536 78599168 
1132.506 79995144 81203640 82176704 82897232 83381416 83679808 83863016 
1135.881 84016608 84225928 84556712 85052256 85722960 86545440 87462552 
1139.256 88390296 89233712 89888160 90258736 90272800 89878504 89052056 
1142.632 87793408 86121864 84071128 81686256 79025392 76152384 73136784 
1146.007 70052616 66966192 63938320 61021356 58253880 55665588 53277040 
1149.382 51099348 49137508 47390752 45854288 44520080 43378732 42420384 
1152.757 41634960 41013408 40548156 40231508 40057496 40020000 40113820 
1156.133 40334608 40679424 41147040 41738068 42454432 43298336 44271180 
1159.508 45372384 46598696 47944644 49400908 50953908 52585656 54269892 
1162.883 55971800 57650668 59256820 60737860 62043676 63124648 63938624 
1166.258 64452544 64641880 64494824 64013376 63213864 62124140 60781800 
1169.634 59231184 57515192 55676816 53757000 51790536 49810784 47848192 
1173.009 45928052 44073868 42305424 40637836 39083596 37651456 36346456 
1176.384 35171140 34125392 33206966 32412414 31737894 31178930 30731738 
1179.759 30393232 30161210 30034326 30011602 30092134 30274630 30556906 
1183.135 30936312 31409360 31973116 32623854 33357140 34167044 35043932 
1186.510 35974504 36942132 37925552 38901168 39844948 40730844 41534428 
1189.885 42234904 42815308 43267036 43590896 43798836 43912096 43959060 
1193.260 43973944 43989124 44035068 44137464 44313188 44572356 44916520 
1196.635 45339540 45827592 46358812 46906328 47434840 47904388 48273120 
1200.011 48494796 48525956 48330668 47882080 47171520 46209488 45028564 
1203.386 43676844 42213796 40704860 39208040 37773172 36438048 35225144 
1206.761 34145176 33199452 32382674 31686068 31099442 30613254 30218112 
1210.136 29905882 29670394 29506380 29410604 29381354 29417802 29519680 
1213.512 29686748 29918128 30212178 30566504 30976910 31437642 31940270 
1216.887 32473468 33024628 33580140 34126540 34653496 35152456 35617464 
1220.262 36044412 36430480 36774376 37076824 37342472 37580056 37802308 
1223.637 38026228 38270128 38551312 38885548 39283948 39752676 40292252 
1227.013 40897256 41556160 42250280 42956956 43648372 44294732 44869084 
1230.388 45347116 45711072 45951628 46068696 46072524 45983304 45833116 
1233.763 45663176 45518476 45449492 45503388 45720456 46135312 46772504 
1237.138 47647364 48768336 50136732 51747232 53585924 55630600 57847736 
1240.514 60190712 62605640 65028220 67386104 69608640 71621056 73352184 
1243.889 74743888 75750576 76349136 76540768 76350872 75825216 75021200 
1247.264 74008736 72858864 71639456 70415472 69236664 68134808 67119768 
1250.639 66177280 65271980 64353160 63370028 62278880 61054768 59698040 
1254.015 58233532 56707600 55175728 53699556 52334408 51120072 50080284 
1257.390 49217288 48513840 47933472 47426712 46938372 46408324 45785176 
1260.765 45030476 44120848 43052440 41837912 40505416 39090192 37633644 
1264.140 36177852 34758760 33407270 32146626 30990860 29947414 29017508 
1267.516 28197414 27480052 26856108 26316414 25851936 25454598 25118180 
1270.891 24836608 24604974 24418150 24271594 24161342 24084458 24038546 
1274.266 24021632 24031506 24065090 24119062 24188980 24270334 24358674 
1277.641 24449066 24535900 24613530 24675742 24717022 24733718 24723582 
1281.017 24686544 24623068 24533202 24415978 24269280 24091288 23882350 
1284.392 23646466 23392912 23134822 22887956 22669402 22493842 22373960 
1287.767 22319856 22339494 22440316 22630130 22915934 23304032 23797782 
1291.142 24396138 25091604 25868780 26704218 27563576 28404688 29181726 
1294.518 29845862 30357236 30689418 30833816 30801662 30621470 30335170 
1297.893 29987814 29623780 29282592 28992430 28773438 28636376 28583928 
1301.268 28611212 28706494 28853174 29029552 29212630 29381318 29516558 
1304.643 29604304 29635662 29605936 29514642 29365116 29164398 28922902 
1308.019 28653648 28371934 28092522 27829186 27593658 27394604 27239348 
1311.394 27134266 27085242 27097728 27175958 27322156 27535758 27813962 
1314.769 28153466 28551088 29004968 29514500 30079492 30699588 31373244 
1318.144 32098606 32873600 33696820 34566516 35479952 36430552 37405268 
1321.520 38384636 39341076 40239248 41042652 41714536 42224752 42558064 
1324.895 42717832 42730888 42642420 42516552 42422208 42419652 42555324 
1328.270 42850120 43297860 43868256 44516628 45195092 45858780 46477908 
1331.645 47038168 47541552 48002812 48446120 48901448 49398048 49962800 
1335.021 50616064 51367188 52214296 53142248 54126948 55134608 56127044 
1338.396 57066620 57914896 58637992 59210376 59614756 59845912 59908896 
1341.771 59816668 59585868 59232740 58772488 58216408 57573108 56849512 
1345.146 56050360 55179868 54241432 53239024 52178424 51069124 49924736 
1348.521 48764924 47615344 46504092 45464612 44531276 43736716 43113836 
1351.897 42690816 42489512 42526124 42808472 43335532 44094408 45059588 
1355.272 46190144 47426084 48698312 49927260 51031000 51939176 52592840 
1358.647 52952284 53001736 52749272 52228080 51490316 50611072 49679624 
1362.022 48787024 48024720 47464224 47145112 47072324 47216108 47522920 
1365.398 47921408 48338260 48703764 48953884 49043792 48947912 48664772 
1368.773 48214320 47633168 46966392 46255452 45537792 44843144 44193364 
1372.148 43608920 43110872 42720976 42462108 42352364 42398756 42594864 
1375.523 42921624 43353836 43865212 44435652 45053300 45713244 46417360 
1378.899 47171668 47985604 48869888 49834828 50885800 52016968 53203668 
1382.274 54395948 55525348 56502900 57233708 57634588 57635308 57195868 
1385.649 56316180 55050728 53510996 51848176 50234996 48813828 47670552 
1389.024 46831848 46273324 45942640 45774832 45709820 45692628 45673044 
1392.400 45608412 45459792 45195936 44801192 44279912 43656836 42967016 
1395.775 42244872 41511096 40770112 40016728 39246956 38468256 37706456 
1399.150 37000396 36390124 35905612 35556360 35334432 35220544 35195068 
1402.525 35242788 35355708 35531908 35773080 36079872 36450372 36879760 
1405.901 37360992 37887228 38452472 39051476 39679880 40332572 41004272 
1409.276 41690356 42387468 43094660 43812980 44544088 45287096 46036052 
1412.651 46778408 47496712 48172336 48788876 49338468 49822716 50251808 
1416.026 50641232 51008752 51373044 51752272 52167624 52641760 53192020 
1419.402 53826008 54533948 55290228 56059484 56806232 57502636 58128936 
1422.777 58678424 59156756 59580624 59972000 60351504 60732452 61116472 
1426.152 61495948 61857496 62187492 62474920 62713160 62900624 63040056 
1429.527 63138404 63204928 63253068 63299260 63361248 63457332 63601084 
1432.903 63798836 64048320 64340980 64666292 65017024 65396920 65824300 
1436.278 66332272 66953896 67708480 68591280 69571392 70599320 71612416 
1439.653 72545720 73327776 73888008 74170520 74132712 73753976 73033984 
1443.028 71988392 70645552 69041704 67223192 65240176 63140436 60973428 
1446.404 58786680 56632816 54578428 52696484 51056156 49707120 48666552 
1449.779 47922888 47448848 47217880 47213112 47426896 47852856 48473308 
1453.154 49250016 50130152 51041212 51901572 52632484 53159776 53440468 
1456.529 53484012 53366464 53198800 53077284 53057216 53147304 53333648 
1459.905 53599268 53933588 54330044 54779444 55264868 55755280 56206384 
1463.280 56572912 56817676 56931024 56936804 56889740 56853292 56873760 
1466.655 56972688 57143672 57363196 57597432 57810484 57965516 58017168 
1470.030 57911336 57583928 56967060 56015188 54730504 53182432 51488336 
1473.406 49774592 48133504 46604412 45190900 43886804 42695420 41638824 
1476.781 40748568 40047360 39540204 39209452 39025088 38955060 38978764 
1480.156 39091500 39301828 39625248 40073848 40652352 41357528 42182432 
1483.531 43122068 44176492 45348732 46637984 48034568 49509252 51008084 
1486.906 52458292 53763224 54810940 55491648 55701336 55368064 54475572 
1490.282 53076048 51285636 49250316 47115900 44987072 42916320 40918264 
1493.657 38980140 37083752 35226508 33428204 31734116 30204472 28892338 
1497.032 27826680 27005302 26406018 25997688 25753130 25653538 25685562 
1500.407 25837130 26095002 26442534 26860408 27329356 27824844 28316794 
1503.783 28766250 29114048 29284292 29189488 28751984 27946734 26830942 
1507.158 25533448 24190872 22893230 21668794 20505942 19382920 18287468 
1510.533 17221870 16203659 15257764 14403791 13653854 13007895 12458292 
1513.908 11993201 11601089 11271759 10995011 10761572 10564855 10401858 
1517.284 10275121 10189633 10149235 10151507 10186072 10235903 10284010 
1520.659 10320688 10352177 10399245 10487932 10634662 10838612 11084703 
1524.034 11352427 11626239 11899405 12177583 12474864 12807838 13186902 
1527.409 13612380 14076950 14570799 15087198 15623859 16184330 16773315 
1530.785 17394346 18048904 18735308 19450416 20191314 20955904 21742080 
1534.160 22544862 23356266 24163968 24954366 25710028 26412002 27043102 
1537.535 27584088 28019960 28341656 28549142 28650746 28658460 28588528 
1540.910 28456478 28277680 28065412 27826468 27558704 27251028 26889878 
1544.286 26467290 25989106 25477086 24961700 24468976 24008010 23568940 
1547.661 23127692 22658406 22145344 21593464 21028234 20486908 19999682 
1551.036 19576810 19207576 18868104 18535466 18197626 17860356 17543394 
1554.411 17269690 17051462 16882258 16736466 16576542 16355533 16024986 
1557.787 15546962 14914059 14171697 13413139 12738261 12203482 11810669 
1561.162 11528575 11316445 11137799 10963441 10774139 10562615 10334430 
1564.537 10106196 9899436 9732792 9612653 9532883 9477036 9426919 9367327 
1568.395 9292511 9207588 9126573 9066177 9037623 9044795 9084414 9150260 
1572.252 9235138 9331949 9433352 9528921 9606962 9657472 9676615 9673125 
1576.109 9667569 9687050 9750040 9861032 10011246 10186411 10372843 10562377 
1579.967 10753387 10949543 11156769 11379978 11621065 11878224 12147188 
1583.342 12421979 12695579 12960817 13208454 13428414 13611320 13749979 
1586.717 13842842 13895079 13919301 13933261 13956937 14010558 14109569 
1590.093 14265369 14483912 14765362 15103631 15483502 15882472 16268391 
1593.468 16603909 16854322 16990642 16996744 16872992 16635306 16311770 
1596.843 15933992 15534598 15139723 14767761 14431844 14139485 13894156 
1600.218 13695878 13541479 13425475 13341893 13286750 13259454 13262460 
1603.594 13299390 13372542 13480055 13615766 13768789 13925528 14072261 
1606.969 14194942 14280298 14316801 14293721 14203501 14043273 13816810 
1610.344 13535496 13218633 12891078 12576527 12293424 12050906 11847646 
1613.719 11674194 11516190 11359672 11193656 11015299 10830969 10657277 
1617.094 10514443 10418589 10377390 10388046 10440752 10520688 10611879 
1620.470 10699895 10772577 10824039 10855870 10877782 10903808 10947708 
1623.845 11017712 11114174 11230920 11359944 11493837 11628008 11759873 
1627.220 11889360 12016159 12141668 12268372 12400670 12544057 12703835 
1630.595 12882886 13079939 13290234 13504323 13711266 13900792 14063637 
1633.971 14194189 14292420 14365328 14425986 14491586 14578405 14694923 
1637.346 14841710 15012694 15197744 15385036 15562896 15723754 15864532 
1640.721 15988717 16103825 16219376 16341254 16469017 16595131 16706819 
1644.096 16789846 16831278 16824804 16773487 16691703 16601259 16527388 
1647.472 16491801 16506635 16574511 16689569 16839926 17008596 17170784 
1650.847 17296548 17348030 17289894 17109498 16842748 16573444 16385363 
1654.222 16317757 16353263 16447991 16557334 16650386 16711708 16736709 
1657.597 16729098 16695112 16640127 16565630 16469017 16345315 16189661 
1660.973 15999304 15775049 15521515 15247708 14965500 14688068 14426979 
1664.348 14190046 13978460 13787054 13604141 13414027 13198754 12941802 
1667.723 12633183 12272052 11869234 11444166 11020907 10620299 10255884 
1671.098 9932692 9648427 9394955 9159295 8925590 8676393 8397881 8087038 
1674.956 7756887 7436020 7156112 6939406 6790048 6695720 6636031 6592128 
1678.813 6553072 6518023 6494984 6494445 6523405 6579411 6650902 6719645 
1682.671 6768374 6789005 6790755 6799539 6847536 6955129 7121149 7330363 
1686.528 7563852 7806845 8049738 8286755 8514745 8730480 8930866 9114121 
1690.385 9281036 9435689 9583555 9729878 9875336 10014434 10134753 10219824 
1694.243 10253781 10230102 10159072 10069536 9997617 9965984 9974019 9997685 
1698.100 10000973 9942558 9788943 9531223 9197401 8849226 8549077 8329985 
1701.958 8184336 8081502 7984328 7863356 7699885 7487492 7231673 6947251 
1705.815 6653728 6367431 6098292 5848495 5615356 5393110 5176041 4959081 
1709.673 4739415 4516981 4294025 4074828 3863632 3663165 3473845 3293956 
1713.530 3120348 2950480 2783445 2618942 2456767 2295452 2131366 1961318 
1717.387 1786612 1615369 1461115 1337425 1251484 1202008 1179947 1171973 
1721.245 1164398 1147820 1118453 1078758 1035379 995957 965671 944916 930804 
1725.584 919315 907395 893881 878608 861543 841292 815298 781871 741542 
1729.924 697468 654592 616233 580299 538264 475335 376366 233425 55668 
1734.264 -130859 -292110 -404775 -465548 -486996 -488452 -488154 -499473 
1738.121 -528563 -573833 -627833 -681396 -726750 -760422 -783013 -797499 
1741.979 -806065 -809769 -809008 -804345 -796672 -787478 -777555 -767004 
1745.836 -754270 -737632 -716462 -691949 -667866 -649041 -640207 -644045 
1749.693 -660720 -687186 -718811 -750235 -776497 -794291 -801567 -798425 
1753.551 -786485 -770047 -755097 -748349 -755792 -779970 -818533 -863409 
1757.408 -904544 -934004 -949014 -952651 -952089 -955792 -970372 -997381 
1761.266 -1033379 -1070830 -1102162 -1121430 -1127874 -1123611 -1112870 
1764.641 -1099287 -1086199 -1076151 -1070631 -1071193 -1077804 -1088677 
1768.016 -1100212 -1107549 -1107814 -1100840 -1091057 -1085240 -1091685 
1771.391 -1115349 -1155204 -1203118 -1246831 -1276631 -1288128 -1284098 
1774.767 -1271379 -1256908 -1245444 -1237349 -1230840 -1223241 -1213692 
1778.142 -1204044 -1198327 -1200442 -1211676 -1230113 -1250102 -1265465 
1781.517 -1272898 -1272964 -1269859 -1269132 -1275079 -1288260 -1305901 
1784.892 -1322253 -1332724 -1334376 -1327934 -1315712 -1300318 -1283800 
1788.268 -1267117 -1251060 -1237745 -1230906 -1235631 -1256082 -1293348 
1791.643 -1343228 -1396737 -1444063 -1477283 -1494719 -1499506 -1498186 
1795.018 -1496436 -1497921 -1502940 -1510568 -1518955 -1527704 -1537345 
1798.393 -1549727 -1565871 -1585581 -1606874 -1626779 -1643284 -1655266 
1801.769 -1664013 -1670714 -1676490 -1680714 -1681804 -1678008 -1668304 
1805.144 -1653715 -1636946 -1620639 -1607402 -1597960 -1591952 -1588519 
1808.519 -1587429 -1589443 -1595484 -1606246 -1620474 -1635461 -1646849 
1811.894 -1651503 -1648037 -1638762 -1627241 -1618263 -1614598 -1616051 
1815.270 -1619913 -1621795 -1617767 -1605685 -1586142 -1561513 -1535067 
1818.645 -1509313 -1485341 -1463150 -1442345 -1422828 -1405192 -1390527 
1822.020 -1379859 -1374145 -1374013 -1379298 -1389041 -1401988 -1415066 
1825.395 -1424743 -1427682 -1421540 -1406678 -1386498 -1367011 -1355252 
1828.771 -1357002 -1374178 -1403441 -1437194 -1465627 -1481609 -1482633 
1832.146 -1471042 -1451757 -1429862 -1408924 -1389570 -1370512 -1349934 
1835.521 -1326944 -1302168 -1277259 -1253241 -1229816 -1204473 -1173313 
1838.896 -1133261 -1083059 -1024223 -961181 -898857 -841980 -793729 -755262 
1842.754 -725923 -703131 -682918 -661249 -633425 -596268 -548783 -492126 
1846.611 -430065 -367698 -310619 -263401 -228399 -205316 -192234 -186338 
1850.469 -186074 -191936 -205448 -228498 -261680 -303368 -350052 -398187 
1854.326 -445126 -490669 -536704 -585514 -638255 -694530 -751558 -805899 
1858.183 -855836 -901138 -943559 -985876 -1029181 -1073341 -1116010 -1154279 
1862.041 -1186035 -1210916 -1230278 -1245344 -1256809 -1263615 -1264044 
1865.416 -1257172 -1244717 -1230939 -1222183 -1224628 -1241115 -1269363 
1868.791 -1302961 -1333154 -1352675 -1358951 -1353699 -1341610 -1327010 
1872.167 -1312904 -1300054 -1287996 -1276433 -1266456 -1260311 -1260641 
1875.542 -1268670 -1283536 -1301772 -1319742 -1334277 -1345012 -1353898 
1878.917 -1364071 -1378241 -1397265 -1419591 -1442312 -1462721 -1479760 
1882.292 -1493629 -1505813 -1517073 -1526912 -1533879 -1535992 -1532690 
1885.667 -1525525 -1518129 -1514530 -1517568 -1527804 -1543123 -1559862 
1889.043 -1574521 -1584689 -1590665 -1594593 -1598687 -1604662 -1612552 
1892.418 -1622026 -1632358 -1642624 -1652658 -1661505 -1667644 -1669063 
1895.793 -1663716 -1650810 -1631797 -1609812 -1588717 -1570955 -1557716 
1899.168 -1546623 -1534869 -1519648 -1500200 -1478208 -1457470 -1441123 
1902.544 -1430985 -1425635 -1421969 -1416222 -1406645 -1392971 -1378009 
1905.919 -1364732 -1355813 -1351982 -1352444 -1355450 -1359843 -1365293 
1909.294 -1372328 -1381444 -1392146 -1402615 -1410509 -1414373 -1414472 
1912.669 -1411995 -1409683 -1408824 -1410113 -1412523 -1415066 -1417477 
1916.045 -1421705 -1430622 -1447761 -1473783 -1505648 -1537379 -1562702 
1919.420 -1577327 -1581586 -1579935 -1578912 -1584755 -1599842 -1622587 
1922.795 -1648433 -1671704 -1688504 -1698108 -1702696 -1704709 -1705897 
1926.170 -1705534 -1701871 -1693785 -1681771 -1668601 -1658666 -1655134 
1929.546 -1659029 -1668139 -1678932 -1687844 -1694148 -1699396 -1707284 
1932.921 -1720551 -1739362 -1760714 -1780348 -1793877 -1799751 -1800312 
1936.296 -1799751 -1801962 -1809056 -1819483 -1829744 -1837366 -1840764 
1939.671 -1841853 -1843701 -1848914 -1857228 -1865773 -1869237 -1864189 
1943.047 -1850102 -1830635 -1810706 -1795197 -1784638 -1776850 -1766654 
1946.422 -1750022 -1726095 -1697283 -1668205 -1643581 -1624303 -1608161 
1949.797 -1590731 -1568479 -1540746 -1511294 -1486529 -1472330 -1471604 
1953.172 -1483458 -1503139 -1526186 -1549727 -1573927 -1601460 -1635296 
1956.548 -1675566 -1719627 -1761836 -1797111 -1822122 -1837531 -1845482 
1959.923 -1849904 -1851388 -1848716 -1838983 -1821463 -1797210 -1771736 
1963.298 -1751012 -1739758 -1738372 -1743389 -1748867 -1749989 -1745501 
1966.673 -1738339 -1734577 -1739428 -1754972 -1779853 -1810013 -1841094 
1970.049 -1871646 -1902030 -1933929 -1968036 -2001712 -2030042 -2047620 
1973.424 -2051280 -2040332 -2017840 -1985781 -1943858 -1887580 -1810574 
1976.799 -1708835 -1585680 -1453177 -1329124 -1230906 -1169513 -1145951 
1980.174 -1152924 -1175692 -1200905 -1219639 -1228164 -1228362 -1223934 
1983.550 -1218285 -1213196 -1209198 -1207249 -1209529 -1219078 -1237844 
1986.925 -1265168 -1297114 -1326547 -1348018 -1358588 -1360339 -1358588 
1990.300 -1359975 -1367935 -1380487 -1391353 -1392311 -1378142 -1348844 
1993.675 -1309370 -1268537 -1234805 -1211941 -1200442 -1197270 -1198162 
1997.051 -1200838 -1204704 -1210619 -1218912 -1228296 -1235267 -1236721 
2000.426 -1231402 -1220201 -1208075 -1200475 -1199748 -1206522 -1216533 
2003.801 -1225620 -1229353 -1226611 -1218251 -1207414 -1195618 -1182301 
2007.176 -1165514 -1144365 -1119943 -1097833 -1084976 -1087091 -1105368 
2010.552 -1135574 -1167695 -1190265 -1195155 -1178699 -1143902 -1097006 
2013.927 -1044949 -993149 -943658 -897633 -856200 -821146 -794853 -778051 
2017.784 -768658 -761018 -748118 -724765 -689568 -647817 -607849 -579260 
2021.642 -568142 -575024 -594878 -620620 -645269 -665087 -680106 -691850 
2025.499 -701411 -708887 -711798 -707564 -696647 -681297 -666145 -655823 
2029.356 -650894 -648214 -641597 -622936 -587367 -534156 -467236 -392858 
2033.214 -317440 -246314 -182497 -128276 -85378 -56324 -42542 -42310 -52547 
2037.553 -66627 -76764 -77659 -67521 -48770 -27135 -8581 3313 8482 10205 
2042.375 13055 20411 34228 53249 75088 96861 117210 135572 152575 169712 
2047.197 188374 209789 235812 265948 298143 327918 348013 350600 331102 
2051.537 288792 229149 162784 103257 61965 44600 49637 68228 89371 102429 
2056.358 102197 89139 68394 46456 28728 17163 11563 10768 13552 20742 33532 
2061.662 52421 75916 101136 123541 140676 152012 160431 169414 182872 201833 
2066.484 224673 247482 266877 280470 288759 293534 296816 300132 302619 
2070.824 303017 299867 292307 280968 266910 250432 231469 208728 182176 
2075.163 153338 126060 105644 98021 105975 129076 162619 200208 235315 
2079.503 263793 283786 296385 303680 307194 307791 305835 301856 297048 
2083.843 293666 293368 296452 301326 304741 302751 293169 275696 252587 
2088.182 227093 202098 178927 156553 133053 106671 77673 48278 21935 1954 
2093.004 -9641 -13253 -9940 -1756 10039 25414 44898 68195 94342 120657 
2097.826 144024 162619 176043 185888 194739 204551 215921 228055 239393 
2102.165 248775 256201 262965 270888 281332 293700 306498 317739 325829 
2106.505 331002 334981 340022 347615 357729 368606 378091 384922 389433 
2110.844 393744 401173 413444 431155 451851 472317 488670 498787 502005 
2115.184 499517 493347 485287 476331 467375 458518 450790 445384 442996 
2119.524 444355 448634 454372 460077 464522 467109 468436 468602 467574 
2123.863 463825 456130 443294 425815 405683 385320 367612 352855 339789 
2128.203 325133 305371 278282 243669 203623 161425 120525 82942 49571 20974 
2133.025 -2186 -18587 -26340 -25114 -16632 -4903 4241 5268 -3876 -22530 
2137.846 -46650 -70702 -90479 -103962 -111249 -114297 -114661 -112541 
2141.704 -107606 -99953 -89717 -80872 -77096 -81237 -93328 -109957 -125327 
2146.043 -133609 -132217 -122313 -108931 -98728 -96608 -104724 -122644 
2149.901 -147255 -177694 -214423 -260090 -318334 -390243 -475014 -569167 
2153.758 -668593 -769220 -869163 -964950 -1051031 -1116175 -1144993 -1118951 
2157.616 -1026405 -867311 -658205 -428046 -209952 -31940 91161 159868 185756 
2161.955 184861 172563 160066 151183 147869 149625 155161 163646 173193 
2166.295 180087 181048 172231 152841 124568 91824 58750 29324 4439 -17096 
2171.117 -36744 -55694 -72623 -83953 -86703 -79315 -63480 -44629 -29554 
2175.456 -24949 -35418 -62188 -103465 -156364 -216576 -278700 -337902 
2179.314 -388488 -424570 -443008 -443008 -427417 -402756 -376802 -354687 
2183.171 -339093 -328101 -317606 -303799 -285322 -263435 -242009 -224060 
2187.029 -210913 -200348 -188160 -170076 -144407 -112376 -77659 -45026 
2190.886 -16964 6726 29125 54044 83671 117807 153139 185523 210651 226463 
2195.708 234287 236144 235182 234320 234586 237006 241481 248211 256931 
2200.047 266678 274933 278514 273441 257096 229580 194043 155691 120591 
2204.387 94442 80324 79197 90399 111874 141803 178629 220165 264622 309681 
2209.209 352556 391588 425649 453775 475999 491755 500313 501375 495503 
2213.548 484358 471322 460276 454007 453643 457092 461305 462101 456462 
2217.888 443460 424588 402102 378058 354115 330505 307261 286007 268999 
2222.228 258953 258389 266877 280802 294329 300861 295656 277884 250399 
2226.567 219833 192750 174684 167524 170640 180518 192750 204021 212142 
2230.907 215855 215855 212407 206971 201203 196860 195766 199446 207999 
2235.246 220629 236707 255803 278183 305868 340187 381706 428933 477823 
2239.586 523037 559961 585773 600671 608037 612218 617427 626618 639825 
2243.926 656052 673109 689436 703475 714924 722259 724848 720998 710411 
2248.265 693717 673806 654127 638299 628742 625789 628278 633985 641086 
2252.605 649150 659271 672511 689801 710477 731884 750836 764246 769988 
2256.944 767864 759267 746090 730689 715157 701085 690200 683927 682998 
2261.284 687412 695709 705565 714327 719836 721629 721429 721363 723686 
2265.624 729329 736863 743268 745326 740680 728797 711971 693120 675365 
2269.963 660897 649747 641086 633653 627083 622205 620679 624893 636175 
2274.303 655056 680542 710378 742339 774037 803514 829440 851119 868316 
2278.642 881962 893184 903344 914334 927018 941363 957037 973508 990112 
2282.982 1007215 1025249 1044845 1065936 1087627 1108089 1125363 1137821 
2286.839 1144797 1146624 1144365 1139249 1132140 1123337 1113171 1102641 
2290.697 1093805 1089586 1092975 1105930 1129050 1160212 1195629 1231348 
2294.554 1263846 1290963 1312764 1330711 1346897 1363250 1381199 1400811 
2298.412 1422119 1444259 1466600 1488078 1507894 1524884 1538717 1549358 
2302.269 1557438 1564554 1572568 1582611 1595481 1610646 1626676 1642042 
2306.126 1655812 1667486 1677598 1687311 1697722 1709464 1723070 1738239 
2309.984 1755073 1773337 1792867 1813496 1834524 1854889 1873524 1889630 
2313.841 1902975 1914656 1925839 1938552 1953996 1972968 1995269 2020401 
2317.699 2047466 2075897 2105562 2136594 2169393 2204859 2242526 2281995 
2321.556 2321567 2358445 2388495 2407220 2410485 2395359 2361710 2312307 
2325.414 2252651 2190006 2131699 2084087 2050528 2031653 2025295 2028058 
2329.271 2035981 2045968 2056254 2066009 2074931 2083021 2090046 2096206 
2333.128 2102166 2109457 2119679 2134862 2155574 2181681 2211586 2242459 
2336.986 2271969 2297883 2319035 2335492 2347918 2357778 2366574 2375835 
2340.843 2386830 2400490 2416616 2433709 2448903 2458400 2458033 2445071 
2344.701 2419215 2383665 2344719 2311008 2290722 2290822 2315305 2364808 
2348.558 2437207 2528082 2631509 2741063 2849944 2952381 3044131 3122951 
2352.416 3188735 3243045 3288614 3327443 3361401 3391956 3419673 3446224 
2356.273 3472976 3501368 3532667 3566908 3603156 3639775 3674726 3707040 
2360.130 3736583 3763387 3788020 3810381 3830003 3845814 3857481 3864736 
2363.988 3868613 3870519 3871388 3871689 3870653 3867276 3859955 3848489 
2367.845 3832744 3813791 3792800 3770439 3746810 3721811 3695211 3667241 
2371.703 3639007 3611743 3586685 3564836 3546363 3531097 3519038 3510420 
2375.560 3506010 3506678 3513059 3524984 3541753 3562097 3584848 3609838 
2379.417 3636968 3667475 3702329 3742432 3787819 3837792 3891146 3946413 
2383.275 4002356 4057738 4111521 4162534 4209505 4251395 4287366 4316847 
2387.132 4340005 4357308 4369022 4375013 4375415 4369959 4358881 4343118 
2390.990 4324310 4304231 4284722 4266720 4250458 4235668 4221616 4208200 
2394.847 4195453 4183442 4172603 4162400 4151896 4140288 4127409 4113661 
2398.705 4100951 4091920 4089010 4093960 4107306 4128312 4155709 4188628 
2402.562 4226434 4269296 4317817 4371934 4431179 4494449 4560306 4628150 
2406.419 4697880 4770401 4847056 4928617 5015355 5106369 5200754 5297039 
2410.277 5395123 5494940 5596895 5701459 5807693 5913685 6016914 6114355 
2414.134 6203985 6284289 6355159 6416659 6469390 6513348 6548228 6573995 
2417.992 6589873 6596467 6594684 6586005 6572213 6555191 6536523 6516846 
2421.849 6496833 6476385 6455500 6434179 6413061 6392885 6375434 6362489 
2425.707 6355764 6356907 6366356 6384042 6409194 6440804 6478134 6521387 
2429.564 6570631 6626543 6689596 6759826 6836462 6918600 7005231 7096191 
2433.421 7191718 7292421 7399315 7513247 7634123 7761677 7895375 8034245 
2437.279 8177380 8324177 8474131 8626875 8782513 8941554 9105256 9275214 
2441.136 9453027 9639923 9836222 10041256 10253680 10471706 10693579 
2444.511 10918452 11145924 11375828 11608065 11842572 12078773 12316466 
2447.887 12555107 12794563 13035038 13275954 13516559 13755519 13990950 
2451.262 14220892 14443764 14658388 14864271 15060921 15248017 15424619 
2454.637 15589513 15741138 15877489 15996452 16095744 16172843 16225396 
2458.012 16251434 16249919 16220270 16163144 16079618 15971012 15837967 
2461.388 15680537 15498542 15291706 15060818 14807631 14535815 14249585 
2464.763 13953789 13652964 13351391 13052315 12758734 12473841 12200210 
2468.138 11941294 11699518 11476995 11274887 11093439 10932655 10792006 
2471.513 10671166 10569234 10485284 10416927 10361543 10315768 10276376 
2474.889 10241025 10208120 10177320 10148625 10121763 10096259 10071130 
2478.264 10045256 10017994 9989276 9959881 9930963 9903369 9877607 9853067 
2482.121 9829409 9805889 9782064 9758275 9734419 9710802 9686847 9662148 
2485.979 9636129 9609300 9582268 9556626 9534001 9514899 9499185 9485638 
2489.836 9471889 9456413 9438026 9416794 9393601 9369934 9346675 9324129 
2493.694 9302362 9281070 9259745 9238556 9217436 9196860 9176689 9156046 
2497.551 9133950 9109350 9080929 9048043 9010559 8968749 8923391 8875739 
2501.408 8826976 8778894 8732880 8689982 8650703 8614876 8581316 8549719 
2505.266 8519340 8490822 8465177 8443623 8426934 8414603 8405110 8395752 
2509.123 8384300 8369032 8349610 8327284 8303574 8280102 8257779 8236336 
2512.981 8214792 8192304 8168467 8143111 8117149 8091055 8065130 8039444 
2516.838 8013623 7987770 7962763 7939917 7920716 7906375 7897569 7893621 
2520.696 7893621 7896016 7899964 7904924 7911032 7918219 7926858 7936508 
2524.553 7946666 7957060 7967791 7979333 7992563 8007851 8025335 8044203 
2528.410 8063173 8080962 8096388 8108744 8118028 8124375 8128426 8130687 
2532.268 8132207 8133996 8137574 8144192 8154692 8169412 8187880 8208849 
2536.125 8231237 8253795 8276455 8299521 8323501 8348698 8375045 8401969 
2539.983 8428285 8453420 8476867 8498830 8519847 8540325 8560263 8579830 
2543.840 8598789 8617005 8634885 8653103 8671796 8691571 8712123 8732677 
2547.698 8752658 8771692 8789545 8807094 8824744 8842802 8861130 8879087 
2551.555 8895827 8910911 8924203 8936447 8948352 8960800 8973823 8987117 
2555.412 8999836 9010931 9019422 9024937 9027169 9026019 9021486 9013265 
2559.270 9001527 8986609 8968749 8949096 8928160 8906007 8883010 8858728 
2563.127 8832589 8804929 8776426 8748027 8720811 8695695 8673080 8652867 
2566.985 8634851 8619372 8606596 8597504 8592638 8592266 8595510 8601053 
2570.842 8607103 8612308 8615891 8618256 8620858 8624644 8631100 8640428 
2574.699 8652394 8666117 8680618 8695222 8709453 8723482 8737783 8752828 
2578.557 8769191 8787550 8808175 8831507 8857376 8885783 8916322 8948691 
2582.414 8982651 9018069 9054945 9093312 9132630 9172256 9211514 9249590 
2586.272 9286384 9322808 9359946 9399255 9441988 9488280 9537286 9587619 
2590.129 9637416 9685491 9731301 9775287 9818564 9862083 9906386 9951508 
2593.987 9996904 10041527 10084865 10126273 10165583 10203404 10240381 
2597.362 10277157 10314682 10353602 10394562 10437969 10483892 10532095 
2600.737 10582204 10633847 10686684 10740819 10796524 10854477 10915054 
2604.112 10978664 11045173 11114343 11185871 11259211 11333857 11409400 
2607.488 11484956 11560083 11634032 11706189 11777065 11846828 11916161 
2610.863 11985334 12053938 12120850 12184706 12243867 12297446 12345202 
2614.238 12388055 12426786 12462827 12496484 12527585 12555244 12578641 
2617.613 12597299 12611591 12622506 12631410 12640039 12649558 12660746 
2620.989 12674392 12690837 12710522 12733791 12761020 12791833 12825345 
2624.364 12860326 12895311 12929206 12961670 12992907 13024181 13056891 
2627.739 13092506 13132256 13176791 13226250 13280635 13339023 13400665 
2631.114 13464230 13528454 13592005 13654128 13714549 13773680 13832442 
2634.490 13892308 13954371 14020037 14089682 14163173 14239963 14318719 
2637.865 14398071 14476615 14552878 14626036 14695437 14761386 14824567 
2641.240 14886490 14948044 15010978 15075877 15143051 15212225 15282645 
2644.615 15353112 15422696 15490679 15556886 15621386 15685175 15749177 
2647.990 15814222 15881373 15950903 16023198 16097808 16174596 16253119 
2651.366 16333479 16415369 16498994 16584322 16670976 16758816 16847262 
2654.741 16936172 17025720 17116150 17208150 17302204 17398310 17496338 
2658.116 17595286 17694496 17792968 17890292 17986496 18081512 18175478 
2661.491 18268358 18359530 18448614 18535190 18619260 18701442 18782430 
2664.867 18863154 18944172 19025724 19107464 19189048 19269952 19350284 
2668.242 19430700 19511652 19594212 19679144 19766452 19855856 19946670 
2671.617 20038022 20128836 20218318 20305492 20390320 20472388 20552212 
2674.992 20629620 20705338 20779922 20853614 20926696 20998952 21070632 
2678.368 21142008 21213398 21285632 21359480 21436022 21515710 21599140 
2681.743 21686348 21777892 21873950 21975258 22082690 22196636 22317832 
2685.118 22446108 22581404 22723238 22871332 23025346 23185218 23350812 
2688.493 23521682 23697342 23876854 24059172 24243916 24430522 24619070 
2691.869 24810086 25004026 25201390 25402112 25606474 25814168 26025164 
2695.244 26239676 26458026 26680364 26907078 27137864 27372406 27609936 
2698.619 27849854 28091462 28334726 28579116 28824776 29071886 29320094 
2701.994 29569048 29818108 30066424 30312892 30556586 30796324 31030966 
2705.370 31259146 31479322 31689596 31888060 32072670 32241330 32393030 
2708.745 32527246 32644216 32745316 32831718 32905194 32966818 33017014 
2712.120 33055626 33081762 33094350 33092596 33075650 33043432 32995884 
2715.495 32933400 32856484 32765574 32660720 32542422 32410738 32266706 
2718.871 32111268 31946260 31773862 31596474 31416450 31236180 31057408 
2722.246 30882126 30712108 30548800 30393908 30248802 30114720 29992500 
2725.621 29882526 29784928 29699380 29626298 29565252 29516558 29480386 
2728.996 29456982 29445990 29447160 29459428 29481840 29513578 29553690 
2732.372 29601610 29657020 29719708 29789114 29864778 29945710 30030918 
2735.747 30119408 30210260 30302908 30397106 30492210 30587764 30682910 
2739.122 30776336 30867112 30954352 31037834 31117880 31195308 31271112 
2742.497 31346322 31421580 31496886 31572208 31647258 31721712 31795892 
2745.873 31870126 31944976 32020624 32097284 32174564 32251894 32328594 
2749.248 32403882 32477826 32549958 32620784 32690584 32759752 32828394 
2752.623 32897298 32966926 33038068 33112050 33189726 33272066 33359644 
2755.998 33452612 33550392 33652384 33757264 33864068 33971440 34078156 
2759.374 34182996 34284776 34381992 34473204 34557188 34632180 34696920 
2762.749 34749752 34789096 34813936 34823304 34817060 34795556 34760056 
2766.124 34711996 34653208 34585460 34510332 34429264 34343764 34255448 
2769.499 34166112 34078048 33993152 33913324 33839748 33772916 33712860 
2772.875 33659116 33611244 33568824 33531490 33499170 33471648 33448604 
2776.250 33429026 33412098 33396176 33379610 33360432 33336352 33305694 
2779.625 33266484 33217408 33157072 33084982 33001282 32906554 32802306 
2783.000 32690938 32575208 32458472 32344050 32234338 32131106 32034642 
2786.375 31943906 31857078 31771902 31686708 31600002 31512134 31423502 
2789.751 31335350 31248928 31165190 31084922 31008580 30936844 30870174 
2793.126 30809096 30753680 30703500 30657664 30614428 30572440 30530314 
2796.501 30487236 30442738 30396820 30349454 30300528 30249514 30195876 
2799.876 30139154 30079208 30016394 29951532 29885010 29817258 29748342 
2803.252 29677632 29604448 29528298 29449110 29366996 29282486 29196682 
2806.627 29110222 29024202 28939228 28856396 28776446 28700088 28628164 
2810.002 28561386 28499960 28444168 28393970 28349368 28310250 28276690 
2813.377 28248330 28225168 28206888 28192888 28182880 28176482 28173724 
2816.753 28174928 28181008 28193028 28213112 28243344 28285426 28341302 
2820.128 28411798 28497342 28597128 28709680 28833450 28967102 29108946 
2823.503 29258384 29414574 29576816 29744156 29915004 30087412 30259318 
2826.878 30428448 30592776 30750514 30900198 31040326 31169996 31287986 
2830.254 31394154 31488586 31571850 31644870 31708736 31764272 31812150 
2833.629 31852904 31887528 31917694 31945870 31975150 32008496 32048448 
2837.004 32097104 32155226 32223274 32301682 32391746 32495178 32615210 
2840.379 32755644 32920138 33113014 33338320 33600720 33905372 34259068 
2843.755 34670004 35147356 35700660 36338752 37067152 37886540 38790004 
2847.130 39762044 40775028 41791872 42767408 43648744 44385112 44931584 
2850.505 45252784 45330420 45162812 44765780 44167360 43407476 42531864 
2853.880 41585512 40612984 39654320 38739828 37893916 37131608 36459992 
2857.256 35879448 35385292 34969268 34621452 34330496 34086788 33880188 
2860.631 33702512 33547170 33409130 33285442 33174846 33077330 32993846 
2864.006 32925926 32875388 32843512 32832038 32842688 32876748 32935720 
2867.381 33020694 33131790 33268596 33429314 33611212 33810092 34021248 
2870.757 34238780 34455880 34665516 34861112 35036928 35189284 35317324 
2874.132 35422896 35510476 35586392 35657820 35731344 35812156 35904280 
2877.507 36009816 36129668 36264072 36412896 36575900 36752700 36943320 
2880.882 37147632 37365000 37594800 37834916 38083084 38335628 38588248 
2884.258 38836632 39076384 39303352 39514256 39707180 39880868 40036024 
2887.633 40174224 40299556 40417256 40533716 40656536 40792608 40949436 
2891.008 41133672 41352280 41613844 41929132 42311708 42778784 43349848 
2894.383 44043832 44878780 45865852 47006820 48288600 49682336 51140348 
2897.759 52594148 53966680 55171664 56125196 56762956 57042512 56953160 
2901.134 56515432 55778488 54810644 53684744 52476652 51252636 50063960 
2904.509 48952328 47945864 47062540 46313688 45703964 45233736 44900240 
2907.884 44698568 44623656 44670656 44836164 45117816 45513104 46018960 
2911.260 46629976 47336988 48127616 48984408 49885596 50806532 51717932 
2914.635 52589064 53391156 54097260 54687548 55151200 55486192 55699380 
2918.010 55803128 55813524 55745108 55608720 55410636 55151540 54827784 
2921.385 54433692 53964464 53417984 52797872 52113152 51379384 50617176 
2924.760 49848428 49096324 48381704 47720584 47125204 46602420 46154508 
2928.136 45779692 45473148 45227668 45033636 44880656 44757700 44653360 
2931.511 44557196 44459952 44352600 44228508 44081460 43906852 43701612 
2934.886 43464164 43194528 42894228 42565628 42211860 41836016 41441760 
2938.261 41033548 40616552 40197484 39784012 39383776 39004496 38652096 
2941.637 38330308 38040548 37781812 37550688 37341420 37146620 36957608 
2945.012 36764096 36556688 36327112 36070080 35784488 35473984 35146564 
2948.387 34812212 34482568 34168300 33877108 33614288 33381722 33178780 
2951.762 33003032 32850516 32717020 32597530 32487250 32381426 32275986 
2955.138 32167286 32052834 31930748 31800066 31660338 31512062 31355974 
2958.513 31193776 31027762 30860034 30693116 30529036 30368750 30213530 
2961.888 30064118 29921358 29786950 29662766 29550960 29453188 29370930 
2965.263 29304496 29253704 29218228 29197638 29191934 29201466 29226168 
2968.639 29265792 29319564 29385890 29463294 29550250 29645596 29749194 
2972.014 29861196 29981708 30110778 30247310 30388862 30530814 30667052 
2975.389 30788570 30885472 30947414 30963960 30927630 30834456 30684654 
2978.764 30483254 30239140 29964632 29672558 29375930 29086838 28814330 
2982.140 28565278 28343532 28150036 27983098 27838726 27712096 27597118 
2985.515 27488630 27382992 27278156 27174512 27074030 26979564 26893366 
2988.890 26816598 26747384 26681456 26612086 26530648 26429152 26301172 
2992.265 26143668 25957694 25749088 25526912 25301230 25082476 24878782 
2995.641 24694574 24531518 24388182 24261820 24149258 24047336 23954190 
2999.016 23868206 23788052 23712844 23641604 23573836 23509510 23449494 
3002.391 23395010 23347176 23306864 23273862 23247436 23226182 23208634 
3005.766 23193816 23181234 23170782 23162884 23157676 23155370 23155754 
3009.142 23158866 23164424 23172532 23183330 23196752 23212200 23229434 
3012.517 23247436 23265752 23284002 23302178 23321058 23341546 23364692 
3015.892 23391514 23422740 23458692 23499226 23543928 23591644 23641252 
3019.267 23691812 23742134 23791902 23840974 23889492 23937630 23985458 
3022.643 24032276 24077348 24119904 24159100 24195182 24228884 24262028 
3026.018 24296612 24334878 24378124 24427402 24482226 24541474 24603256 
3029.393 24665572 24726002 24783212 24836012 24884078 24927730 24967738 
3032.768 25005116 25040424 25074298 25106980 25138998 25170772 25203146 
3036.144 25237524 25274608 25315384 25359852 25407522 25457550 25509200 
3039.519 25561980 25615858 25671394 25729118 25789274 25851902 25916964 
3042.894 25983936 26052818 26123750 26196878 26272342 26349366 26427250 
3046.269 26504550 26579960 26653130 26724336 26794676 26865554 26938420 
3049.645 27013518 27090532 27168410 27246088 27322580 27397602 27471086 
3053.020 27543382 27614596 27684336 27752676 27819226 27884442 27949034 
3056.395 28014374 28081776 28152124 28226054 28303390 28383746 28466704 
3059.770 28551726 28638358 28726034 28813730 28900448 28985414 29068024 
3063.146 29148596 29228330 29308610 29390996 29476448 29565146 29656522 
3066.521 29749620 29843484 29937544 30031982 30126866 30222694 30319252 
3069.896 30416048 30512330 30607246 30700514 30792270 30883372 30975060 
3073.271 31068548 31164906 31264592 31367652 31473658 31581614 31690524 
3076.646 31799282 31906854 32012600 32116584 32218848 32320242 32421448 
3080.022 32523070 32625284 32728240 32831468 32934684 33037710 33140660 
3083.397 33243664 33347156 33450998 33555224 33659364 33763316 33866756 
3086.772 33969968 34073208 34177368 34283128 34391100 34501724 34615208 
3090.147 34731268 34849404 34968872 35088832 35208292 35326740 35444108 
3093.523 35560604 35677204 35794776 35914608 36037428 36163412 36292816 
3096.898 36425000 36559464 36695476 36832044 36968140 37102372 37234084 
3100.273 37362328 37487616 37610516 37733020 37857076 37984024 38114516 
3103.648 38248232 38383620 38518944 38652568 38783588 38912112 39038972 
3107.024 39165320 39292324 39420784 39550876 39682348 39814840 39947668 
3110.399 40080316 40212460 40343332 40472684 40600108 40725528 40849464 
3113.774 40972516 41095536 41219208 41344116 41470008 41596596 41723148 
3117.149 41849188 41974532 42098968 42222852 42346408 42469964 42593624 
3120.525 42717064 42840356 42963064 43085040 43206280 43326452 43445744 
3123.900 43564080 43681640 43798836 43916272 44034592 44154812 44277636 
3127.275 44403280 44531936 44662796 44795168 44927428 45058592 45187480 
3130.650 45313796 45437608 45559836 45681292 45803512 45927132 46053332 
3134.026 46182400 46314536 46449808 46587920 46728260 46870120 47012360 
3137.401 47153976 47294272 47433140 47570868 47708420 47846824 47986976 
3140.776 48129064 48272716 48417112 48561156 48703988 48845196 48984780 
3144.151 49122776 49259336 49394820 49529568 49664172 49799524 49936704 
3147.527 50076824 50220640 50367920 50517824 50669232 50820760 50971788 
3150.902 51122384 51272732 51423280 51573696 51722708 51868828 52010508 
3154.277 52146776 52278420 52407340 52536184 52667496 52803004 52943188 
3157.652 53086944 53233068 53379168 53524116 53667236 53808120 53947056 
3161.028 54084612 54221012 54357152 54493604 54631144 54770008 54910304 
3164.403 55051292 55192096 55331516 55469136 55604388 55737800 55869820 
3167.778 56000640 56129912 56257072 56381552 56503092 56622168 56739924 
3171.153 56857368 56975072 57092808 57209440 57323380 57433496 57539212 
3174.529 57640980 57739596 57836112 57931020 58024476 58116132 58206292 
3177.904 58295560 58385300 58476884 58571516 58668748 58767600 58865860 
3181.279 58961260 59052544 59139556 59222828 59304256 59385092 59466580 
3184.654 59549004 59632468 59716672 59801152 59885464 59968920 60050636 
3188.030 60129860 60205708 60278448 60348764 60417836 60486952 60557152 
3191.405 60628312 60699564 60769948 60838780 60906212 60973124 61040576 
3194.780 61108732 61177236 61244112 61307144 61364992 61417088 61464800 
3198.155 61510608 61557068 61605984 61658144 61712832 61768940 61825860 
3201.531 61883244 61941824 62002320 62064812 62128616 62191852 62252076 
3204.906 62307372 62356984 62400972 62440528 62477372 62513104 62548848 
3208.281 62585512 62623860 62664352 62707492 62752896 62799684 62846364 
3211.656 62890784 62931152 62966844 62998184 63026912 63055224 63085376 
3215.031 63118288 63154460 63193016 63232756 63272348 63311292 63349096 
3218.407 63386052 63422592 63459368 63496984 63536488 63578336 63623100 
3221.782 63670292 63719556 63769436 63818640 63866192 63911484 63954712 
3225.157 63996404 64037180 64077736 64118288 64159156 64201020 64244740 
3228.532 64291148 64341024 64394048 64449236 64505204 64560176 64613544 
3231.908 64665220 64716600 64769060 64823680 64880884 64939560 64998552 
3235.283 65056624 65113360 65169140 65225124 65282068 65340264 65399348 
3238.658 65457860 65515072 65570824 65626092 65682164 65740368 65801396 
3242.033 65864400 65927760 65989664 66049300 66106900 66163964 66222852 
3245.409 66285720 66353388 66425584 66501536 66579396 66658044 66736588 
3248.784 66814520 66891664 66967392 67040884 67111336 67178168 67240672 
3252.159 67299048 67353600 67404752 67453128 67498880 67542576 67585008 
3255.534 67626928 67668824 67711112 67753176 67793912 67832176 67867352 
3258.910 67899280 67928832 67956816 67984128 68010744 68035552 68056792 
3262.285 68073112 68083728 68088960 68090152 68089184 68087560 68085896 
3265.660 68084032 68081512 68077216 68071128 68063488 68055160 68046712 
3269.035 68038496 68029896 68019664 68006096 67988000 67963904 67933376 
3272.411 67896408 67853872 67807000 67757856 67708136 67659848 67614432 
3275.786 67572312 67533368 67496360 67460096 67423408 67385912 67347680 
3279.161 67309152 67271160 67233824 67197160 67160992 67125064 67089372 
3282.536 67054264 67020552 66988460 66958496 66930436 66904032 66879184 
3285.912 66855444 66832960 66811472 66790872 66770740 66750728 66730672 
3289.287 66711044 66692964 66677624 66666076 66659316 66656612 66657304 
3292.662 66660360 66665344 66671944 66681528 66695124 66714020 66739136 
3296.037 66770120 66806444 66847408 66892088 66939712 66989964 67042120 
3299.413 67095212 67148464 67201648 67254520 67308024 67363664 67422600 
3302.788 67486376 67554968 67627984 67705032 67785544 67869640 67957784 
3306.163 68050664 68148496 68251152 68357792 68467520 68579448 68693344 
3309.538 68809064 68926792 69046288 69167080 69288624 69410448 69532920 
3312.914 69656952 69783824 69914616 70049344 70186992 70325432 70462544 
3316.289 70596664 70727280 70855080 70981128 71106312 71230912 71354176 
3319.664 71475048 71592488 71705896 71815576 71921720 72024848 72124432 
3323.039 72219856 72310640 72397264 72481120 72564128 72648528 72735048 
3326.415 72822856 72909568 72991408 73065304 73129096 73182232 73226072 
3329.790 73262472 73293144 73319544 73341592 73359208 73371408 73377568 
3333.165 73376000 73365056 73342768 73306872 73256072 73190504 73112000 
3336.540 73023712 72929632 72832648 72734424 72634816 72531856 72423136 
3339.916 72306648 72180728 72044672 71897984 71739936 71569864 71387408 
3343.291 71192536 70986280 70771184 70549768 70324456 70096296 69865112 
3346.666 69629608 69388488 69140536 68886360 68627288 68365704 68103416 
3350.041 67842144 67582416 67324312 67067444 66811584 66557184 66304484 
3353.417 66054196 65806800 65562816 65322428 65085916 64853952 64626420 
3356.792 64404004 64186348 63973412 63764988 63561424 63363472 63171940 
3360.167 62987840 62811396 62642076 62478404 62318772 62161836 62006752 
3363.542 61853868 61704200 61559132 61419720 61286388 61159268 61038288 
3366.917 60922836 60812708 60707604 60606752 60508892 60412656 60316248 
3370.293 60218116 60117336 60013544 59906460 59795564 59679984 59558012 
3373.668 59427904 59288340 59138192 58977620 58807316 58627792 58439164 
3377.043 58241184 58032844 57813288 57581352 57336612 57078976 56808084 
3380.418 56523660 56224408 55909276 55577652 55229196 54865076 54487328 
3383.794 54098236 53700528 53295700 52884912 52468164 52045500 51616944 
3387.169 51183180 50745452 50305712 49865748 49426600 48988936 48552708 
3390.544 48117440 47682936 47249388 46818120 46391144 45970264 45557404 
3393.919 45153292 44757476 44368340 43983552 43600856 43218832 42836848 
3397.295 42455420 42075568 41698600 41325128 40955112 40588284 40223472 
3400.670 39860092 39497996 39137400 38778916 38423728 38072016 37723876 
3404.045 37378616 37035400 36692808 36350352 36007584 35664872 35322752 
3407.420 34982408 34644560 34310056 33979252 33652456 33329520 33010434 
3410.796 32695550 32385070 32079234 31778890 31483918 31194666 30911122 
3414.171 30632916 30359972 30091920 29828720 29570254 29316302 29066820 
3417.546 28821058 28578478 28338438 28100016 27862996 27627696 27394956 
3420.921 27165624 26941310 26722964 26511558 26307086 26109358 25916894 
3424.297 25727922 25540546 25352440 25162486 24969422 24773916 24577062 
3427.672 24380368 24185722 23994808 23808282 23626104 23448060 23272990 
3431.047 23100260 22928998 22758884 22589816 22421860 22255050 22089664 
3434.422 21926222 21764968 21606452 21451096 21299168 21150182 21004064 
3437.798 20859908 20717154 20575420 20433836 20292230 20150288 20007522 
3441.173 19863870 19719986 19576740 19435620 19297872 19163838 19032788 
3444.548 18902952 18771082 18634720 18492660 18345464 18195932 18048490 
3447.923 17907590 17776434 17655982 17544602 17439114 17335892 17231386 
3451.299 17123700 17012558 16898552 16782648 16666120 16549693 16433572 
3454.674 16318135 16203830 16090896 15979778 15870512 15762817 15655322 
3458.049 15547408 15437906 15326407 15212980 15098142 14982820 14867494 
3461.424 14753330 14641218 14531773 14426466 14325431 14229144 14136712 
3464.800 14046866 13957930 13868703 13778332 13687227 13596278 13506510 
3468.175 13418982 13333692 13250333 13167877 13085710 13003696 12922140 
3471.550 12841726 12762828 12685582 12609407 12533315 12456587 12379293 
3474.925 12301809 12225293 12151073 12079965 12011732 11946131 11881867 
3478.301 11818091 11754426 11690429 11626920 11564507 11504043 11446513 
3481.676 11392495 11342836 11297978 11258089 11222692 11190732 11160576 
3485.051 11130184 11098163 11063798 11027127 10989267 10951989 10917263 
3488.426 10886719 10861170 10840447 10824140 10810927 10799241 10788133 
3491.802 10776483 10764255 10751688 10740242 10731683 10727574 10729476 
3495.177 10738103 10752843 10773188 10797814 10826484 10859131 10896843 
3498.552 10940674 10991341 11048878 11111930 11178900 11247412 11316309 
3501.927 11384944 11453997 11525377 11601497 11684746 11776861 11879348 
3505.302 11992861 12116795 12250444 12391806 12538601 12688175 12838518 
3508.678 12988469 13138506 13290336 13446254 13608449 13777614 13953584 
3512.053 14134042 14316767 14499534 14680253 14858031 15032313 15202685 
3515.428 15368422 15528177 15680984 15826454 15964447 16095813 16221097 
3518.803 16340567 16452637 16554615 16643122 16714532 16765911 16796012 
3522.179 16804138 16791636 16759850 16710227 16644016 16561361 16461963 
3525.554 16344694 16208198 16051184 15873192 15674938 15458472 15227255 
3528.929 14984672 14734237 14478191 14217571 13952558 13683637 13411293 
3532.304 13136594 12860599 12584031 12306274 12025834 11740911 11450391 
3535.680 11155341 10858621 10565127 10280583 10008941 9752717 9511648 
3539.055 9283609 9065568 8855043 8650197 8449873 8253760 8061214 7870812 
3542.912 7680897 7489548 7295352 7098111 6899006 6700061 6504233 6314511 
3546.770 6134282 5965314 5809271 5666075 5534706 5412233 5295630 5181071 
3550.627 5065201 4946278 4824340 4700626 4578120 4459733 4347870 4243632 
3554.485 4147213 4057470 3973598 3894189 3818203 3744303 3671051 3596574 
3558.342 3519171 3437407 3350649 3259469 3165705 3071760 2980004 2892504 
3562.199 2810524 2734028 2661112 2588775 2513085 2429310 2333560 2223276 
3566.057 2099469 1965845 1829933 1700550 1584972 1487346 1407991 1343241 
3569.914 1287773 1235933 1183502 1128120 1069258 1007647 944219 880567 
3573.772 817124 754022 691494 629704 568554 508540 449331 390759 332826 
3578.111 275265 218441 163447 111410 64019 22134 -14081 -45192 -72259 -97005 
3582.933 -120756 -144771 -170507 -199586 -233598 -274925 -325122 -385211 
3586.791 -453765 -527802 -601595 -669189 -725393 -767004 -793596 -807785 
3590.648 -813605 -816251 -820881 -832059 -852893 -884671 -926598 -976157 
3594.505 -1029148 -1081472 -1129229 -1169711 -1202028 -1226545 -1244783 
3597.881 -1259122 -1271841 -1284791 -1299030 -1315481 -1333550 -1352510 
3601.256 -1371899 -1390990 -1409617 -1428046 -1446110 -1463778 -1480850 
3604.631 -1497393 -1513441 -1530313 -1549397 -1572738 -1601724 -1636286 
3608.006 -1674740 -1713521 -1748636 -1777213 -1799025 -1815985 -1832021 
3611.382 -1851190 -1875835 -1906054 -1939042 -1969586 -1993334 -2007220 
3614.757 -2011013 -2007319 -2000524 -1995346 -1996336 -2006857 -2028294 
3618.132 -2061405 -2104438 -2154093 -2205820 -2253619 -2292183 -2317891 
3621.507 -2329755 -2329030 -2319506 -2305367 -2290206 -2276395 -2264134 
3624.883 -2252498 -2241258 -2231368 -2226885 -2234368 -2261497 -2313112 
3628.258 -2388184 -2476520 -2562137 -2628604 -2666443 -2675236 -2662360 
3631.633 -2638253 -2612663 -2592803 -2582658 -2582131 -2589245 -2600839 
3635.008 -2614409 -2628505 -2642864 -2657585 -2672667 -2687288 -2700558 
3638.384 -2711293 -2719591 -2726242 -2732827 -2740433 -2749949 -2760485 
3641.759 -2770724 -2777835 -2779152 -2773358 -2760090 -2740631 -2717418 
3645.134 -2694006 -2674610 -2662590 -2661767 -2674511 -2701777 -2743397 
3648.509 -2797490 -2859871 -2925074 -2986318 -3035939 -3067591 -3077625 
3651.885 -3065946 -3035741 -2993558 -2948078 -2907532 -2879983 -2870306 
3655.260 -2880114 -2905689 -2939160 -2971806 -2996157 -3008694 -3010109 
3658.635 -3004153 -2994841 -2985561 -2978289 -2972629 -2967956 -2962822 
3662.010 -2956438 -2948934 -2940608 -2931985 -2923165 -2913456 -2901640 
3665.385 -2886664 -2867936 -2846046 -2823365 -2803712 -2791498 -2790741 
3668.761 -2802000 -2821225 -2838277 -2838211 -2807399 -2736614 -2625211 
3672.136 -2480243 -2315386 -2147203 -1994060 -1875737 -1809320 -1805097 
3675.511 -1861649 -1965364 -2096161 -2235687 -2372828 -2503667 -2627187 
3678.886 -2742804 -2847461 -2937152 -3007970 -3058411 -3090489 -3108715 
3682.262 -3118123 -3122499 -3122828 -3118123 -3106215 -3086377 -3059727 
3685.637 -3030905 -3005239 -2990135 -2990530 -3008892 -3043342 -3088515 
3689.012 -3137006 -3182169 -3219599 -3246863 -3263833 -3270870 -3268338 
3692.387 -3257354 -3239365 -3216803 -3192925 -3170657 -3152532 -3140032 
3695.763 -3133355 -3131085 -3131348 -3132368 -3132565 -3132368 -3132631 
3699.138 -3135822 -3144144 -3158947 -3179965 -3204996 -3229860 -3249560 
3702.513 -3259360 -3257255 -3243180 -3219533 -3190261 -3159309 -3129736 
3705.888 -3103320 -3080553 -3060978 -3044362 -3030806 -3021790 -3019685 
3709.264 -3026561 -3044625 -3073809 -3112235 -3155953 -3199503 -3237063 
3712.639 -3264458 -3278993 -3281196 -3273139 -3258078 -3239694 -3221605 
3716.014 -3206344 -3194833 -3187202 -3181972 -3177663 -3173387 -3168749 
3719.389 -3164999 -3164243 -3167466 -3175558 -3186906 -3198582 -3207397 
3722.765 -3210587 -3207199 -3198977 -3189077 -3181511 -3179209 -3182728 
3726.140 -3190129 -3197135 -3198878 -3191313 -3173584 -3147434 -3116906 
3729.515 -3087857 -3066044 -3055253 -3056898 -3069038 -3086837 -3104833 
3732.890 -3118749 -3127861 -3134637 -3143322 -3157828 -3178880 -3203713 
3736.266 -3225749 -3238641 -3238280 -3224006 -3198780 -3166183 -3129144 
3739.641 -3088778 -3045251 -2997934 -2949000 -2904010 -2872017 -2865434 
3743.016 -2894992 -2964467 -3064761 -3172959 -3258998 -3301190 -3294646 
3746.391 -3249659 -3184176 -3116479 -3062096 -3030938 -3026726 -3046994 
3749.767 -3085390 -3133749 -3184735 -3233346 -3275639 -3307108 -3323385 
3753.142 -3321116 -3299545 -3261662 -3213679 -3163420 -3117926 -3082824 
3756.517 -3060978 -3052193 -3054035 -3064366 -3079928 -3098845 -3118452 
3759.892 -3135756 -3146611 -3147171 -3135624 -3113057 -3083449 -3053312 
3763.268 -3029161 -3015736 -3014190 -3021790 -3033142 -3042158 -3044264 
3766.643 -3039032 -3029457 -3020770 -3017842 -3024160 -3039887 -3062754 
3770.018 -3087594 -3109340 -3123880 -3129440 -3126216 -3116018 -3101675 
3773.393 -3085916 -3070585 -3057128 -3045645 -3035281 -3025245 -3014913 
3776.769 -3005173 -2998099 -2996190 -3001883 -3015571 -3035380 -3056503 
3780.144 -3073348 -3081376 -3079106 -3068413 -3053377 -3039328 -3030740 
3783.519 -3029457 -3035051 -3045086 -3056240 -3065551 -3071605 -3074335 
3786.894 -3074533 -3072986 -3070124 -3066176 -3061438 -3056404 -3051963 
3790.270 -3049001 -3047620 -3046797 -3044922 -3040052 -3031464 -3019882 
3793.645 -3008234 -3000139 -2998954 -3006062 -3019685 -3035116 -3045514 
3797.020 -3045382 -3032287 -3008069 -2978749 -2953245 -2941497 -2951007 
3800.395 -2984574 -3037683 -3098549 -3149703 -3175689 -3168815 -3130690 
3803.771 -3071144 -3003660 -2943833 -2904800 -2894992 -2915365 -2958774 
3807.146 -3011064 -3056075 -3082824 -3087660 -3073941 -3048738 -3019520 
3810.521 -2990991 -2964994 -2940213 -2914838 -2888014 -2862241 -2842491 
3813.896 -2835446 -2847264 -2880114 -2930208 -2986384 -3034327 -3061965 
3817.271 -3063741 -3042059 -3006029 -2967923 -2940081 -2932183 -2949395 
3820.647 -2988852 -3040578 -3089206 -3121479 -3129867 -3115459 -3084501 
3824.022 -3047488 -3013926 -2990695 -2981349 -2984278 -2994742 -3006128 
3827.397 -3012610 -3011261 -3002738 -2990728 -2979210 -2972431 -2972234 
3830.772 -2977795 -2986154 -2993163 -2994643 -2987207 -2969963 -2943998 
3834.148 -2912732 -2880805 -2854045 -2838409 -2838211 -2855756 -2888475 
3837.523 -2930899 -2973682 -3008464 -3028930 -3033405 -3024818 -3008365 
3840.898 -2990168 -2975689 -2967561 -2966475 -2970950 -2978387 -2985430 
3844.273 -2989346 -2987865 -2980197 -2966212 -2947025 -2924218 -2899731 
3847.649 -2874848 -2850193 -2825307 -2798774 -2769736 -2738820 -2709416 
3851.024 -2688375 -2685181 -2709811 -2768419 -2858522 -2965191 -3066670 
3854.399 -3142763 -3182728 -3187662 -3166447 -3129867 -3086739 -3043375 
3857.774 -3003067 -2966870 -2935112 -2907170 -2883768 -2864841 -2850753 
3861.150 -2841602 -2837323 -2838178 -2845091 -2859312 -2880904 -2908157 
3864.525 -2936198 -2958050 -2966672 -2957425 -2931261 -2893642 -2855131 
3867.900 -2826328 -2816518 -2829521 -2861813 -2902463 -2937317 -2956075 
3871.275 -2955253 -2939785 -2918228 -2900719 -2893708 -2898382 -2911086 
3874.651 -2924613 -2931130 -2926259 -2909144 -2883538 -2855296 -2830969 
3878.026 -2815432 -2812337 -2822312 -2842590 -2867738 -2890614 -2903780 
3881.401 -2901640 -2882846 -2850292 -2810526 -2772633 -2746195 -2738919 
3884.776 -2753603 -2786428 -2826888 -2862142 -2879983 -2875440 -2850259 
3888.152 -2812172 -2771284 -2737701 -2719327 -2719525 -2737503 -2767069 
3891.527 -2800617 -2829883 -2849173 -2856118 -2850918 -2835644 -2812403 
3894.902 -2783794 -2752253 -2720151 -2690219 -2664895 -2646783 -2637331 
3898.277 -2636969 -2644510 -2657947 -2674676 -2692326 -2709515 -2726440 
3901.653 -2744681 -2765390 -2789556 -2816715 -2843972 -2867475 -2882813 
3905.028 -2886763 -2878139 -2858159 -2830508 -2799136 -2768551 -2741915 
3908.403 -2720809 -2705761 -2695520 -2688671 -2683633 -2678825 -2673754 
3911.778 -2667728 -2660384 -2651525 -2641316 -2630481 -2620370 -2612861 
3915.154 -2609370 -2611082 -2617603 -2627484 -2638253 -2647540 -2653369 
3918.529 -2655477 -2654258 -2650800 -2646124 -2640855 -2634696 -2627681 
3921.904 -2620337 -2613684 -2609666 -2610259 -2616319 -2627780 -2642765 
3925.279 -2657947 -2670033 -2676718 -2676520 -2670197 -2658836 -2644510 
3928.655 -2628966 -2614310 -2601959 -2593923 -2591353 -2595306 -2605253 
3932.030 -2619546 -2634894 -2647211 -2653435 -2651723 -2642666 -2628735 
3935.405 -2613322 -2599489 -2589147 -2582395 -2577981 -2574325 -2569384 
3938.780 -2562796 -2555187 -2548270 -2543230 -2541023 -2541649 -2544053 
3942.156 -2546590 -2547710 -2546952 -2543559 -2538454 -2532326 -2526133 
3945.531 -2520896 -2517602 -2516745 -2518787 -2523333 -2529032 -2534336 
3948.906 -2537432 -2536543 -2531207 -2521818 -2509662 -2496814 -2484295 
3952.281 -2473127 -2463210 -2453985 -2445188 -2437050 -2430196 -2425781 
3955.656 -2424694 -2427165 -2432239 -2438598 -2444035 -2447231 -2447296 
3959.032 -2444858 -2440707 -2436226 -2432404 -2429537 -2427297 -2424957 
3962.407 -2421860 -2417544 -2411909 -2405319 -2398333 -2391413 -2385317 
3965.782 -2380506 -2377672 -2376914 -2378463 -2381594 -2385152 -2387558 
3969.157 -2387261 -2382944 -2374080 -2360997 -2344882 -2327877 -2311925 
3972.533 -2298182 -2287371 -2279790 -2274418 -2270199 -2266177 -2261563 
3975.908 -2256058 -2249828 -2243367 -2237599 -2233083 -2230050 -2228533 
3979.283 -2228138 -2227874 -2227413 -2225929 -2223028 -2219204 -2214985 
3982.658 -2211029 -2208260 -2207271 -2207633 -2209216 -2211194 -2212512 
3986.034 -2212480 -2210864 -2207996 -2204370 -2200974 -2198865 -2198832 
3989.409 -2200678 -2204238 -2208919 -2214029 -2218974 -2223688 -2228402 
3992.784 -2233017 -2238027 -2242411 -2245576 -2246729 -2244917 -2240302 
3996.159 -2233709 -2226753 -2221644 -2220622 -2224281 -2233280 -2246202 
3999.535 -2261002 -2275406 -2287107 
##END=
