
##TITLE=Z189_1_d
##JCAMP-DX=5.01  $$ Nicolet v. 1
##DATATYPE=INFRARED SPECTRUM
##ORIGIN=UniL
##OWNER=Nicolet
##LONGDATE=2011/09/14
##TIME=16:15:27
##SPECTROMETER/DATA SYSTEM=Nicolet iS5
##DATA PROCESSING=
Ratio against background
%Transmittance->Absorbance
Truncated
ElementMultiply or ElementDivide
##COMMENTS=
Number of sample scans: 32
Collection length: 51.21 sec
Sample gain: 2.0
Background collected on: Mer Sep 14 15:42:45 2011 (GMT+02:00);
Number of background scans: 32
Background gain: 2.0
Sample spacing:  1.000
Number of scan points: 12415
Resolution points: 8192
Number of FFT points: 65536
Apodization: N-B fort;
Phase correction: Mertz;
Laser frequency: 15798.0 cm-1
Number of rejected sample scans: 0
Number of rejected background scans: 0
Bench serial number: ASB1000141;
##RESOLUTION=4.000
##XUNITS=1/CM
##YUNITS=ABSORBANCE
##FIRSTX=649.893372
##LASTX=4000.122314
##FIRSTY=0.092930
##MAXX=4000.122314
##MINX=649.893372
##MAXY=0.247708
##MINY=-0.005311
##XFACTOR=1.000000
##YFACTOR=1.000000E-009
##NPOINTS=6950
##DELTAX=0.482117
##ZPD=6100
##XYDATA=(X++(Y..Y))
649.893 92929856 92242200 91612512 91075504 90634712 90270800 89955736 
653.268 89671656 89416744 89204336 89052184 88973120 88968480 89030624 
656.643 89150136 89322144 89549760 89840120 90195712 90608752 91061408 
660.018 91530280 92000360 92468776 92947504 93457008 94017128 94639816 
663.393 95327680 96079560 96896264 97785544 98753568 99794192 100867584 
666.767 101876016 102677632 103131424 103184784 102913456 102478024 
669.660 102029920 101648088 101347424 101098240 100858184 100590272 
672.553 100277648 99923088 99541232 99144512 98735224 98305080 97845104 
675.928 97353824 96844456 96339192 95858744 95412832 94993424 94578712 
679.302 94142712 93668672 93153704 92608760 92049712 91488600 90928576 
682.677 90364912 89790616 89203720 88610512 88023104 87453312 86906608 
686.052 86380392 85866880 85360120 84861112 84379096 83928168 83520864 
689.427 83161304 82844296 82558416 82293824 82047808 81828048 81648952 
692.802 81527248 81474680 81495192 81585448 81739256 81952480 82224952 
696.177 82559776 82959912 83423696 83945088 84514248 85121792 85763976 
699.551 86443256 87166328 87938912 88761008 89622816 90508176 91397392 
702.926 92272608 93121888 93938344 94716456 95449440 96127016 96738496 
706.301 97278080 97748368 98161336 98534256 98882688 99215504 99532152 
709.676 99828432 100103840 100369280 100650712 100982328 101397512 101916784 
713.051 102536768 103228648 103939744 104609504 105176904 105592352 
715.943 105828448 105879568 105764104 105520232 105206912 104897032 
718.836 104663592 104578936 104697160 105044416 105617240 106378400 
721.729 107264432 108185256 109041808 109736592 110181632 110320992 
724.621 110140080 109674656 109003816 108238184 107497952 106876952 
727.514 106433008 106178768 106090896 106125424 106238640 106402400 
730.407 106604840 106846352 107128800 107447328 107788336 108135144 
733.300 108474440 108803960 109131936 109472576 109836008 110223352 
736.192 110625624 111029128 111423664 111807160 112186184 112571264 
739.085 112968496 113376072 113783768 114180224 114561200 114932320 
741.978 115308608 115703512 116120152 116543216 116942544 117278032 
744.870 117516352 117641232 117656920 117583896 117449696 117280720 
747.763 117096064 116909280 116732368 116578712 116463064 116397256 
750.656 116384824 116418352 116481864 116558992 116639424 116725088 
753.548 116827968 116964144 117144056 117366720 117618640 117879408 
756.441 118130800 118359848 118561840 118736456 118881248 118989136 
759.334 119050840 119058680 119014928 118933480 118837768 118750960 
762.227 118689200 118656152 118645224 118646400 118654976 118676880 
765.119 118729008 118832888 119005648 119256824 119585032 119981136 
768.012 120430928 120918544 121427160 121939880 122445216 122945904 
770.905 123470864 124076512 124840624 125839768 127108592 128606128 
773.797 130188776 131635920 132669048 133024160 132536040 131167504 
776.690 129029184 126325592 123313048 120217840 117184720 114277584 
779.583 111481992 108742416 105992472 103186208 100309000 97376168 94423560 
782.958 91497800 88650424 85927008 83368608 81008664 78868344 76957664 
786.332 75275368 73812136 72554024 71488840 70609216 69913256 69403296 
789.707 69082696 68953896 69018048 69276344 69732656 70394352 71270616 
793.082 72367632 73682120 75194440 76861472 78619304 80381760 82040208 
796.457 83480432 84581272 85225392 85323216 84818568 83706896 82038080 
799.832 79915760 77481688 74884768 72276240 69780480 67479800 65418876 
803.206 63598512 61988296 60536164 59187592 57900848 56654824 55455772 
806.581 54332372 53325476 52470484 51785384 51260240 50859016 50523148 
809.956 50184932 49786592 49285352 48661064 47915228 47063608 46129708 
813.331 45137112 44110540 43073256 42047168 41055728 40120000 39255984 
816.706 38474448 37778236 37163872 36623844 36150880 35739116 35385652 
820.081 35089948 34852064 34672084 34549400 34483824 34477152 34533864 
823.455 34661212 34867860 35161224 35544820 36015644 36562492 37163732 
826.830 37787128 38392708 38929944 39347792 39600200 39652144 39490740 
830.205 39127864 38601104 37964536 37283400 36624020 36039980 35570748 
833.580 35236248 35035240 34946964 34933928 34949980 34941468 34858632 
836.955 34665624 34343044 33895236 33345654 32734490 32106954 31503796 
840.329 30958016 30488160 30100516 29792202 29555464 29381494 29261326 
843.704 29188000 29154760 29154796 29182578 29232724 29301732 29387522 
847.079 29488364 29602248 29726664 29858142 29993708 30132122 30274238 
850.454 30422834 30581330 30752400 30936810 31134220 31344290 31567824 
853.829 31808800 32073774 32370218 32705732 33086124 33514742 33993800 
857.204 34525580 35113728 35763584 36482984 37280040 38164148 39145488 
860.578 40233648 41439208 42769460 44224840 45793756 47448148 49142332 
863.953 50810484 52379712 53775716 54931624 55803240 56372576 56653312 
867.328 56688652 56551284 56336740 56145068 56080632 56237648 56685968 
870.703 57475288 58625744 60129136 61945380 64002856 66202672 68407552 
874.078 70458336 72187416 73422488 74026928 73914488 73062680 71517240 
877.452 69382224 66807216 63951568 60977852 58034060 55232128 52656944 
880.827 50361672 48368996 46682288 45289044 44168716 43294532 42637884 
884.202 42171876 41867540 41698160 41639700 41670408 41775092 41946540 
887.577 42186924 42506612 42921588 43449884 44105368 44895576 45820596 
890.952 46874992 48051076 49343144 50750184 52276252 53929800 55719680 
894.327 57652860 59728952 61936208 64242320 66588976 68888928 71014688 
897.701 72815176 74132792 74814576 74754592 73908632 72306648 70046192 
901.076 67280944 64203060 60999968 57851028 54906924 52269600 50005476 
904.451 48142052 46676424 45584456 44828924 44369772 44166220 44183972 
907.826 44399168 44796156 45368636 46117072 47045588 48159640 49462020 
911.201 50949172 52607240 54405788 56292792 58198564 60035304 61705576 
914.575 63125112 64227640 64981348 65394260 65512688 65415064 65193244 
917.950 64948984 64773328 64732248 64864956 65173992 65628708 66166744 
921.325 66709728 67177856 67501824 67645136 67610752 67447792 67240672 
924.700 67102520 67161152 67528408 68295160 69511808 71178216 73238544 
928.075 75577472 78036752 80405040 82444384 83925504 84628176 84389400 
931.450 83126512 80846664 77655864 73741680 69364224 64799832 60311908 
934.824 56133456 52425208 49285648 46756344 44832492 43483096 42664568 
938.199 42333292 42443800 42944596 43774716 44847332 46049316 47254228 
941.574 48319632 49115728 49548176 49563476 49164556 48403372 47374752 
944.949 46191212 44964140 43793592 42747924 41866192 41161464 40626776 
948.324 40244336 39992244 39850072 39798792 39820468 39899068 40017748 
951.698 40160012 40312720 40465736 40614296 40758500 40902612 41052740 
955.073 41214944 41394776 41596488 41823028 42076880 42359852 42672392 
958.448 43014060 43382652 43775012 44188008 44619392 45068776 45537496 
961.823 46027692 46541156 47078416 47638160 48218688 48817980 49435100 
965.198 50070948 50726836 51404708 52105308 52828892 53575052 54344008 
968.573 55136904 55956008 56803776 57681620 58589528 59525900 60489088 
971.947 61478352 62496044 63546464 64635760 65770136 66953896 68189936 
975.322 69480080 70826648 72233904 73708504 75258184 76891488 78616000 
978.697 80439016 82368920 84416160 86594408 88920824 91412360 94084112 
982.072 96946256 100002464 103247944 106667448 110233728 113898584 117583544 
985.447 121184096 124556360 127529848 129936160 131614480 132446664 
988.339 132377952 131420792 129657704 127224760 124310400 121122208 
991.232 117865016 114738776 111902360 109471040 107519392 106075664 
994.125 105136552 104676160 104660136 105051336 105815392 106924424 
997.017 108352168 110073728 112065736 114302976 116758728 119404664 
999.910 122202768 125100640 128029856 130894792 133584336 135983424 
1002.803 137978208 139482560 140447088 140866128 140779280 140267872 
1005.695 139452816 138471344 137474816 136614736 136016144 135780816 
1008.588 135976800 136635968 137765104 139351792 141377200 143819424 
1011.481 146659440 149881424 153467648 157399104 161656080 166215152 
1014.374 171050976 176131680 181402224 186776016 192119856 197238288 
1017.266 201901472 205856576 208861984 210747840 211437696 210979184 
1020.159 209534400 207379024 204868352 202365584 200241168 198807792 
1023.052 198279968 198784448 200341504 202886128 206279504 210343360 
1025.945 214886384 219700304 224590368 229370688 233854336 237876624 
1028.838 241296736 244010400 245970000 247182848 247708096 247633792 
1031.731 247067328 246117760 244878144 243429424 241829328 240104688 
1034.624 238246928 236207776 233908320 231244560 228114816 224444640 
1037.517 220194752 215373776 210029952 204243760 198109424 191729696 
1040.410 185215088 178670960 172200560 165900496 159845424 154092768 
1043.303 148679824 143625728 138943424 134646544 130751536 127281960 
1046.196 124263504 121717184 119658392 118092008 117013160 116408432 
1049.089 116258488 116539448 117220872 118268304 119641544 121294352 
1051.982 123181384 125258088 127481576 129812704 132207648 134610496 
1054.875 136954144 139150432 141096576 142691520 143836832 144453360 
1057.768 144493936 143943568 142827488 141208736 139194896 136926224 
1060.661 134561408 132278232 130240560 128587768 127434032 126851112 
1063.554 126875520 127510208 128728744 130476888 132670984 135209824 
1066.448 137967104 140799360 143569696 146143008 148404784 150272848 
1069.341 151687168 152611584 153028160 152930704 152324736 151226656 
1072.234 149666432 147684800 145331024 142666992 139761648 136696800 
1075.127 133573832 130503144 127606736 125011416 122825296 121139560 
1078.020 120017160 119485896 119540656 120140496 121214008 122650312 
1080.913 124304224 126012816 127588736 128854800 129673736 129960608 
1083.806 129710048 128995120 127964048 126807544 125733000 124952648 
1086.699 124640416 124927960 125895248 127557624 129867208 132708224 
1089.592 135917632 139281136 142554768 145509888 147931040 149650624 
1092.485 150567376 150638768 149884512 148372240 146213616 143542944 
1095.378 140497856 137216784 133813384 130372328 126952824 123586768 
1098.271 120288248 117061272 113904224 110812384 107779504 104798496 
1101.164 101863776 98975192 96142312 93388304 90750216 88272944 86009040 
1104.540 84010136 82319904 80976728 80008888 79435464 79268992 79514320 
1107.915 80169224 81222808 82655400 84437976 86528736 88877680 91423152 
1111.290 94087776 96785856 99415744 101862440 104015016 105765376 107024624 
1114.665 107737424 107879904 107463368 106526416 105131272 103354744 
1117.558 101277056 98984800 96557192 94060120 91547912 89056816 86609056 
1120.934 84218568 81895504 79650984 77500496 75461512 73553008 71793128 
1124.309 70196312 68775640 67543664 66513704 65702440 65128564 64809904 
1127.684 64761632 64992352 65501436 66277272 67296960 68527608 69922248 
1131.059 71423928 72966840 74473864 75870040 77089096 78081848 78829296 
1134.435 79345672 79678608 79896680 80083752 80324624 80685600 81212384 
1137.810 81918712 82785040 83758480 84758360 85691440 86452712 86944928 
1141.185 87091448 86835248 86147200 85022400 83476336 81540080 79257336 
1144.560 76685952 73889976 70939968 67910856 64869844 61878468 58989460 
1147.936 56241684 53665288 51281572 49102780 47134992 45378640 43829476 
1151.311 42479572 41319116 40337368 39523912 38869424 38366468 38008580 
1154.686 37790524 37707324 37754200 37926744 38221748 38637608 39174316 
1158.061 39834020 40619464 41533192 42576336 43747708 45044076 46458436 
1161.437 47979424 49590624 51267064 52974556 54672368 56310180 57834636 
1164.812 59194196 60337724 61221184 61809436 62075704 62006368 61601400 
1168.187 60875832 59856944 58582400 57096960 55444176 53667536 51808232 
1171.562 49901208 47980016 46075364 44212768 42415924 40704312 39092552 
1174.938 37592128 36210876 34952892 33820264 32813098 31929854 31168074 
1178.313 30524840 29996798 29581108 29275786 29080036 28993738 29017048 
1181.688 29149834 29390996 29737982 30187600 30736218 31380762 32118834 
1185.063 32947232 33862028 34855296 35915040 37025220 38164332 39307816 
1188.438 40429296 41499136 42487792 43367752 44114428 44711860 45154796 
1191.814 45451328 45621476 45695424 45710700 45703704 45708712 45754252 
1195.189 45858856 46033288 46279332 46591208 46955464 47352172 47756536 
1198.564 48136540 48455896 48676076 48754396 48650316 48329816 47767628 
1201.939 46955356 45903488 44644032 43224248 41702432 40143292 38603896 
1205.315 37133372 35769196 34533220 33436220 32479290 31656950 30959866 
1208.690 30376850 29897150 29509608 29204656 28974968 28815004 28722034 
1212.065 28695274 28735240 28843012 29018570 29261362 29569688 29940812 
1215.440 30370880 30854876 31385676 31953394 32546994 33153784 33760736 
1218.816 34357248 34933928 35483332 36000020 36479704 36919836 37320696 
1222.191 37686800 38027420 38356044 38690816 39050824 39453876 39915920 
1225.566 40447952 41055436 41737956 42488596 43293468 44130568 44972740 
1228.941 45787200 46538280 47193536 47723580 48106296 48329592 48392184 
1232.317 48305704 48093640 47794740 47459052 47141716 46904856 46806824 
1235.692 46897764 47221976 47811016 48686232 49860692 51338660 53116112 
1239.067 55178516 57500968 60044548 62754540 65567552 68407160 71187264 
1242.442 73823168 76224168 78303008 79987296 81218656 81965920 82227552 
1245.818 82032080 81433392 80500912 79319584 77976288 76553768 75130856 
1249.193 73767368 72500848 71341368 70270080 69241992 68193656 67062108 
1252.568 65793456 64357124 62753468 61012624 59190588 57353212 55573168 
1255.943 53915020 52424388 51128532 50031016 49114060 48339852 47657348 
1259.319 47009624 46334960 45580480 44706056 43686736 42517064 41208608 
1262.694 39788008 38289704 36754036 35222808 33731804 32311712 30986056 
1266.069 29768604 28666708 27681052 26807294 26037794 25363048 24774126 
1269.444 24262588 23821232 23444456 23126364 22861692 22644618 22469488 
1272.820 22331192 22225858 22149912 22100436 22074534 22068398 22078334 
1276.195 22100506 22131780 22169750 22211876 22255330 22296276 22329936 
1279.570 22351354 22356656 22343018 22309496 22255608 22180072 22080250 
1282.945 21952116 21791758 21597852 21373230 21126912 20872320 20626354 
1286.321 20407302 20231024 20110720 20056898 20077512 20179894 20371360 
1289.696 20658182 21045658 21536114 22127666 22812206 23574640 24392634 
1293.071 25233976 26058798 26823716 27482064 27994794 28335856 28495820 
1296.446 28484392 28327686 28065058 27738620 27389980 27056292 26764544 
1299.822 26534522 26377956 26299412 26296314 26359576 26474720 26621738 
1303.197 26778746 26925446 27043066 27118148 27142096 27110600 27023426 
1306.572 26884024 26699426 26479580 26236578 25984462 25735904 25502558 
1309.947 25293678 25116458 24977038 24881938 24837590 24850290 24925204 
1313.323 25064468 25266918 25528878 25846134 26215356 26635196 27106440 
1316.698 27630732 28209364 28842090 29527446 30263368 31047764 31878720 
1320.073 32753498 33666204 34605340 35553308 36484676 37366772 38165308 
1323.448 38845364 39377936 39747844 39957404 40031260 40012188 39961072 
1326.823 39944580 40020184 40232052 40598540 41111016 41736172 42426812 
1330.199 43133196 43809644 44426404 44970460 45445848 45869536 46268164 
1333.574 46674100 47118596 47630392 48231652 48933600 49735836 50625256 
1336.949 51579780 52568492 53556312 54509040 55391396 56171352 56823076 
1340.324 57326784 57672692 57860340 57896872 57793680 57562516 57213824 
1343.700 56754536 56188772 55519096 54747304 53876232 52910140 51855424 
1347.075 50721620 49522772 48276380 47005820 45739820 44508992 43349076 
1350.450 42296552 41385880 40651480 40122396 39820760 39762700 39955876 
1353.825 40399364 41081036 41976580 43046476 44232028 45464720 46665356 
1357.201 47751500 48652616 49309068 49680852 49751888 49529532 49046428 
1360.576 48353924 47526324 46652000 45821148 45124280 44631732 44382328 
1363.951 44381556 44601436 44991996 45486832 46017708 46518288 46925008 
1367.326 47188772 47275064 47169156 46876656 46420716 45836060 45158840 
1370.702 44425996 43671308 42923744 42214124 41575300 41040724 40644568 
1374.077 40412968 40357696 40473048 40738088 41124564 41603928 42155264 
1377.452 42767888 43439444 44174656 44981708 45871892 46856612 47946420 
1380.827 49145224 50444056 51810956 53184192 54480420 55593240 56411624 
1384.203 56841052 56805780 56267032 55232544 53771404 52013868 50130412 
1387.578 48311444 46710476 45417448 44457196 43800224 43387852 43149624 
1390.953 43022000 42948728 42880552 42777392 42603600 42330700 41943660 
1394.328 41444312 40851972 40195520 39504096 38796520 38078708 37349256 
1397.704 36608560 35866312 35147356 34486156 33916192 33460804 33125390 
1401.079 32900978 32770078 32716628 32729454 32804880 32944656 33152960 
1404.454 33432498 33782048 34196224 34666880 35185692 35745056 36339292 
1407.829 36964352 37616480 38291912 38987280 39699192 40425224 41163760 
1411.205 41913260 42670236 43427176 44171500 44886752 45555564 46163204 
1414.580 46702912 47177136 47597412 47980240 48345148 48711992 49099180 
1417.955 49526412 50012728 50570644 51203756 51900228 52635736 53378980 
1421.330 54099700 54775608 55392112 55946736 56447696 56911988 57359908 
1424.706 57808520 58267444 58736228 59207568 59670824 60116576 60537192 
1428.081 60926916 61281460 61597044 61870908 62103000 62298352 62468228 
1431.456 62628260 62797232 62992124 63224176 63499100 63818372 64183892 
1434.831 64603276 65094344 65684788 66407480 67283920 68314008 69473552 
1438.207 70719672 71998712 73248584 74405240 75394864 76139752 76573920 
1441.582 76643248 76317136 75589536 74474536 73003056 71216152 69167968 
1444.957 66917332 64521156 62039432 59530536 57058192 54701192 52543664 
1448.332 50663420 49115504 47917928 47056888 46500696 46218112 46186788 
1451.708 46393096 46824908 47458752 48252716 49153904 50094712 51003720 
1455.083 51815884 52472092 52938288 53219284 53369760 53469700 53588248 
1458.458 53765664 54007688 54304624 54645272 55024436 55440748 55891564 
1461.833 56367556 56847208 57296536 57678516 57961048 58132952 58211292 
1465.208 58238992 58267444 58333872 58454328 58620548 58809404 58989156 
1468.584 59126576 59187892 59131432 58906308 58450992 57700692 56612732 
1471.959 55193224 53516432 51704532 49887488 48159156 46558968 45089764 
1475.334 43743972 42524736 41453972 40563472 39876692 39400028 39117496 
1478.709 39001632 39024000 39167896 39432320 39828788 40373040 41075320 
1482.085 41936068 42946788 44095908 45375184 46783868 48325408 50000048 
1485.460 51797368 53684596 55598968 57454712 59138040 60517920 61466212 
1488.835 61862424 61622820 60725552 59225144 57248224 54956896 52516028 
1492.210 50048232 47619856 45257196 42955528 40703440 38506052 36391208 
1495.586 34412444 32637250 31122472 29896370 28951448 28259044 27780898 
1498.961 27484076 27346398 27352750 27490254 27744942 28099132 28531380 
1502.336 29019846 29536878 30049310 30516098 30876504 31053422 30958194 
1505.711 30509628 29676922 28509478 27129928 25673046 24231934 22840492 
1509.087 21493672 20175832 18880632 17615124 16401948 15269947 14241332 
1512.462 13329627 12535122 11849178 11258974 10752129 10317600 9944727 
1515.837 9623832 9347387 9111211 8916222 8766452 8664494 8607644 8586352 
1519.695 8585135 8589360 8591624 8599262 8631573 8710636 8848009 9038705 
1523.552 9265296 9506906 9748617 9985072 10223554 10478699 10767041 11097755 
1527.409 11469681 11874137 12300479 12741741 13196329 13668112 14162762 
1530.785 14684640 15236143 15817761 16429374 17072036 17746750 18452002 
1534.160 19179976 19916940 20644944 21346882 22005234 22604824 23135102 
1537.535 23586850 23956676 24245806 24460984 24609496 24695278 24720774 
1540.910 24688858 24606060 24481736 24322754 24129116 23893308 23605008 
1544.286 23258516 22859806 22428104 21989618 21566372 21165420 20778218 
1547.661 20384486 19963636 19504684 19014406 18516276 18042238 17615918 
1551.036 17243522 16913020 16603187 16295018 15980501 15666762 15371922 
1554.411 15114163 14900652 14721349 14550891 14355636 14097896 13743515 
1557.787 13271957 12692679 12056596 11443724 10926199 10533453 10253340 
1561.162 10051428 9891843 9744957 9588060 9407991 9201429 8977205 8752828 
1565.019 8548874 8381902 8256159 8163943 8088962 8014635 7929253 7831540 
1568.877 7730678 7643295 7585937 7567325 7586611 7635910 7705820 7787043 
1572.734 7871993 7954393 8026381 8080557 8112356 8124340 8129978 8150303 
1576.592 8207634 8312929 8463049 8644518 8842159 9044761 9248033 9454991 
1580.449 9673295 9911471 10175217 10465054 10776585 11102038 11431477 
1583.824 11754221 12059763 12336305 12572127 12757881 12887563 12961909 
1587.199 12989220 12985601 12972662 12974232 13014587 13113302 13284870 
1590.575 13537444 13871440 14278004 14735917 15214661 15672052 16060123 
1593.950 16336231 16465370 16429786 16231518 15892198 15447313 14936795 
1597.325 14401427 13873766 13377087 12928250 12536998 12208594 11943781 
1600.700 11739175 11588702 11484548 11420830 11394535 11406067 11457331 
1604.076 11549637 11681035 11845603 12033124 12230507 12423377 12595593 
1607.451 12730448 12811762 12823434 12753274 12594774 12349702 12029070 
1610.826 11652785 11248399 10842995 10458672 10108774 9795755 9513916 
1614.201 9253347 9004741 8763071 8530931 8318435 8140647 8011463 7937453 
1618.059 7916397 7938634 7991584 8060303 8130857 8191696 8233803 8254166 
1621.916 8256564 8252140 8255179 8279089 8331135 8410549 8510555 8622684 
1625.774 8739710 8857376 8973653 9088473 9202207 9315970 9431456 9551647 
1629.631 9679969 9819547 9970662 10130411 10292900 10449068 10589198 
1633.006 10705668 10794112 10854986 10895246 10928306 10971393 11039565 
1636.382 11142762 11281042 11447942 11632977 11825139 12013366 12187432 
1639.757 12341453 12472988 12585497 12686265 12783917 12883876 12986181 
1643.132 13084071 13166409 13221365 13239026 13216720 13161081 13089193 
1646.507 13023225 12985054 12989630 13040945 13133896 13256755 13395061 
1649.883 13531326 13643631 13707778 13697007 13593440 13404219 13179934 
1653.258 13001067 12929171 12975564 13104834 13267994 13423049 13545375 
1656.633 13625065 13662436 13664385 13639254 13593235 13528386 13442187 
1660.008 13329934 13187140 13011958 12806507 12577141 12333987 12089471 
1663.384 11855580 11641315 11451004 11282641 11128383 10975267 10807768 
1666.759 10609536 10367142 10074860 9736757 9367700 8989214 8624001 8288005 
1670.616 7988074 7721875 7481660 7256672 7034629 6803443 6551996 6274473 
1674.474 5975055 5670675 5388346 5153173 4978587 4861095 4784873 4729198 
1678.331 4677214 4620950 4561880 4509012 4472354 4457423 4460068 4468002 
1682.188 4464419 4436300 4383046 4323072 4289306 4314538 4412434 4572327 
1686.046 4770736 4984083 5196797 5400860 5593572 5775424 5947006 6108272 
1689.903 6258875 6399308 6531444 6657530 6778807 6892981 6993749 7070461 
1693.761 7111482 7108653 7064399 6994591 6927454 6889951 6892610 6924525 
1697.618 6958294 6961728 6903921 6766658 6554922 6304224 6069529 5895145 
1701.476 5794262 5747421 5722039 5684808 5612267 5491618 5320820 5108045 
1705.333 4868936 4622557 4383849 4160961 3954672 3761014 3573222 3384943 
1709.190 3191672 2991681 2786447 2580009 2378001 2185211 2004423 1835556 
1713.048 1675735 1521227 1368635 1216229 1063777 911844 761059 611421 464522 
1717.387 324801 201004 103257 38768 8018 4274 16302 30815 36283 25977 -1192 
1722.691 -40752 -85510 -128176 -164512 -194320 -220285 -245321 -271316 
1726.549 -298170 -324956 -351443 -379152 -410833 -448734 -493615 -543720 
1730.406 -596003 -649206 -705810 -773156 -861524 -978669 -1123611 -1279836 
1734.264 -1420714 -1520308 -1567918 -1571286 -1549859 -1525063 -1513540 
1737.639 -1525888 -1564419 -1624006 -1693521 -1761275 -1817470 -1857855 
1741.014 -1882599 -1894442 -1895993 -1889098 -1875473 -1857690 -1838752 
1744.389 -1822155 -1809914 -1802226 -1797177 -1791337 -1782526 -1770086 
1747.765 -1755764 -1742728 -1734016 -1731178 -1732927 -1735765 -1735501 
1751.140 -1728802 -1714049 -1691870 -1664343 -1634305 -1605157 -1580926 
1754.515 -1566135 -1565178 -1580827 -1612684 -1656454 -1704247 -1747448 
1757.890 -1781140 -1804833 -1822947 -1842117 -1868313 -1904702 -1948971 
1761.266 -1994654 -2033142 -2057711 -2065790 -2059822 -2044784 -2026480 
1764.641 -2009133 -1995577 -1987332 -1985221 -1990168 -2002009 -2019719 
1768.016 -2040464 -2060448 -2077101 -2089797 -2101140 -2115154 -2136322 
1771.391 -2165798 -2200117 -2231368 -2250289 -2251476 -2235225 -2207172 
1774.767 -2174963 -2145455 -2122408 -2105889 -2093886 -2083696 -2074727 
1778.142 -2068000 -2066318 -2071726 -2083993 -2099953 -2114758 -2123496 
1781.517 -2124650 -2119704 -2112747 -2108361 -2108625 -2113110 -2118352 
1784.892 -2120265 -2116308 -2106614 -2093688 -2081157 -2070968 -2064570 
1788.268 -2061536 -2061767 -2066714 -2079311 -2103514 -2141729 -2192238 
1791.643 -2248641 -2300225 -2337566 -2354769 -2353682 -2340763 -2325405 
1795.018 -2315320 -2314793 -2324449 -2342675 -2366830 -2394708 -2424957 
1798.393 -2457115 -2489896 -2521324 -2548501 -2568462 -2580188 -2584470 
1801.769 -2584206 -2581736 -2579002 -2575346 -2569022 -2558218 -2542505 
1805.144 -2523827 -2505709 -2492334 -2486569 -2489566 -2500109 -2515921 
1808.519 -2534336 -2553672 -2572842 -2590794 -2606241 -2616945 -2620600 
1811.894 -2616253 -2604989 -2590135 -2575774 -2565827 -2562170 -2563554 
1815.270 -2566090 -2565069 -2556571 -2538618 -2512396 -2480737 -2447758 
1818.645 -2416917 -2390458 -2369598 -2354571 -2345344 -2341620 -2342806 
1822.020 -2348112 -2356977 -2368346 -2381758 -2396850 -2412964 -2428713 
1825.395 -2442486 -2452239 -2457016 -2457576 -2457016 -2459652 -2469634 
1828.771 -2489105 -2516119 -2544877 -2567375 -2576499 -2569680 -2549258 
1832.146 -2521456 -2493685 -2470854 -2455270 -2445418 -2437709 -2428153 
1835.521 -2414611 -2396620 -2375102 -2351012 -2323823 -2291590 -2252333 
1838.896 -2205062 -2151225 -2094908 -2041222 -1994687 -1957580 -1929146 
1842.271 -1905790 -1882335 -1853203 -1813610 -1761902 -1698108 -1624568 
1845.647 -1544708 -1462424 -1381874 -1307355 -1242569 -1189901 -1150082 
1849.022 -1121860 -1103220 -1092214 -1088182 -1092247 -1106194 -1131642 
1852.397 -1168158 -1213394 -1263714 -1315646 -1367374 -1419888 -1475203 
1855.772 -1535827 -1602285 -1672892 -1743784 -1811135 -1872602 -1927991 
1859.148 -1978954 -2027635 -2074397 -2118319 -2156731 -2187689 -2211293 
1862.523 -2230281 -2249235 -2272539 -2302401 -2338192 -2376815 -2414710 
1865.898 -2449405 -2481429 -2512924 -2545964 -2580616 -2613289 -2637562 
1869.273 -2647507 -2640097 -2617076 -2584470 -2550049 -2519249 -2495628 
1872.649 -2479090 -2468020 -2460607 -2456456 -2455995 -2460410 -2470030 
1876.024 -2482747 -2495266 -2504391 -2507817 -2507060 -2506071 -2509827 
1879.399 -2523103 -2547908 -2583218 -2625672 -2671646 -2717418 -2760452 
1882.774 -2799333 -2832714 -2859048 -2877185 -2886829 -2889594 -2889330 
1886.150 -2890779 -2898448 -2914180 -2937218 -2963282 -2987667 -3005173 
1889.525 -3012906 -3011096 -3002015 -2988523 -2973780 -2959729 -2948671 
1892.900 -2942155 -2941431 -2946729 -2956438 -2967100 -2973813 -2972760 
1896.275 -2962361 -2944195 -2922704 -2903747 -2890680 -2884821 -2883735 
1899.651 -2883472 -2880279 -2872774 -2862011 -2851378 -2842952 -2837553 
1903.026 -2832648 -2824748 -2810954 -2791366 -2768913 -2749389 -2738260 
1906.401 -2739083 -2751727 -2773292 -2799070 -2824682 -2847363 -2865994 
1909.776 -2880443 -2890713 -2895979 -2895420 -2888837 -2877711 -2864743 
1913.152 -2853024 -2844795 -2841141 -2841701 -2846605 -2856843 -2875078 
1916.527 -2904471 -2947190 -3001389 -3061076 -3117367 -3162433 -3192366 
1919.902 -3209863 -3221835 -3237523 -3264129 -3303557 -3352418 -3403510 
1923.277 -3449336 -3485592 -3512675 -3534334 -3555138 -3577517 -3600027 
1926.653 -3619283 -3631540 -3635285 -3631901 -3625723 -3620860 -3619382 
1930.028 -3621025 -3623522 -3624803 -3625264 -3627498 -3635942 -3654079 
1933.403 -3682926 -3720083 -3762394 -3806047 -3849433 -3893701 -3939738 
1936.778 -3986722 -4031501 -4067512 -4088585 -4093312 -4085467 -4073782 
1940.154 -4069679 -4081725 -4111660 -4154228 -4197415 -4229540 -4243026 
1943.529 -4237382 -4217826 -4192493 -4167257 -4143726 -4120029 -4092885 
1946.904 -4060652 -4024575 -3989020 -3958552 -3935535 -3919609 -3908380 
1950.279 -3898988 -3891599 -3888513 -3894850 -3914225 -3948505 -3995488 
1953.655 -4050640 -4109822 -4170440 -4233051 -4299721 -4371761 -4447822 
1957.030 -4522755 -4589512 -4642557 -4680451 -4705591 -4723585 -4739645 
1960.405 -4754098 -4763930 -4763046 -4747183 -4716309 -4676812 -4637934 
1963.780 -4611052 -4603413 -4617806 -4651768 -4700674 -4758326 -4819280 
1967.156 -4878914 -4931890 -4973657 -5000287 -5009852 -5005757 -4996389 
1970.531 -4990723 -4998027 -5022527 -5061371 -5108168 -5155386 -5197983 
1973.906 -5234617 -5267091 -5294915 -5311378 -5304800 -5258089 -5158562 
1977.281 -5005004 -4810203 -4598299 -4397018 -4229146 -4105982 -4028219 
1980.656 -3986262 -3968927 -3967187 -3974968 -3989644 -4010524 -4034981 
1984.032 -4059142 -4080084 -4096758 -4109887 -4123869 -4141362 -4162137 
1987.407 -4182779 -4196430 -4197973 -4185732 -4164237 -4140805 -4123475 
1990.782 -4115861 -4114647 -4111200 -4096266 -4064065 -4016367 -3961211 
1994.157 -3909660 -3871370 -3849991 -3843061 -3844309 -3847167 -3848349 
1997.533 -3848546 -3851732 -3860927 -3877085 -3897149 -3916227 -3929887 
2000.908 -3937210 -3941839 -3950048 -3967581 -3997917 -4039446 -4088323 
2004.283 -4138704 -4185371 -4225767 -4259333 -4285318 -4303986 -4314287 
2007.658 -4316617 -4313106 -4308907 -4308776 -4317306 -4335020 -4358836 
2011.034 -4382454 -4400003 -4407776 -4405775 -4397182 -4384553 -4369563 
2014.409 -4350570 -4324293 -4289190 -4247816 -4205093 -4169061 -4144841 
2017.784 -4133092 -4128956 -4125477 -4115861 -4098235 -4077557 -4062031 
2021.159 -4059962 -4076539 -4109822 -4152291 -4195872 -4233051 -4260612 
2024.535 -4280463 -4295489 -4307627 -4317765 -4323867 -4323998 -4320488 
2027.910 -4316387 -4316814 -4324490 -4337317 -4347716 -4346797 -4325737 
2031.285 -4280889 -4215857 -4138835 -4058288 -3981239 -3909660 -3841978 
2034.660 -3776551 -3713578 -3655985 -3608900 -3576137 -3557438 -3548926 
2038.036 -3543438 -3533677 -3515962 -3490325 -3459822 -3428593 -3398480 
2041.411 -3368891 -3337195 -3301551 -3261268 -3219171 -3180130 -3147532 
2044.786 -3123222 -3105491 -3090127 -3071671 -3045908 -3009879 -2962460 
2048.161 -2903286 -2833471 -2755710 -2675301 -2601202 -2543296 -2510618 
2051.537 -2507784 -2532129 -2574753 -2621259 -2656201 -2669769 -2658935 
2054.912 -2628406 -2588224 -2549620 -2519776 -2500767 -2490851 -2485284 
2058.287 -2480902 -2476619 -2472665 -2470623 -2470195 -2469173 -2464627 
2061.662 -2454611 -2439059 -2421333 -2406307 -2397081 -2395071 -2398004 
2065.038 -2401464 -2400541 -2393390 -2380308 -2364392 -2348837 -2334930 
2068.413 -2321648 -2306883 -2287964 -2264298 -2238588 -2214227 -2195205 
2071.788 -2184392 -2181721 -2185018 -2192601 -2202491 -2214491 -2229456 
2075.163 -2246993 -2265221 -2280647 -2288327 -2283943 -2266144 -2236742 
2078.539 -2199689 -2160753 -2124419 -2093424 -2068692 -2049730 -2035748 
2081.914 -2026117 -2021170 -2019851 -2021962 -2026085 -2030965 -2036473 
2085.289 -2043069 -2052006 -2063944 -2078684 -2093688 -2105361 -2110933 
2088.664 -2107933 -2098271 -2085576 -2075584 -2073375 -2082180 -2101602 
2092.040 -2128673 -2158742 -2186601 -2208194 -2220919 -2223325 -2215413 
2095.415 -2198403 -2174600 -2147829 -2122309 -2102591 -2091578 -2090390 
2098.790 -2097678 -2110373 -2125112 -2138960 -2149939 -2157456 -2160654 
2102.165 -2158478 -2149214 -2131739 -2105889 -2074101 -2040826 -2010617 
2105.541 -1987101 -1971038 -1959163 -1946827 -1929014 -1903349 -1871052 
2108.916 -1836607 -1804997 -1780612 -1764938 -1755962 -1749527 -1742035 
2112.291 -1731508 -1718571 -1705996 -1697019 -1693983 -1698174 -1708538 
2115.666 -1723389 -1740847 -1759229 -1776224 -1790974 -1801302 -1805525 
2119.042 -1803876 -1797012 -1787674 -1779358 -1774772 -1774739 -1778698 
2122.417 -1784275 -1789060 -1792459 -1796022 -1801995 -1813907 -1833506 
2125.792 -1859999 -1891407 -1924396 -1957118 -1989574 -2024534 -2064603 
2129.167 -2113307 -2172227 -2240532 -2316111 -2396158 -2477574 -2557691 
2132.542 -2633445 -2701415 -2757719 -2799465 -2825669 -2839199 -2846079 
2135.918 -2853683 -2869088 -2895090 -2931130 -2972793 -3014913 -3054233 
2139.293 -3089765 -3123486 -3158026 -3193780 -3229400 -3260906 -3284386 
2142.668 -3297934 -3303754 -3306221 -3310298 -3318913 -3331310 -3344494 
2146.043 -3354720 -3360737 -3366129 -3377439 -3402359 -3446114 -3509882 
2149.419 -3589643 -3679444 -3774153 -3870714 -3970766 -4077163 -4190655 
2152.794 -4310646 -4433818 -4555086 -4671633 -4783790 -4891626 -4994916 
2156.169 -5087439 -5154600 -5175686 -5131025 -5008934 -4814037 -4567447 
2159.544 -4300049 -4046077 -3832026 -3671362 -3565851 -3508567 -3486874 
2162.920 -3487038 -3498608 -3510572 -3514581 -3506956 -3485658 -3453346 
2166.295 -3417251 -3384935 -3363367 -3356364 -3363203 -3378458 -3397888 
2169.670 -3416200 -3431321 -3443682 -3453642 -3460183 -3460446 -3449599 
2173.045 -3422939 -3380200 -3325391 -3266201 -3213120 -3175656 -3158782 
2176.421 -3163618 -3186741 -3222822 -3265641 -3309805 -3350084 -3382206 
2179.796 -3401998 -3405976 -3393253 -3366293 -3329797 -3291620 -3258341 
2183.171 -3233971 -3219073 -3211146 -3206015 -3199437 -3189734 -3175492 
2186.546 -3156315 -3131808 -3100260 -3059991 -3010636 -2953838 -2892984 
2189.922 -2833471 -2779712 -2732959 -2693051 -2656366 -2618855 -2579068 
2193.297 -2536807 -2495101 -2458037 -2430031 -2412898 -2406571 -2408878 
2196.672 -2415896 -2423409 -2427297 -2423343 -2409899 -2386965 -2355791 
2200.047 -2321253 -2289316 -2265254 -2253948 -2256289 -2269341 -2287140 
2203.423 -2303785 -2313409 -2313672 -2305499 -2290964 -2272901 -2252992 
2206.798 -2230742 -2204798 -2174106 -2137740 -2096359 -2052105 -2006857 
2210.173 -1961802 -1919250 -1879794 -1845417 -1819219 -1803315 -1798860 
2213.548 -1805525 -1820110 -1837696 -1854490 -1867390 -1876363 -1883522 
2216.924 -1891968 -1903679 -1919448 -1937525 -1955403 -1971334 -1984693 
2220.299 -1995874 -2006593 -2017609 -2027832 -2035616 -2038551 -2035616 
2223.674 -2027931 -2019126 -2012892 -2013189 -2021962 -2037924 -2058272 
2227.049 -2079706 -2098568 -2113406 -2123760 -2129959 -2132431 -2131805 
2230.425 -2127618 -2120298 -2110307 -2098107 -2084389 -2069979 -2054974 
2233.800 -2039639 -2024633 -2010914 -1999106 -1989475 -1980306 -1968135 
2237.175 -1949532 -1920998 -1881345 -1832879 -1780348 -1729726 -1685929 
2240.550 -1651272 -1624667 -1603110 -1583204 -1562603 -1541935 -1523511 
2243.926 -1509313 -1501124 -1498021 -1497096 -1495016 -1489402 -1478373 
2247.301 -1463778 -1447827 -1432042 -1417940 -1405621 -1394458 -1384648 
2250.676 -1377085 -1372064 -1370215 -1370677 -1370578 -1366218 -1354988 
2254.051 -1335433 -1308775 -1278812 -1249772 -1225587 -1208471 -1198426 
2257.427 -1193569 -1192941 -1194494 -1197865 -1202920 -1209628 -1217260 
2260.802 -1225355 -1233021 -1239827 -1246237 -1251952 -1255983 -1256280 
2264.177 -1249276 -1231303 -1200838 -1158806 -1109136 -1058336 -1013645 
2267.552 -980124 -960817 -954965 -959825 -971396 -986108 -1000984 -1014273 
2271.410 -1024587 -1030239 -1029710 -1022438 -1007596 -986736 -962206 
2274.785 -936384 -911587 -889367 -869890 -852463 -836954 -822799 -809670 
2278.642 -797598 -785592 -772693 -757346 -738261 -714841 -687384 -656386 
2282.500 -622473 -585977 -546632 -503974 -458498 -411429 -365049 -322009 
2286.357 -284594 -253467 -228465 -208329 -191041 -175674 -161796 -149011 
2290.215 -137385 -126089 -113303 -96475 -73716 -43436 -6527 35322 79661 
2294.554 124469 168121 210949 253549 297380 343006 390826 440176 490296 
2298.894 540255 588826 635876 681272 724649 767166 809821 853974 901485 
2303.233 953683 1010769 1072414 1136857 1201643 1264876 1325427 1382928 
2307.091 1438176 1492699 1547462 1603230 1660269 1718080 1776365 1834292 
2310.948 1891394 1947106 2000861 2051926 2099968 2145351 2189174 2233134 
2314.806 2279630 2331261 2389861 2456867 2532914 2617842 2711122 2811825 
2318.663 2918289 3029216 3142275 3255697 3367044 3473812 3573021 3661260 
2322.521 3734411 3788388 3820242 3829067 3816899 3788956 3753327 3718336 
2326.378 3692170 3680875 3686288 3707074 3738789 3775586 3812120 3844110 
2330.235 3869349 3887770 3900106 3907863 3912510 3916121 3920434 3928191 
2334.093 3942066 3964369 3996504 4038407 4088475 4143232 4199367 4253335 
2337.950 4302324 4345494 4382645 4415212 4444937 4473994 4503857 4535429 
2341.808 4567606 4597040 4618472 4623662 4602866 4547717 4452100 4316412 
2345.665 4148584 3964904 3786048 3634930 3532433 3492716 3523547 3624973 
2349.522 3790326 4007339 4259358 4529134 4799849 5058195 5296401 5511651 
2353.380 5704883 5878284 6034318 6174678 6300022 6412018 6512541 6604205 
2357.237 6688956 6767903 6840131 6903753 6956745 6997891 7027422 7046482 
2361.095 7056215 7056754 7047560 7026681 6992772 6946106 6888335 6822393 
2364.952 6751749 6679367 6606459 6533428 6459435 6383470 6304426 6221362 
2368.810 6133005 6037778 5934376 5821797 5700620 5572965 5441959 5311663 
2372.667 5184893 5063122 4945843 4831509 4718044 4604407 4491101 4379197 
2376.524 4271069 4168890 4074093 3987308 3908966 3839296 3778929 3729164 
2380.382 3690666 3664334 3649833 3646324 3651938 3664769 3683114 3705202 
2384.239 3729933 3755800 3781435 3805535 3826961 3844611 3858117 3867176 
2388.097 3871321 3870352 3863833 3851297 3832777 3808777 3780299 3748648 
2391.954 3714894 3679171 3641713 3602254 3560627 3517935 3475615 3435637 
2395.812 3399636 3368748 3342535 3320231 3300933 3284007 3270119 3261238 
2399.669 3259269 3266146 3283339 3310916 3348279 3394861 3449564 3511622 
2403.526 3580638 3655713 3735848 3820075 3907528 3997574 4090549 4186688 
2407.384 4286596 4390075 4496591 4604909 4714627 4825378 4938001 5053702 
2411.241 5173627 5298012 5425686 5553600 5677926 5794530 5899881 5991852 
2415.099 6069664 6133912 6185869 6227211 6259413 6283616 6300291 6310073 
2418.956 6313099 6309233 6298845 6282171 6259951 6232959 6202136 6168056 
2422.813 6131560 6092647 6052326 6011472 5972099 5936962 5909184 5891786 
2426.671 5887151 5896589 5920033 5956378 6003846 6060692 6124637 6194473 
2430.528 6268792 6346552 6427790 6512810 6603094 6700936 6808593 6927488 
2434.386 7058370 7200241 7350683 7507415 7668385 7832654 8000697 8174004 
2438.243 8354170 8542521 8739845 8945816 9160311 9383071 9613974 9853711 
2442.101 10102703 10361101 10628856 10905880 11191378 11484786 11785236 
2445.476 12091175 12401181 12713217 13025307 13336323 13645818 13953995 
2448.851 14261670 14569428 14876751 15182131 15483262 15777351 16061980 
2452.226 16335474 16596783 16845332 17080238 17299892 17501788 17683348 
2455.602 17841334 17973200 18076986 18151154 18194516 18206158 18185188 
2458.977 18130358 18040994 17916394 17756242 17560818 17331100 17068314 
2462.352 16774761 16453600 16108330 15743371 15363169 14971776 14573266 
2465.727 14171252 13768448 13368442 12974472 12590034 12219669 11867498 
2469.103 11537115 11231635 10953281 10702849 10480362 10285605 10116845 
2472.478 9972290 9849101 9743941 9652899 9572275 9498609 9429695 9364145 
2476.335 9301753 9242517 9187282 9136285 9089455 9046926 9007785 8971184 
2480.193 8936413 8902592 8868840 8834888 8800770 8766959 8734098 8702523 
2484.050 8672201 8642456 8612206 8580235 8545799 8509304 8471394 8433994 
2487.907 8398725 8366600 8337923 8312693 8289761 8268755 8249270 8231102 
2491.765 8214420 8199361 8185585 8172822 8160870 8149627 8139465 8130924 
2495.622 8124307 8119378 8115360 8110972 8104726 8095511 8082109 8064151 
2499.480 8041840 8014838 7983754 7949433 7913022 7876075 7840683 7808094 
2503.337 7779251 7754323 7732196 7712094 7693106 7675433 7659381 7645959 
2507.195 7635539 7627378 7620364 7612541 7602392 7589309 7573833 7557244 
2511.052 7540589 7524406 7507786 7489380 7467098 7439660 7407370 7371443 
2514.909 7333935 7297037 7262366 7230359 7200982 7173796 7148465 7124854 
2518.767 7103432 7084201 7066857 7050793 7035437 7019980 7005164 6991358 
2522.624 6979910 6971728 6967587 6967587 6971190 6977822 6987015 6998665 
2526.482 7012505 7028062 7044933 7061974 7078240 7093328 7106935 7119565 
2530.339 7131994 7144996 7159110 7174403 7191246 7209471 7229415 7251315 
2534.197 7275135 7300777 7328139 7356379 7385396 7414954 7445424 7477278 
2538.054 7510652 7545174 7580542 7615778 7650241 7683696 7716479 7749128 
2541.911 7781983 7815144 7847700 7878977 7908535 7936205 7962932 7990031 
2545.769 8018348 8048219 8079679 8111546 8142807 8173058 8202130 8230798 
2549.626 8259738 8289220 8319110 8348597 8376936 8403455 8428385 8452373 
2553.484 8475956 8499573 8522483 8543501 8560904 8573645 8580776 8582905 
2557.341 8580911 8575943 8568981 8560465 8549854 8536980 8520928 8501533 
2561.198 8478726 8452744 8423690 8392408 8359371 8325257 8290875 8256867 
2565.056 8223437 8190447 8157899 8125455 8093789 8064422 8038700 8018888 
2568.913 8005860 7999853 7999515 8002789 8007379 8011530 8014838 8018045 
2572.771 8022669 8030398 8042008 8057772 8077214 8099393 8123463 8148919 
2576.628 8175489 8202805 8230798 8258894 8286451 8313301 8339815 8366499 
2580.486 8394604 8425311 8459434 8497445 8539379 8584290 8631708 8680618 
2584.343 8730074 8779199 8827550 8874555 8920449 8965806 9011303 9057651 
2588.200 9105459 9154490 9204203 9253923 9302801 9350907 9398443 9446220 
2592.058 9495087 9545720 9597850 9651002 9704364 9756987 9808193 9857948 
2595.915 9906285 9953507 10000363 10046850 10093648 10141163 10189972 
2599.291 10240958 10294562 10351363 10411259 10474388 10540141 10608143 
2602.666 10678127 10750296 10824447 10901362 10981349 11064581 11151091 
2606.041 11240340 11331375 11423007 11513638 11602314 11688421 11772129 
2609.416 11854388 11936424 12019396 12103338 12187329 12269462 12347452 
2612.792 12418944 12483048 12539317 12588499 12631716 12669889 12703221 
2616.167 12731506 12753855 12769925 12780299 12786101 12789069 12791253 
2619.542 12794324 12798999 12805449 12813571 12822956 12833911 12846777 
2622.917 12862238 12880838 12902581 12927090 12953955 12982392 13012129 
2626.292 13043233 13076251 13111834 13150937 13194143 13241622 13293719 
2629.668 13350401 13411156 13475509 13542879 13612312 13683055 13754767 
2633.043 13827072 13900382 13975073 14051795 14130824 14212368 14296084 
2636.418 14381391 14468051 14555277 14642795 14730363 14817848 14905007 
2639.793 14991531 15076872 15160858 15243315 15323833 15402956 15481031 
2643.169 15558534 15635950 15713619 15791750 15870169 15948499 16026568 
2646.544 16103894 16180994 16258072 16335750 16414955 16496239 16580466 
2649.919 16667841 16758747 16852840 16949988 17049636 17151340 17254554 
2653.294 17358686 17463464 17568890 17675030 17782614 17892190 18004212 
2656.670 18118820 18235806 18354830 18474786 18595326 18716040 18836614 
2660.045 18956910 19076756 19195454 19312352 19426682 19537540 19644994 
2663.420 19749426 19851696 19953018 20054678 20157228 20261122 20366014 
2666.795 20471730 20577608 20683618 20789654 20896064 21003334 21112092 
2670.171 21222686 21335640 21450714 21567626 21685406 21803046 21919392 
2673.546 22033782 22145728 22255434 22363074 22469208 22573902 22676908 
2676.921 22777636 22875662 22970742 23063396 23154498 23245546 23338296 
2680.296 23433932 23533608 23637930 23747314 23862712 23984478 24113600 
2683.672 24251062 24397612 24553360 24718390 24892464 25075246 25266320 
2687.047 25465280 25671712 25884502 26102814 26325392 26551146 26779310 
2690.422 27009956 27243230 27479560 27719688 27963662 28211840 28464014 
2693.797 28720512 28981556 29247360 29518508 29795112 30077006 30363632 
2697.173 30654214 30948054 31244548 31543344 31844418 32147628 32452724 
2700.548 32759894 33068496 33378034 33687796 33996664 34303640 34607168 
2703.923 34905848 35198088 35482720 35758328 36023672 36277148 36516968 
2707.298 36741236 36947472 37133808 37298852 37442068 37563620 37664428 
2710.674 37745560 37807768 37851220 37876020 37881516 37867088 37832780 
2714.049 37778416 37704504 37611852 37501128 37372872 37227620 37065344 
2717.424 36886360 36690936 36479956 36254676 36017048 35769664 35514904 
2720.799 35255544 34994188 34733100 34474640 34221356 33975668 33740360 
2724.175 33518068 33311096 33120670 32947588 32791800 32652430 32529246 
2727.550 32421660 32329880 32254714 32196332 32155048 32130498 32121402 
2730.925 32126360 32143988 32172960 32212924 32263386 32324418 32395742 
2734.300 32476466 32565564 32661360 32762826 32868598 32978118 33090808 
2737.676 33205964 33322864 33440300 33556584 33670428 33780936 33887460 
2741.051 33989820 34088512 34183996 34276460 34366212 34453260 34537884 
2744.426 34620304 34701300 34781556 34862116 34943804 35026876 35111824 
2747.801 35198624 35286704 35375732 35464924 35553988 35642172 35729836 
2751.177 35816724 35903596 35991164 36080340 36171840 36266632 36365300 
2754.552 36468532 36577196 36691656 36812676 36940832 37076028 37218160 
2757.927 37366592 37519836 37676068 37833432 37989448 38141288 38286196 
2761.302 38421632 38544652 38653256 38745080 38818624 38872792 38907004 
2764.677 38920992 38915520 38891604 38850436 38793696 38723164 38640252 
2768.053 38546568 38443964 38334432 38220700 38106056 37993460 37886144 
2771.428 37786332 37695036 37612612 37538296 37471000 37409816 37354276 
2774.803 37303944 37259028 37219352 37184084 37152108 37121464 37090068 
2778.178 37055388 37014616 36965692 36905804 36832868 36744732 36640136 
2781.554 36518988 36382200 36232272 36073176 35908744 35743760 35581860 
2784.929 35425916 35277104 35135680 35000760 34870876 34744620 34620804 
2788.304 34498352 34377260 34257708 34140088 34025260 33913864 33806796 
2791.679 33704552 33607596 33516244 33430424 33349842 33273782 33201206 
2795.055 33130896 33061848 32992740 32922998 32851766 32778438 32702588 
2798.430 32623854 32541960 32456722 32368292 32276876 32183022 32086830 
2801.805 31987880 31885564 31778712 31665574 31545304 31417232 31281900 
2805.180 31140734 30995592 30849148 30703714 30561172 30423048 30290368 
2808.556 30163802 30043592 29930302 29824176 29725884 29635450 29553088 
2811.931 29478862 29412766 29354800 29304390 29261892 29226982 29199268 
2815.306 29178786 29165178 29158338 29158338 29165498 29180736 29205364 
2818.681 29241478 29290604 29355082 29435814 29533582 29647724 29776802 
2822.057 29919262 30072922 30236262 30408086 30587444 30773704 30965808 
2825.432 31162234 31360996 31559594 31754862 31944334 32125362 32295902 
2828.807 32453940 32597996 32726668 32839258 32935508 33015438 33080190 
2832.182 33130966 33169090 33196234 33213832 33223846 33228676 33231392 
2835.558 33235614 33245024 33262480 33289772 33327836 33376106 33434108 
2838.933 33501678 33580140 33671968 33781440 33913076 34072096 34263588 
2842.308 34493116 34765760 35088508 35469236 35916696 36440608 37049720 
2845.683 37749356 38539872 39414144 40356096 41337596 42321388 43262500 
2849.059 44108192 44808428 45318904 45605100 45650000 45452800 45030660 
2852.434 44412820 43639620 42756552 41807816 40836392 39880140 38968180 
2855.809 38123704 37361536 36689132 36107488 35612324 35195500 34846716 
2859.184 34554032 34307008 34095180 33910320 33746128 33597856 33462774 
2862.560 33339716 33228676 33130608 33047222 32980726 32932934 32906126 
2865.935 32902196 32922496 32968178 33039856 33137154 33259186 33404016 
2869.310 33568932 33750316 33944176 34145500 34348712 34547788 34736940 
2872.685 34910984 35065736 35200024 35314736 35413404 35501596 35586136 
2876.061 35673828 35769952 35878944 36003332 36144144 36301104 36474012 
2879.436 36662200 36864468 37080396 37309108 37549352 37800212 38059864 
2882.811 38326364 38597048 38868772 39137476 39399380 39649820 39884644 
2886.186 40100808 40296180 40470392 40625064 40764108 40892672 41017304 
2889.562 41145908 41285228 41443216 41627336 41845028 42105724 42420784 
2892.937 42803388 43270112 43839112 44527864 45352964 46325116 47445856 
2896.312 48703728 50071916 51505684 52939820 54300452 55503812 56467620 
2899.687 57127460 57439436 57389928 56996228 56303768 55377996 54290244 
2903.063 53115400 51919940 50755808 49665140 48676116 47806764 47067856 
2906.438 46463784 45995384 45660528 45455816 45377796 45422964 45589092 
2909.813 45874324 46276752 46793060 47418172 48143204 48956220 49840400 
2913.188 50774244 51733496 52688516 53607664 54460960 55219412 55861380 
2916.563 56373596 56751744 57000348 57129804 57154368 57087668 56940428 
2919.939 56719912 56428752 56066420 55630940 55121104 54537856 53886772 
2923.314 53177488 52424760 51647284 50865012 50098764 49367344 48685416 
2926.689 48064140 47509616 47023952 46605592 46250252 45952068 45703448 
2930.064 45496216 45321960 45171452 45035952 44906744 44775036 44633092 
2933.440 44474116 44292532 44084612 43848716 43585144 43295664 42983148 
2936.815 42650972 42302064 41939828 41567792 41190100 40812332 40441480 
2940.190 40084352 39748464 39439684 39161876 38916100 38700956 38512064 
2943.565 38342436 38183868 38026660 37860184 37675308 37463992 37221376 
2946.941 36946748 36643884 36320772 35987744 35656920 35339500 35044184 
2950.316 34776964 34539824 34332108 34150480 33990140 33845980 33712396 
2953.691 33584504 33458084 33329840 33197022 33058092 32912094 32758250 
2957.066 32596566 32427232 32250826 32068138 31880788 31690344 31499058 
2960.442 31309248 31122758 30942110 30769436 30606500 30455140 30316872 
2963.817 30192358 30082014 29985898 29903858 29835924 29782586 29744654 
2967.192 29723222 29718928 29731702 29760584 29803948 29859704 29926116 
2970.567 30002228 30087838 30183480 30289940 30407588 30535506 30671994 
2973.943 30813362 30954316 31088372 31206808 31299952 31357754 31370002 
2977.318 31328514 31228312 31068298 30851638 30585914 30282304 29952704 
2980.693 29610266 29267458 28934554 28620166 28330586 28068980 27836254 
2984.068 27630908 27449414 27287190 27139874 27003750 26876940 26759576 
2987.444 26652882 26558968 26478664 26410946 26351338 26293110 26226548 
2990.819 26140712 26026150 25875640 25686334 25460396 25204936 24931520 
2994.194 24652420 24380438 24125860 23894988 23690588 23511468 23354692 
2997.569 23216220 23091838 22978810 22874858 22778474 22688638 22604720 
3000.945 22526054 22452634 22384810 22322750 22267118 22217594 22173344 
3004.320 22133244 22095834 22060032 22025556 21993000 21963304 21937898 
3007.695 21917892 21903432 21894232 21889702 21888622 21889980 21893116 
3011.070 21897228 21901898 21907056 21912386 21918380 21925838 21935702 
3014.446 21949294 21967834 21991570 22020466 22053930 22091024 22130664 
3017.821 22172156 22214804 22258048 22301612 22344864 22387356 22428698 
3021.196 22468336 22506128 22542176 22576274 22608456 22638648 22666784 
3024.571 22692828 22717440 22741776 22767230 22795480 22828026 22865638 
3027.947 22908494 22955754 23005782 23056828 23106934 23154426 23198326 
3031.322 23238206 23274072 23306236 23335254 23361440 23385220 23406968 
3034.697 23427110 23446346 23465720 23486284 23508880 23534588 23563762 
3038.072 23596750 23633626 23674666 23720088 23770062 23824872 23884030 
3041.448 23946978 24012980 24081060 24150834 24222052 24294754 24368872 
3044.823 24444018 24518932 24592384 24662940 24729930 24793842 24856396 
3048.198 24919554 24985354 25054886 25127624 25201988 25275628 25346644 
3051.573 25413916 25477752 25538718 25598390 25657582 25716216 25773980 
3054.948 25830098 25884114 25936378 25988120 26040856 26096060 26154858 
3058.324 26217572 26283818 26353098 26424644 26497752 26571930 26646436 
3061.699 26720426 26793830 26866294 26937610 27008792 27080272 27153172 
3065.074 27227884 27304726 27383592 27464380 27546984 27631120 27717110 
3068.449 27804424 27892392 27979988 28065906 28149366 28230154 28309156 
3071.825 28387532 28467056 28549106 28634464 28723380 28815534 28910330 
3075.200 29007200 29105650 29205292 29305418 29405320 29503826 29600154 
3078.575 29694022 29785496 29875604 29965980 30057654 30151904 30249158 
3081.950 30349062 30450628 30552818 30654108 30753254 30849326 30941968 
3085.326 31031498 31119232 31206486 31295500 31387742 31484380 31585354 
3088.701 31690024 31796858 31904466 32012134 32119616 32227482 32336772 
3092.076 32447726 32560386 32674224 32788228 32901514 33014114 33126782 
3095.451 33241230 33359214 33482350 33610924 33744516 33881196 34018416 
3098.827 34153528 34284276 34409788 34529992 34646572 34761240 34876260 
3102.202 34993256 35112796 35234632 35357544 35480312 35601604 35721200 
3105.577 35839500 35957872 36077712 36200036 36324876 36452068 36580332 
3108.952 36708096 36834816 36959408 37082272 37203904 37324844 37445968 
3112.328 37567592 37690012 37813192 37937304 38061996 38187196 38312648 
3115.703 38438064 38563048 38687628 38811776 38935740 39059708 39183780 
3119.078 39307668 39431380 39554504 39676616 39797776 39918388 40038456 
3122.453 40158560 40278764 40399040 40519312 40639620 40759884 40880476 
3125.829 41001724 41124020 41247556 41372216 41497608 41623436 41749592 
3129.204 41875788 42002236 42128904 42256012 42383448 42511068 42638072 
3132.579 42764008 42888672 43012340 43135536 43259644 43385912 43515292 
3135.954 43648228 43784428 43922544 44060960 44197988 44332600 44464684 
3139.330 44595268 44725892 44858316 44993612 45132148 45273048 45415128 
3142.705 45557004 45697780 45837312 45975788 46113976 46252464 46391068 
3146.080 46529572 46667384 46804132 46939996 47075792 47212632 47351620 
3149.455 47493460 47638232 47785496 47934284 48083348 48231908 48379148 
3152.831 48524436 48667700 48808932 48948320 49086492 49224040 49361928 
3156.206 49500416 49640136 49780948 49922540 50064592 50206468 50348056 
3159.581 50489092 50629352 50769028 50907928 51046204 51183928 51321508 
3162.956 51459428 51597916 51737120 51876852 52016556 52155968 52294792 
3166.332 52432536 52569388 52705128 52839336 52971412 53100496 53226028 
3169.707 53347808 53466324 53582512 53697196 53810856 53923124 54033164 
3173.082 54139936 54242524 54340784 54435644 54528012 54619308 54710248 
3176.457 54800680 54890156 54978108 55064040 55147892 55230284 55312208 
3179.833 55394108 55476740 55560028 55643444 55727252 55810776 55894088 
3183.208 55976852 56058804 56139412 56218528 56296036 56372428 56447924 
3186.583 56522864 56597560 56671248 56743700 56814084 56882752 56950288 
3189.958 57017612 57085624 57154748 57224408 57293592 57361120 57426160 
3193.333 57489248 57551244 57613400 57676324 57739744 57802124 57861472 
3196.709 57916332 57966084 58011904 58055796 58100224 58146736 58196404 
3200.084 58248840 58302952 58357900 58412936 58468016 58523440 58579060 
3203.459 58634464 58688664 58740664 58789488 58835240 58878192 58919024 
3206.834 58958756 58997700 59036264 59074600 59113172 59152392 59192756 
3210.210 59234416 59276492 59317928 59357092 59392268 59422968 59449524 
3213.585 59473004 59495044 59517124 59539656 59562688 59585868 59608484 
3216.960 59630720 59653340 59677020 59702948 59731764 59763436 59797844 
3220.335 59834888 59874212 59916008 59960132 60006160 60053336 60100480 
3223.711 60146488 60190448 60232200 60272320 60311492 60351392 60392820 
3227.086 60436532 60482956 60531820 60582408 60634108 60685272 60734732 
3230.461 60781384 60824868 60865920 60906100 60947732 60992912 61043056 
3233.836 61098508 61158008 61220076 61282340 61343052 61401364 61456820 
3237.212 61509692 61560204 61608920 61656272 61703132 61750916 61801144 
3240.587 61854704 61912020 61972088 62032820 62091912 62147692 62200032 
3243.962 62250468 62301444 62356484 62417916 62486820 62561936 62641388 
3247.337 62722272 62802172 62879332 62953404 63024388 63092844 63159368 
3250.713 63224056 63287260 63349016 63408904 63466920 63522568 63574844 
3254.088 63623564 63668488 63710004 63749060 63786820 63824476 63862928 
3257.463 63902080 63941388 63980208 64017868 64053772 64087876 64120212 
3260.838 64150548 64178548 64203212 64223648 64239284 64249428 64254148 
3264.214 64254076 64250036 64243012 64234368 64225300 64216964 64210280 
3267.589 64205244 64201556 64198144 64193412 64185888 64174592 64159192 
3270.964 64139912 64117060 64091676 64063564 64032772 63998900 63961664 
3274.339 63921160 63878208 63833760 63788852 63744916 63702636 63662424 
3277.715 63624716 63589072 63555436 63522840 63490352 63457028 63422212 
3281.090 63385672 63348064 63310184 63273228 63238196 63205012 63173584 
3284.465 63143232 63113496 63084452 63056640 63031012 63008180 62988148 
3287.840 62969992 62952868 62935664 62918016 62900700 62884504 62870720 
3291.216 62860416 62853368 62849084 62847168 62847436 62850728 62858732 
3294.591 62873124 62895148 62925136 62962016 63003772 63048592 63094876 
3297.966 63141548 63188604 63236052 63284344 63333572 63384212 63436320 
3301.341 63490584 63547804 63608332 63673092 63741692 63813916 63889644 
3304.717 63968800 64051776 64138948 64230560 64326228 64425104 64526348 
3308.092 64629384 64734444 64842492 64954296 65070444 65190352 65312148 
3311.467 65433628 65552832 65669180 65783860 65899572 66018900 66144436 
3314.842 66276460 66413536 66552864 66691728 66827664 66959464 67087324 
3318.218 67211192 67331392 67447792 67560080 67668400 67773384 67876192 
3321.593 67978400 68081128 68184320 68287136 68388424 68487072 68582632 
3324.968 68675608 68766984 68857392 68946824 69033704 69116216 69192136 
3328.343 69260496 69321040 69374800 69423160 69467016 69506528 69540824 
3331.719 69568504 69588192 69598688 69599312 69589824 69570416 69541208 
3335.094 69502944 69456560 69403256 69344248 69280776 69212576 69139176 
3338.469 69059304 68971488 68874832 68769384 68655696 68534672 68406816 
3341.844 68271744 68128024 67974672 67810488 67635064 67449256 67253976 
3345.219 67050280 66838756 66619484 66392920 66159292 65920316 65678156 
3348.595 65435404 65194168 64955376 64719020 64483872 64248620 64012268 
3351.970 63774392 63535644 63296920 63059324 62823808 62591368 62363332 
3355.345 62140616 61924856 61716916 61517136 61324808 61138556 60956536 
3358.720 60777264 60600388 60426140 60255764 60090476 59930728 59776136 
3362.096 59625668 59478212 59332708 59188920 59047916 58910484 58777956 
3365.471 58651152 58530608 58416460 58308444 58206444 58110184 58019060 
3368.846 57931892 57847736 57764912 57682188 57598568 57513644 57426652 
3372.221 57336880 57242892 57142652 57034236 56915728 56785576 56643460 
3375.597 56489280 56323008 56144768 55954352 55751176 55534872 55304908 
3378.972 55061108 54803540 54532180 54246468 53945968 53630084 53298920 
3382.347 52952548 52592316 52219976 51836940 51444844 51044824 50637320 
3385.722 50222832 49801496 49374068 48941908 48506396 48069616 47633760 
3389.098 47200148 46770032 46343952 45921608 45502432 45086052 44672312 
3392.473 44261748 43854984 43453180 43056720 42665776 42279460 41896256 
3395.848 41514776 41134184 40754172 40375764 40000016 39628116 39260228 
3399.223 38895804 38533572 38171856 37810008 37447776 37086240 36726668 
3402.599 36370560 36018452 35670120 35324404 34980004 34635624 34290732 
3405.974 33945784 33601796 33259940 32921496 32587636 32259140 31936240 
3409.349 31619030 31307646 31001144 30698806 30399416 30101864 29806042 
3412.724 29511876 29220604 28933952 28653576 28380740 28115922 27858370 
3416.100 27606898 27359984 27116278 26874826 26635020 26397250 26161508 
3419.475 25928078 25697654 25470550 25247566 25029438 24816716 24609778 
3422.850 24408512 24212382 24020440 23831382 23644018 23457082 23270088 
3426.225 23082370 22894348 22706584 22519702 22334644 22152666 21974386 
3429.601 21799492 21627872 21458370 21289704 21120718 20950790 20780374 
3432.976 20610580 20442934 20279036 20120160 19966480 19817638 19672556 
3436.351 19530192 19389192 19249172 19109544 18970028 18830316 18689992 
3439.726 18548330 18405540 18261828 18118060 17976030 17837296 17702986 
3443.102 17573134 17446254 17320030 17191500 17057804 16917636 16771937 
3446.477 16623428 16476072 16334374 16201491 16078964 15965926 15859548 
3449.852 15756393 15653227 15547854 15439245 15328432 15216377 15104111 
3453.227 14992251 14880694 14768687 14655646 14541709 14427459 14313856 
3456.603 14202474 14093618 13987391 13882969 13779050 13674301 13568040 
3459.978 13460369 13351870 13244013 13137789 13034252 12933404 12835412 
3463.353 12739318 12644440 12550231 12456075 12361873 12267758 12174175 
3466.728 12081806 11991021 11902300 11816048 11732162 11650811 11571993 
3470.104 11495469 11420898 11347733 11275058 11201544 11126343 11048572 
3473.479 10968301 10886311 10804744 10725231 10649976 10580031 10515393 
3476.854 10454939 10396767 10339045 10279566 10217821 10153305 10086425 
3480.229 10018503 9950795 9885403 9823647 9767458 9718053 9675937 9640804 
3484.087 9611501 9586163 9562723 9539250 9514899 9489398 9463253 9437788 
3487.944 9414289 9393228 9375351 9360217 9347285 9335707 9324704 9313397 
3491.802 9301549 9289159 9276533 9264856 9256124 9251893 9254092 9263976 
3495.659 9281578 9306356 9337128 9372677 9412223 9455634 9503181 9555237 
3499.516 9611907 9672447 9735774 9800466 9865710 9931675 9999719 10072147 
3503.374 10151949 10241874 10343286 10456874 10581899 10716196 10857263 
3506.749 11002487 11149188 11295428 11440220 11583869 11727567 11873491 
3510.124 12024028 12181093 12345510 12517457 12695612 12878655 13064881 
3513.500 13252246 13438598 13621714 13798921 13968058 14127196 14276017 
3516.875 14415642 14548493 14676929 14803037 14926507 15044765 15152898 
3520.250 15245478 15317516 15365744 15390048 15391627 15373846 15340514 
3523.625 15293628 15234839 15163191 15077010 14973113 14849151 14702532 
3527.000 14532629 14339848 14126580 13896619 13654230 13403570 13148171 
3530.376 12889713 12629055 12366407 12101941 11835320 11565970 11293693 
3533.751 11016998 10734978 10446657 10152559 9854998 9557710 9265702 8983226 
3537.608 8713408 8456933 8212833 7978894 7752873 7533070 7319276 7111212 
3541.466 6909005 6711602 6516947 6322412 6125645 5925105 5721132 5515577 
3545.323 5311764 5113510 4924059 4746315 4581368 4429739 4290578 4161965 
3549.181 4041283 3925215 3810348 3693440 3572587 3447226 3318662 3189469 
3553.038 3062784 2941439 2827066 2719991 2619309 2523449 2430943 2340555 
3556.896 2251385 2163166 2075464 1988146 1900546 1812198 1722637 1631532 
3560.753 1539482 1446985 1355473 1265641 1178618 1093739 1009573 923631 
3564.610 832594 734108 626419 511658 393877 280039 177701 92122 25547 -23557 
3569.432 -59902 -89154 -117079 -147620 -183689 -226080 -274826 -329260 
3573.290 -388223 -451051 -516583 -583165 -649471 -714080 -776034 -835102 
3577.147 -891648 -945344 -996852 -1045511 -1090198 -1129791 -1163102 
3580.522 -1190000 -1211742 -1230212 -1247888 -1266985 -1289383 -1315646 
3583.897 -1346168 -1381544 -1422530 -1470316 -1526285 -1591127 -1662924 
3587.273 -1738273 -1810838 -1874021 -1923010 -1955106 -1971433 -1976282 
3590.648 -1974963 -1973545 -1976975 -1988552 -2009594 -2039837 -2077299 
3594.023 -2119440 -2163622 -2207436 -2248872 -2286217 -2318155 -2343400 
3597.398 -2361393 -2372630 -2378298 -2380671 -2382582 -2386800 -2395137 
3600.774 -2408120 -2425517 -2445781 -2467625 -2490061 -2512825 -2536510 
3604.149 -2562170 -2591222 -2624652 -2663776 -2708527 -2758904 -2813259 
3607.524 -2869285 -2923692 -2972892 -3014453 -3047389 -3073052 -3094371 
3610.899 -3114538 -3136019 -3158947 -3181906 -3201444 -3213942 -3217593 
3614.275 -3213284 -3204206 -3195128 -3191116 -3195227 -3209107 -3232064 
3617.650 -3260807 -3292048 -3321379 -3345284 -3361296 -3368430 -3366655 
3621.025 -3357646 -3344297 -3330027 -3318288 -3312271 -3313356 -3321379 
3624.400 -3335058 -3352517 -3373263 -3398907 -3433458 -3482535 -3550307 
3627.776 -3636632 -3733289 -3824702 -3892847 -3924338 -3916786 -3877479 
3631.151 -3820235 -3759207 -3705300 -3665940 -3643039 -3635121 -3638111 
3634.526 -3647607 -3659632 -3672709 -3686770 -3702704 -3721529 -3742947 
3637.901 -3766335 -3789952 -3812583 -3832847 -3850188 -3864310 -3875081 
3641.277 -3882175 -3886411 -3887757 -3887002 -3885393 -3884769 -3886772 
3644.652 -3893340 -3906573 -3928508 -3960522 -4003663 -4058025 -4121835 
3648.027 -4191246 -4260941 -4323670 -4372384 -4400757 -4405545 -4386784 
3651.402 -4348438 -4297392 -4241188 -4187472 -4142938 -4111824 -4096135 
3654.778 -4094625 -4104078 -4118388 -4131877 -4139820 -4141002 -4136243 
3658.153 -4127972 -4118487 -4108345 -4096988 -4083563 -4066626 -4046930 
3661.528 -4026380 -4008259 -3996145 -3992730 -3999034 -4014168 -4035441 
3664.903 -4059929 -4085139 -4109198 -4131877 -4154228 -4177725 -4203716 
3668.279 -4232526 -4261991 -4286762 -4298704 -4289124 -4251951 -4186126 
3671.654 -4096594 -3991548 -3882208 -3779212 -3691961 -3628615 -3593455 
3675.029 -3586620 -3603313 -3635909 -3677473 -3724649 -3777274 -3836690 
3678.404 -3903421 -3975330 -4047521 -4112809 -4165353 -4200992 -4219597 
3681.780 -4223568 -4217235 -4204733 -4189703 -4174837 -4162531 -4155573 
3685.155 -4156951 -4169980 -4196430 -4236529 -4286959 -4342238 -4394295 
3688.530 -4435818 -4461793 -4471271 -4466254 -4449659 -4424274 -4392294 
3691.905 -4354802 -4313566 -4271046 -4230262 -4194428 -4165976 -4145826 
3695.281 -4133978 -4128760 -4128235 -4131057 -4136603 -4145170 -4157608 
3698.656 -4174706 -4196529 -4221861 -4248309 -4271965 -4288960 -4295522 
3702.031 -4289944 -4271998 -4243912 -4209458 -4172803 -4137720 -4106966 
3705.406 -4081758 -4062391 -4048112 -4038527 -4034029 -4035802 -4046438 
3708.781 -4068989 -4105161 -4155048 -4215463 -4279905 -4340269 -4387833 
3712.157 -4415877 -4421978 -4407678 -4378616 -4341450 -4303067 -4268093 
3715.532 -4239810 -4218777 -4203879 -4192525 -4181958 -4170111 -4156427 
3718.907 -4141822 -4128530 -4119570 -4116813 -4120850 -4130073 -4141559 
3722.282 -4152029 -4158756 -4160332 -4157772 -4153374 -4149928 -4149731 
3725.658 -4153013 -4158756 -4163515 -4163909 -4157477 -4143857 -4125609 
3729.033 -4106375 -4092032 -4087568 -4096397 -4118651 -4151143 -4188226 
3732.408 -4222748 -4249949 -4269078 -4282923 -4296145 -4312811 -4333249 
3735.783 -4354375 -4369694 -4373073 -4361723 -4336661 -4302247 -4263795 
3739.159 -4225799 -4191147 -4161513 -4138146 -4124657 -4126429 -4151471 
3742.534 -4207391 -4297884 -4416500 -4543479 -4650948 -4712409 -4717522 
3745.909 -4674911 -4605085 -4530363 -4467500 -4427193 -4412401 -4419781 
3749.284 -4440935 -4467729 -4493833 -4516001 -4533445 -4545020 -4547610 
3752.660 -4537839 -4513443 -4475829 -4430341 -4384881 -4347454 -4323637 
3756.035 -4315107 -4319996 -4333577 -4350012 -4365233 -4377600 -4387013 
3759.410 -4393901 -4397083 -4393901 -4380978 -4356835 -4322948 -4284039 
3762.785 -4246832 -4217563 -4199811 -4193674 -4194625 -4196430 -4192985 
3766.161 -4181466 -4163351 -4143988 -4129679 -4125346 -4133256 -4151766 
3769.536 -4175822 -4198530 -4214118 -4219335 -4214281 -4201812 -4185863 
3772.911 -4171162 -4160890 -4156788 -4158756 -4164992 -4172639 -4179169 
3776.286 -4182910 -4184649 -4186389 -4191147 -4201156 -4216218 -4233510 
3779.662 -4247586 -4252869 -4245848 -4226620 -4198891 -4168339 -4141264 
3783.037 -4121966 -4112119 -4109920 -4111922 -4113662 -4111922 -4105522 
3786.412 -4095314 -4083629 -4072961 -4065608 -4063048 -4065773 -4073552 
3789.787 -4084942 -4098268 -4111660 -4122524 -4129974 -4133715 -4135652 
3793.163 -4138376 -4145367 -4158395 -4177528 -4199351 -4218843 -4230032 
3796.538 -4228687 -4214675 -4192131 -4168372 -4151930 -4150486 -4168635 
3799.913 -4206537 -4258054 -4311466 -4352571 -4367759 -4350832 -4304413 
3803.288 -4238727 -4168011 -4105653 -4063343 -4048211 -4061505 -4097513 
3806.664 -4144447 -4188226 -4216644 -4224848 -4215135 -4194428 -4170341 
3810.039 -4148452 -4130335 -4115270 -4100533 -4084745 -4068694 -4057139 
3813.414 -4056286 -4072534 -4108837 -4163056 -4225865 -4283186 -4320914 
3816.789 -4331215 -4315107 -4280889 -4241254 -4209097 -4194625 -4202435 
3820.165 -4231082 -4271374 -4309104 -4328951 -4321899 -4287287 -4233248 
3823.540 -4170998 -4113531 -4070893 -4048736 -4047915 -4063869 -4088946 
3826.915 -4114121 -4132239 -4140706 -4141100 -4138343 -4137720 -4144218 
3830.290 -4159938 -4183501 -4210574 -4235446 -4251819 -4254641 -4241976 
3833.666 -4214839 -4177659 -4136899 -4100336 -4075160 -4065674 -4072895 
3837.041 -4092426 -4117305 -4138146 -4149010 -4147861 -4137884 -4125051 
3840.416 -4115500 -4112907 -4118454 -4129580 -4141888 -4151307 -4155310 
3843.791 -4152784 -4145170 -4134011 -4121769 -4109297 -4097218 -4085402 
3847.167 -4073421 -4060684 -4046701 -4030615 -4012264 -3992467 -3974115 
3850.542 -3962393 -3965020 -3990005 -4042696 -4121769 -4215660 -4302706 
3853.917 -4361198 -4377895 -4354080 -4301722 -4237054 -4174444 -4122195 
3857.292 -4083990 -4058945 -4043713 -4034587 -4028482 -4024772 -4024312 
3860.667 -4028974 -4040792 -4060750 -4088782 -4123508 -4161710 -4198629 
3864.043 -4227768 -4241910 -4235512 -4206275 -4157608 -4097579 -4037771 
3867.418 -3990891 -3966268 -3968369 -3993715 -4032224 -4068070 -4087273 
3870.793 -4083465 -4059831 -4026840 -3996374 -3978350 -3976675 -3988922 
3874.168 -4007503 -4023295 -4029105 -4022901 -4007865 -3990826 -3979729 
3877.544 -3980977 -3997458 -4028514 -4069909 -4113826 -4151274 -4174247 
3880.919 -4177397 -4159708 -4124329 -4078443 -4030582 -3989644 -3962722 
3884.294 -3953725 -3961441 -3979400 -3996768 -4002875 -3990727 -3959832 
3887.669 -3916293 -3869958 -3831205 -3808871 -3807590 -3827461 -3862832 
3891.045 -3904636 -3943021 -3971028 -3985704 -3988462 -3983078 -3973688 
3894.420 -3962623 -3950541 -3936816 -3920398 -3900794 -3879252 -3858300 
3897.795 -3841485 -3831862 -3831566 -3840861 -3858136 -3880828 -3906114 
3901.170 -3932022 -3957239 -3980714 -4001759 -4018633 -4028777 -4029696 
3904.546 -4019552 -3998574 -3968369 -3932350 -3894719 -3859318 -3829103 
3907.921 -3806178 -3791069 -3783679 -3782858 -3786930 -3793861 -3801383 
3911.296 -3807689 -3811499 -3811794 -3809200 -3804733 -3800069 -3796916 
3914.671 -3796193 -3797704 -3799839 -3800463 -3797178 -3789065 -3776551 
3918.047 -3761342 -3746790 -3735326 -3728756 -3726752 -3728033 -3729906 
3921.422 -3730398 -3728361 -3724551 -3720806 -3719689 -3722974 -3731548 
3924.797 -3744327 -3758747 -3771624 -3780558 -3783646 -3781051 -3773825 
3928.172 -3763872 -3753130 -3743341 -3735326 -3730300 -3727902 -3728033 
3931.548 -3729840 -3732632 -3734669 -3734472 -3731088 -3724189 -3714498 
3934.923 -3703394 -3692881 -3684569 -3679575 -3677538 -3677571 -3678524 
3938.298 -3678754 -3678097 -3677013 -3677078 -3679542 -3685653 -3695148 
3941.673 -3706909 -3717882 -3725274 -3726719 -3720641 -3707632 -3689497 
3945.049 -3669062 -3649775 -3634299 -3624705 -3621419 -3623719 -3629174 
3948.424 -3635187 -3638932 -3638374 -3632821 -3622865 -3609820 -3595788 
3951.799 -3582085 -3569828 -3558950 -3548926 -3539165 -3529700 -3520826 
3955.174 -3513497 -3508501 -3506595 -3507318 -3510309 -3513760 -3516455 
3958.550 -3517802 -3517704 -3516554 -3515436 -3515140 -3515896 -3517408 
3961.925 -3518723 -3519183 -3518000 -3514976 -3510309 -3504820 -3499331 
3965.300 -3494401 -3490752 -3488747 -3488156 -3488747 -3489602 -3489799 
3968.675 -3488320 -3484014 -3476356 -3465213 -3451045 -3434905 -3418172 
3972.051 -3402228 -3387960 -3375795 -3365932 -3357909 -3351432 -3345875 
3975.426 -3341305 -3337656 -3334893 -3333151 -3332066 -3331803 -3331869 
3978.801 -3332230 -3332723 -3333249 -3333644 -3333776 -3332986 -3331178 
3982.176 -3328054 -3323484 -3317993 -3312172 -3306648 -3302176 -3299019 
3985.552 -3297540 -3297178 -3298000 -3299644 -3302110 -3305464 -3310035 
3988.927 -3315691 -3322201 -3328712 -3334729 -3339201 -3341765 -3342324 
3992.302 -3341108 -3338445 -3334959 -3330356 -3324832 -3318025 -3310232 
3995.677 -3301749 -3293626 -3287148 -3284090 -3285405 -3291226 -3301091 
3999.052 -3313619 -3326871 -3339530 -3349755 
##END=
