
##TITLE=Z189_2_a
##JCAMP-DX=5.01  $$ Nicolet v. 1
##DATATYPE=INFRARED SPECTRUM
##ORIGIN=UniL
##OWNER=Nicolet
##LONGDATE=2011/09/14
##TIME=16:42:46
##SPECTROMETER/DATA SYSTEM=Nicolet iS5
##DATA PROCESSING=
Ratio against background
%Transmittance->Absorbance
Truncated
ElementMultiply or ElementDivide
##COMMENTS=
Number of sample scans: 32
Collection length: 51.23 sec
Sample gain: 2.0
Background collected on: Mer Sep 14 16:41:24 2011 (GMT+02:00);
Number of background scans: 32
Background gain: 2.0
Sample spacing:  1.000
Number of scan points: 12415
Resolution points: 8192
Number of FFT points: 65536
Apodization: N-B fort;
Phase correction: Mertz;
Laser frequency: 15798.0 cm-1
Number of rejected sample scans: 0
Number of rejected background scans: 0
Bench serial number: ASB1000141;
##RESOLUTION=4.000
##XUNITS=1/CM
##YUNITS=ABSORBANCE
##FIRSTX=649.893372
##LASTX=4000.122314
##FIRSTY=0.106850
##MAXX=4000.122314
##MINX=649.893372
##MAXY=0.261652
##MINY=-0.004667
##XFACTOR=1.000000
##YFACTOR=1.000000E-009
##NPOINTS=6950
##DELTAX=0.482117
##ZPD=6100
##XYDATA=(X++(Y..Y))
649.893 106850008 106006808 105192312 104455824 103839152 103364704 
652.786 103036304 102838336 102745760 102734008 102788584 102906232 
655.679 103092640 103355416 103697016 104110384 104580624 105085520 
658.571 105604440 106125376 106646512 107177824 107734744 108332232 
661.464 108976016 109661904 110376440 111104304 111837160 112574096 
664.357 113318000 114067096 114796480 115453896 115956936 116211072 
667.250 116163096 115862648 115480528 115212992 115183968 115386080 
670.142 115718128 116043496 116242336 116248656 116054832 115713104 
673.035 115302600 114899256 114537128 114199352 113835832 113398608 
675.928 112870688 112277744 111673232 111108200 110605616 110147048 
678.820 109683528 109161592 108555528 107877616 107173288 106493936 
681.713 105873520 105308968 104766952 104198696 103568384 102871800 
684.606 102137176 101410448 100732520 100123576 99574904 99059968 98547552 
687.981 98021464 97486880 96968248 96494840 96090016 95761368 95501208 
691.355 95293640 95124280 94987240 94887920 94839320 94854072 94941848 
694.730 95105392 95341712 95646216 96016320 96451808 96955944 97532344 
698.105 98181648 98901120 99683680 100519016 101394296 102297712 103218480 
701.480 104148064 105080920 106012648 106938536 107852008 108740368 
704.373 109586336 110371912 111081624 111709440 112261528 112754776 
707.265 113209792 113641440 114053104 114435176 114774296 115061560 
710.158 115304408 115528424 115773016 116075608 116458128 116918128 
713.051 117429504 117950744 118437048 118854760 119184056 119417008 
715.943 119551688 119587648 119527120 119380288 119175816 118964384 
718.836 118809320 118780744 118932488 119286128 119827720 120509072 
721.729 121263512 122013160 122687800 123229472 123591880 123747944 
724.621 123691160 123441760 123047192 122579296 122123224 121752400 
727.514 121517880 121436272 121491976 121647776 121861440 122103432 
730.407 122359304 122629128 122919128 123232024 123563688 123905968 
733.300 124252216 124603904 124971520 125370040 125810280 126293912 
736.192 126811040 127345488 127882552 128414544 128941656 129470200 
739.085 130003648 130540208 131073000 131595672 132109000 132624168 
741.978 133158384 133723032 134313136 134900160 135436560 135863120 
744.870 136130096 136210384 136104432 135836704 135443856 134967472 
747.763 134443024 133901488 133374240 132891400 132482184 132169784 
750.656 131961808 131850152 131812544 131824296 131866320 131934376 
753.548 132038368 132195608 132419392 132710648 133054360 133424280 
756.441 133791568 134129536 134419968 134650400 134810128 134888720 
759.334 134877696 134775696 134593424 134355664 134097192 133850040 
762.227 133637296 133466008 133329240 133214488 133112744 133025232 
765.119 132963344 132943376 132976352 133066104 133206200 133385184 
768.012 133590368 133812208 134043544 134277792 134510096 134741792 
770.905 134989232 135288112 135691408 136256304 137014064 137944560 
773.797 138953600 139888176 140549056 140742000 140340416 139305248 
776.690 137699552 135652912 133327840 130863664 128342632 125789704 
779.583 123180096 120468488 117611520 114589928 111413944 108122056 
782.475 104768848 101418104 98136624 94982088 92002984 89235712 86699704 
785.850 84402232 82339328 80500352 78873072 77446040 76211096 75162648 
789.225 74295688 73605688 73088088 72739712 72560840 72556800 72736416 
792.600 73109648 73683536 74456088 75412360 76519504 77729016 78974448 
795.975 80170936 81226088 82038960 82509296 82558136 82134352 81230720 
799.350 79886928 78187832 76250312 74196464 72149192 70207248 68434312 
802.724 66860012 65477044 64251080 63128708 62055640 60989596 59909044 
806.099 58820028 57751892 56748532 55850116 55082400 54445900 53915880 
809.474 53447324 52986348 52486600 51914936 51257744 50518828 49713992 
812.849 48864252 47989564 47109140 46239492 45394348 44586604 43827052 
816.224 43122252 42475444 41886260 41351808 40868828 40435404 40050992 
819.598 39715824 39430576 39194292 39005040 38861016 38761488 38708164 
822.973 38705632 38759748 38877252 39062716 39317064 39636572 40012188 
826.348 40427368 40859036 41278488 41649400 41935524 42104080 42131496 
829.723 42009940 41749884 41379724 40938364 40471992 40026864 39640272 
833.098 39340280 39141460 39043212 39029800 39070908 39127288 39152232 
836.473 39102124 38945092 38665716 38270020 37781704 37239316 36684448 
839.847 36153832 35676452 35268412 34935080 34674740 34481672 34349216 
843.222 34270076 34237880 34245696 34286928 34355996 34448704 34562500 
846.597 34695880 34847324 35013868 35190720 35371560 35550000 35721672 
849.972 35884848 36040632 36192512 36344692 36501292 36666236 36843692 
853.347 37038172 37255240 37500944 37780260 38096792 38452652 38848408 
856.721 39284856 39764440 40291196 40871596 41513428 42224460 43013180 
860.096 43888636 44859456 45935788 47125576 48432080 49848504 51354844 
863.471 52916164 54479968 55986580 57373668 58583080 59574620 60329120 
866.846 60855476 61189516 61395256 61559744 61776276 62143792 62752664 
870.221 63671248 64948560 66604964 68631400 70984208 73583784 76317224 
873.596 79025280 81521968 83610840 85092120 85809672 85669680 84654216 
876.970 82824848 80308920 77283904 73935392 70450504 66998936 63708812 
880.345 60677920 57967564 55603484 53588924 51907992 50535912 49442380 
883.720 48597468 47974172 47545912 47288292 47178204 47192504 47312048 
887.095 47522996 47819300 48203176 48683600 49273104 49982908 50820424 
890.470 51788556 52886976 54114560 55473240 56968992 58612544 60417188 
893.844 62395996 64559104 66908636 69434400 72103896 74854688 77590216 
897.219 80165632 82405968 84124456 85137104 85311880 84587224 82988192 
900.594 80620536 77656976 74317000 70816352 67361264 64124204 61220952 
903.969 58725376 56666640 55039744 53817044 52958048 52419376 52157200 
907.344 52134524 52323832 52705688 53269772 54013728 54940352 56055220 
910.719 57363120 58862596 60540392 62364784 64277776 66201432 68035440 
914.093 69667928 71000632 71954560 72489064 72608928 72364024 71843136 
917.468 71152840 70413488 69734920 69198464 68855848 68717136 68755800 
920.843 68912696 69111712 69276888 69342536 69274208 69074184 68785536 
924.218 68482608 68264760 68244328 68520240 69173640 70251456 71756192 
927.593 73640824 75804744 78108064 80361784 82351096 83868272 84712008 
930.967 84730328 83842512 82046568 79429168 76150288 72436880 68533160 
934.342 64674720 61072156 57873324 55169748 53001544 51365732 50234176 
937.717 49565852 49320020 49454336 49923024 50673956 51634372 52710588 
941.092 53797204 54775308 55534948 55995552 56109060 55874796 55333776 
944.467 54564076 53659964 52716052 51818796 51027792 50378080 49882880 
947.841 49538556 49332304 49247124 49266312 49373140 49549140 49776488 
951.216 50035144 50306420 50575968 50834952 51081608 51320160 51558624 
954.591 51805732 52068328 52351976 52660052 52995108 53360060 53757564 
957.966 54189252 54654928 55152176 55676664 56223584 56790332 57376164 
961.341 57983048 58614100 59271476 59955260 60663748 61393692 62143104 
964.716 62912344 63704320 64523540 65374272 66258976 67177200 68126984 
968.090 69105840 70112112 71145896 72208080 73298992 74418288 75563672 
971.465 76732992 77925376 79142784 80389816 81672944 82998984 84372584 
974.840 85797400 87276168 88812424 90412328 92084608 93838976 95685992 
978.215 97635344 99695888 101878024 104194232 106659432 109290744 112103920 
981.590 115110440 118315728 121717928 125307920 129066912 132965144 
984.482 136951376 140942352 144824864 148442320 151607248 154134624 
987.375 155847440 156616096 156381792 155159440 153042304 150182528 
990.268 146790432 143098464 139336528 135729952 132457776 129650368 
993.160 127390800 125709640 124600376 124031104 123960264 124343656 
996.053 125140680 126318904 127848048 129700080 131848856 134266464 
998.946 136923632 139789344 142820736 145958512 149124720 152210656 
1001.839 155089584 157631680 159708704 161224640 162125184 162405232 
1004.731 162110944 161334880 160214464 158905424 157578816 156406112 
1007.624 155528224 155059184 155074240 155607472 156663904 158227552 
1010.517 160275088 162780352 165720720 169076912 172828160 176951904 
1013.409 181424448 186217872 191301920 196637776 202160144 207767856 
1016.302 213307856 218558304 223262368 227141936 229937712 231476352 
1019.195 231692880 230662944 228585696 225781120 222647520 219582128 
1022.087 216980480 215168256 214361376 214679152 216128432 218627264 
1024.980 222017376 226100624 230667152 235490528 240359904 245076848 
1027.873 249444384 253293968 256486000 258924240 260573360 261457088 
1030.766 261652208 261261584 260404912 259198512 257737104 256098656 
1033.659 254333504 252458160 250452960 248258720 245789760 242938912 
1036.552 239608176 235730896 231280384 226278944 220787712 214897632 
1039.446 208709872 202329664 195866816 189421984 183091776 176964656 
1042.339 171107280 165570352 160387248 155576624 151154624 147139808 
1045.232 143553952 140424976 137779728 135637616 134010064 132897200 
1048.125 132290184 132173376 132526368 133325280 134538320 136127920 
1051.018 138049248 140249664 142678688 145287968 148032688 150873472 
1053.911 153765056 156647216 159444496 162055840 164362544 166249120 
1056.804 167604048 168340688 168409376 167798080 166539824 164709248 
1059.697 162430576 159863952 157190048 154610016 152308784 150442416 
1062.590 149137024 148469984 148478528 149162048 150488112 152393968 
1065.483 154785200 157548320 160541472 163604608 166584544 169331424 
1068.376 171719392 173658624 175084560 175958400 176260096 175981888 
1071.269 175128304 173716496 171779760 169365152 166530384 163347952 
1074.162 159898864 156276688 152595952 148979568 145562880 142485984 
1077.055 139869808 137817584 136403792 135664736 135601200 136173024 
1079.948 137303328 138867536 140698560 142606016 144369408 145779408 
1082.842 146673136 146948240 146595248 145694656 144412848 142962960 
1085.735 141576432 140487648 139887056 139917408 140664160 142143344 
1088.628 144304608 147028128 150147360 153445664 156679216 159621184 
1091.521 162057328 163819520 164801984 164951600 164272512 162815072 
1094.414 160671792 157961232 154810608 151353264 147704256 143954272 
1097.307 140173696 136408432 132689464 129040064 125477880 122016456 
1100.200 118665080 115428056 112306200 109301560 106421616 103684224 
1103.093 101119360 98764176 96663352 94861328 93395952 92300848 91601304 
1106.468 91314664 91452528 92019400 93012392 94418616 96215248 98368744 
1109.844 100831264 103546560 106446256 109445584 112450752 115351080 
1112.737 118021040 120339472 122189200 123475000 124139128 124160480 
1115.630 123557176 122377088 120694440 118598064 116179680 113536168 
1118.523 110754392 107905064 105044672 102208952 99417448 96681448 94008736 
1121.898 91410480 88904928 86514584 84266240 82187912 80303544 78636016 
1125.273 77206712 76034304 75138304 74536640 74243168 74266832 74608328 
1128.648 75259056 76199688 77400304 78822336 80412904 82108968 83838408 
1132.024 85516064 87059496 88396352 89473168 90270840 90807184 91137584 
1135.399 91340512 91510568 91743016 92111800 92666256 93419328 94346192 
1138.774 95383888 96438896 97404904 98163952 98609256 98658864 98254640 
1142.149 97370032 96005272 94181816 91937704 89322880 86401856 83245536 
1145.525 79931488 76541952 73150976 69826592 66626944 63595332 60765260 
1148.900 58159884 55792312 53668620 51787808 50143908 48726152 47521224 
1152.275 46515488 45694908 45047788 44565052 44239588 44066352 44041596 
1155.650 44161560 44423176 44823784 45361608 46036164 46847904 47797660 
1159.026 48885648 50110664 51469608 52957040 54564604 56279588 58084464 
1162.401 59952372 61846416 63721820 65522468 67187648 68658296 69874880 
1165.776 70786944 71354840 71549864 71359016 70785656 69849696 68584064 
1169.151 67031608 65242408 63265108 61148168 58938528 56677064 54403196 
1172.527 52152792 49954956 47835428 45814672 43907220 42124232 40473156 
1175.902 38958032 37580640 36340116 35234020 34258248 33407878 32678578 
1179.277 32066032 31567220 31180176 30903756 30737036 30678536 30726260 
1182.652 30876860 31126638 31471380 31907640 32432016 33041288 33731480 
1186.028 34496056 35325160 36206268 37122040 38052628 38976516 39869244 
1189.403 40707008 41467784 42132700 42690232 43138060 43484600 43747196 
1192.778 43951288 44127268 44304896 44512224 44773384 45105240 45518952 
1196.153 46018592 46600796 47254188 47958076 48684676 49395488 50044664 
1199.529 50583300 50956588 51112840 51009016 50612896 49912728 48919096 
1202.904 47667408 46210888 44615868 42956044 41297252 39697380 38201268 
1206.279 36836872 35619620 34553924 33635984 32857518 32207214 31673628 
1209.654 31244724 30909272 30658376 30485174 30385626 30358336 30403252 
1213.030 30520754 30710364 30969794 31295146 31680934 32120012 32604676 
1216.405 33125494 33671252 34230028 34788448 35333176 35852568 36336336 
1219.780 36776248 37166472 37502680 37782896 38007928 38182640 38316592 
1223.155 38423436 38521912 38632756 38776848 38974596 39242420 39591596 
1226.531 40027408 40548412 41145512 41801796 42494844 43196508 43874852 
1229.906 44500184 45044220 45484224 45806016 46004336 46084976 46064860 
1233.281 45973432 45850496 45740372 45693472 45757528 45973468 46376764 
1236.656 46993084 47839608 48926888 50259320 51835560 53646652 55676288 
1240.031 57896948 60267596 62738732 65247880 67722576 70089408 72268184 
1243.407 74180624 75760992 76955528 77733960 78091728 78050720 77654792 
1246.782 76961864 76043968 74975568 73828472 72671672 71558416 70522920 
1250.157 69576328 68704640 67872120 67026808 66116660 65096812 63941196 
1253.532 62648892 61244264 59773776 58293360 56866208 55549784 54385696 
1256.908 53399624 52594372 51952356 51435068 50990048 50558096 50074964 
1260.283 49484968 48745836 47831212 46735236 45470536 44066640 42562816 
1263.658 41005616 39443968 37920092 36470188 35120880 33887500 32777474 
1267.033 31790796 30923076 30166252 29511096 28948226 28467834 28060780 
1270.409 27719052 27434626 27200968 27012354 26864038 26752212 26674056 
1273.784 26626636 26606978 26611698 26637100 26679694 26736706 26805742 
1277.159 26884802 26970924 27059958 27145976 27222170 27281262 27318028 
1280.534 27328790 27312312 27268138 27195782 27093706 26959856 26792526 
1283.910 26592888 26365668 26121006 25872262 25635120 25426422 25260174 
1287.285 25148934 25103574 25133556 25248902 25459622 25774824 26201912 
1290.660 26744318 27399932 28159830 29006490 29914896 30848650 31762884 
1294.035 32608710 33333204 33891580 34253192 34405952 34359972 34145144 
1297.411 33807620 33397932 32966640 32559030 32206860 31932350 31746700 
1300.786 31652030 31643122 31708382 31831830 31993158 32170106 32342196 
1304.161 32490286 32599852 32661434 32669790 32624390 32527640 32385602 
1307.536 32206572 32001116 31781848 31561732 31353194 31168214 31016624 
1310.912 30906390 30844274 30835844 30885362 30996374 31170814 31409360 
1314.287 31711624 32076556 32502894 32989270 33534464 34136968 34794944 
1317.662 35507136 36272860 37092412 37966596 38895620 39876616 40901772 
1321.037 41955884 43016840 44054212 45029888 45904228 46636468 47192168 
1324.413 47551940 47716516 47712892 47589612 47416956 47272220 47223268 
1327.788 47323504 47597636 48041080 48622816 49296040 50010272 50717972 
1331.163 51386768 52000088 52557684 53072532 53568192 54075384 54624496 
1334.538 55244548 55957364 56773188 57688620 58685744 59736632 60803220 
1337.914 61842864 62814736 63677384 64395012 64940408 65295508 65454780 
1341.289 65423652 65216692 64852720 64350740 63730104 63005880 62191008 
1344.664 61296460 60329996 59297764 58204664 57055132 55856368 54619684 
1348.039 53361556 52105872 50882448 49723392 48665364 47744920 46995188 
1351.415 46448332 46130664 46061216 46252944 46710108 47428448 48391704 
1354.790 49571200 50921940 52378964 53866140 55296176 56577328 57630008 
1358.165 58386552 58800564 58853112 58552444 57936400 57064012 56020240 
1361.540 54905868 53823268 52875896 52145656 51679640 51486772 51536872 
1364.916 51771984 52113152 52478744 52790952 52980396 53000084 52826872 
1368.291 52464800 51941080 51298760 50587880 49851140 49124856 48435892 
1371.666 47802584 47242112 46772944 46415368 46191836 46120348 46208424 
1375.041 46450176 46826568 47311716 47877604 48501728 49168528 49869356 
1378.417 50601988 51369016 52177192 53034976 53950808 54927940 55959780 
1381.792 57022260 58069544 59040704 59857588 60437828 60709584 60612044 
1385.167 60110832 59208020 57956280 56462300 54869664 53342376 52014952 
1388.542 50967168 50222012 49753524 49508920 49423332 49436252 49491576 
1391.917 49536476 49524628 49412568 49164780 48763296 48212880 47542144 
1395.293 46791656 46001240 45194504 44375904 43538184 42675392 41794824 
1398.668 40925476 40112692 39403660 38834856 38418588 38146028 37994980 
1402.043 37941572 37967208 38061348 38221276 38448308 38743340 39104588 
1405.418 39526884 40002852 40525132 41087304 41683940 42310212 42960908 
1408.794 43630572 44314732 45010336 45716924 46435940 47168900 47914492 
1412.169 48666808 49413864 50141048 50833428 51479608 52075572 52624220 
1415.544 53133340 53612164 54069304 54512984 54952832 55405480 55895524 
1418.919 56447808 57081772 57797576 58574132 59374416 60156652 60885020 
1422.295 61531340 62082472 62540656 62922648 63253836 63561076 63864352 
1425.670 64170600 64475068 64764524 65024184 65240988 65406508 65518884 
1429.045 65581156 65601228 65589784 65560580 65530756 65518080 65540776 
1432.420 65612444 65738596 65914644 66127500 66360452 66598476 66839060 
1435.796 67099192 67418376 67843496 68410728 69128528 69971680 70890032 
1439.171 71816816 72683464 73417112 73947840 74221544 74196864 73851680 
1442.546 73181440 72195240 70913792 69366600 67595264 65647132 63568944 
1445.921 61410140 59219260 57049616 54969644 53055720 51380800 49999676 
1449.297 48933152 48172560 47691296 47462672 47468440 47699616 48148460 
1452.672 48794992 49597792 50499064 51418284 52263396 52943076 53371072 
1456.047 53498628 53341064 52994172 52594148 52256072 52041280 51953884 
1459.422 51970880 52067132 52227152 52443752 52709988 53012552 53325668 
1462.798 53612204 53835272 53968100 54010464 53991100 53962512 53978724 
1466.173 54072832 54252396 54499912 54784592 55067916 55311456 55476816 
1469.548 55517328 55378564 54998072 54314272 53292888 51952244 50379380 
1472.923 48703172 47052196 45511264 44107352 42830008 41660632 40594104 
1476.299 39646844 38848264 38222400 37777152 37498344 37358860 37328532 
1479.674 37387104 37530024 37766124 38111552 38580572 39180840 39911232 
1483.049 40767236 41744484 42843720 44068588 45420244 46891824 48458788 
1486.424 50071804 51661392 53131688 54367744 55252748 55672184 55541352 
1489.800 54832108 53586488 51915424 49963728 47880192 45774168 43702564 
1493.175 41684376 39710484 37765692 35850908 33989676 32230624 30637716 
1496.550 29266038 28145264 27272972 26625896 26171856 25882286 25737520 
1499.925 25723036 25825950 26033114 26328666 26695374 27116348 27569402 
1503.301 28025792 28446394 28770146 28917200 28796274 28326944 27485100 
1506.676 26333066 25006870 23647340 22344376 21122458 19964746 18845438 
1510.051 17749994 16679892 15654568 14700818 13840345 13086291 12438583 
1513.426 11887725 11420149 11022266 10682507 10390048 10136313 9915641 
1516.802 9726862 9574104 9463524 9398679 9376300 9384357 9403521 9415237 
1520.659 9409549 9393905 9391976 9432642 9533797 9693115 9892827 10108332 
1524.516 10320892 10521538 10715585 10918724 11150547 11423925 11741285 
1527.892 12096217 12479024 12883160 13307351 13755040 14230753 14736122 
1531.267 15269021 15824188 16395824 16981650 17585244 18213658 18871150 
1534.642 19556014 20257894 20961570 21647234 22295054 22888026 23408752 
1538.017 23843914 24184602 24429858 24585372 24662450 24678022 24649650 
1541.393 24592702 24517986 24427788 24315254 24166036 23966304 23708574 
1544.768 23400290 23062206 22721980 22401170 22105108 21821858 21527062 
1548.143 21196452 20815376 20388828 19940252 19503300 19104002 18750358 
1551.518 18430326 18120824 17800426 17459876 17107946 16768012 16467160 
1554.894 16220476 16023919 15852572 15667964 15421804 15063357 14554523 
1558.269 13890564 13124470 12358089 11696897 11196920 10854104 10630112 
1561.644 10477578 10356452 10233969 10090528 9918386 9724593 9527295 9349113 
1565.501 9208874 9112327 9051595 9008530 8963777 8902051 8818557 8720946 
1569.359 8626131 8553639 8516806 8519948 8559553 8628260 8717803 8819638 
1573.216 8924676 9020979 9095004 9135980 9140616 9119907 9098657 9107692 
1577.074 9167959 9283812 9444865 9634435 9837306 10044002 10252764 10467159 
1580.931 10693035 10934728 11193112 11464986 11744826 12025425 12299423 
1584.306 12559406 12796918 13003218 13170541 13294026 13374217 13418606 
1587.682 13441572 13461838 13499435 13573783 13699366 13885705 14137670 
1591.057 14454965 14830807 15250282 15690362 16118439 16496239 16788262 
1594.432 16964390 17008044 16919222 16713912 16420461 16070850 15697850 
1597.807 15327745 14978841 14663837 14389576 14158586 13969906 13819342 
1601.183 13700836 13608210 13537411 13488429 13464675 13471305 13512355 
1604.558 13588038 13693552 13819855 13955021 14086636 14201789 14288105 
1607.933 14334197 14329266 14264889 14136883 13947562 13707163 13433028 
1611.308 13148649 12876914 12635060 12432105 12266293 12127834 12001615 
1614.684 11872809 11729337 11567297 11394399 11229017 11095172 11011900 
1618.059 10988248 11021281 11098979 11204264 11318247 11425184 11511902 
1621.434 11572946 11611605 11639852 11674228 11730256 11817138 11934040 
1624.809 12073901 12226008 12381578 12534304 12681114 12821693 12957778 
1628.185 13093018 13232399 13382998 13551870 13743789 13960667 14199461 
1631.560 14453081 14710140 14958332 15185940 15382668 15542943 15667517 
1634.935 15766425 15857933 15965203 16108604 16298147 16532758 16802450 
1638.310 17093886 17391826 17683036 17959592 18219150 18466314 18709572 
1641.686 18957984 19215472 19478972 19737010 19973104 20170106 20313200 
1645.061 20396016 20423382 20413416 20393030 20391814 20435608 20538144 
1648.436 20701376 20917064 21169908 21437102 21686382 21879212 21966998 
1651.811 21906464 21685616 21357010 21033556 20823790 20774466 20858552 
1655.187 21016236 21188346 21335258 21438042 21492036 21503280 21480548 
1658.562 21431010 21355930 21250694 21107360 20918106 20678372 20388584 
1661.937 20055336 19691728 19315088 18943896 18594462 18276514 17990916 
1665.312 17729354 17475262 17206772 16899070 16529799 16085325 15565266 
1668.688 14985323 14374335 13767969 13196909 12681216 12227338 11830009 
1672.063 11475192 11142490 10808413 10449068 10047087 9600898 9131750 
1675.438 8680449 8289626 7988243 7779150 7644374 7556232 7489649 7430593 
1679.295 7377981 7341416 7332992 7359917 7418020 7492683 7561829 7607180 
1683.153 7622489 7623568 7644610 7724405 7884713 8121066 8413420 8739169 
1687.010 9082587 9433522 9786199 10136720 10479718 10809976 11123828 
1690.385 11421034 11705202 11981552 12253750 12519605 12770574 12989971 
1693.761 13158588 13260137 13291294 13268541 13228880 13213919 13245756 
1697.136 13317634 13395335 13432789 13378351 13193425 12870122 12449359 
1700.511 12013434 11642030 11375080 11199402 11073112 10947164 10783005 
1703.886 10557115 10261483 9904623 9506805 9094360 8689103 8303777 7941908 
1707.744 7600133 7272305 6951223 6631388 6308796 5982479 5654226 5328199 
1711.601 5008719 4699052 4399848 4109012 3823451 3540249 3258801 2980772 
1715.459 2708121 2441739 2180815 1924241 1674305 1440203 1235900 1074274 
1719.316 961752 894678 861079 844247 827548 798999 753989 695609 632425 
1723.656 574327 527847 493778 468005 444952 420442 393081 363897 333887 
1727.995 302785 268866 229712 184927 136765 89139 44435 -298 -54932 -136027 
1732.817 -259825 -433772 -645435 -862450 -1045676 -1169348 -1231567 -1249276 
1736.675 -1246732 -1245807 -1262227 -1302333 -1362915 -1433693 -1502412 
1740.050 -1559565 -1601922 -1631269 -1651536 -1665927 -1675301 -1679427 
1743.425 -1677942 -1672364 -1665036 -1658435 -1653748 -1650249 -1645826 
1746.800 -1638861 -1629519 -1620540 -1616150 -1620903 -1636649 -1662627 
1750.176 -1694511 -1726062 -1751936 -1767974 -1772990 -1767479 -1753553 
1753.551 -1733851 -1712663 -1695072 -1686457 -1691672 -1712201 -1745039 
1756.926 -1782361 -1814797 -1835155 -1841952 -1839346 -1834990 -1838356 
1760.301 -1855578 -1887382 -1929014 -1971697 -2006527 -2027734 -2034824 
1763.677 -2031131 -2021039 -2008803 -1996962 -1987101 -1980504 -1978162 
1767.052 -1980570 -1986903 -1994423 -1999106 -1997820 -1990201 -1980108 
1770.427 -1974336 -1981230 -2006065 -2047884 -2097810 -2143048 -2172853 
1773.802 -2182612 -2175326 -2158808 -2140971 -2126661 -2116770 -2108757 
1777.177 -2099821 -2088841 -2078420 -2073309 -2078223 -2094809 -2120001 
1780.553 -2146741 -2166721 -2175524 -2173842 -2167248 -2162962 -2167545 
1783.928 -2182842 -2205623 -2229424 -2247850 -2257080 -2257278 -2251410 
1787.303 -2242708 -2233445 -2224413 -2215578 -2207568 -2203447 -2207897 
1790.678 -2225501 -2258563 -2304213 -2354407 -2399816 -2432404 -2449438 
1794.054 -2453622 -2450624 -2445682 -2442255 -2440806 -2440279 -2439883 
1797.429 -2440081 -2443112 -2451876 -2468251 -2491873 -2519874 -2547973 
1800.804 -2572316 -2590991 -2604956 -2615496 -2624454 -2631699 -2635816 
1804.179 -2635421 -2629888 -2620139 -2609073 -2599456 -2593264 -2590530 
1807.555 -2589805 -2589311 -2588422 -2588389 -2591156 -2598402 -2610259 
1810.930 -2623993 -2635157 -2640493 -2638187 -2630580 -2622346 -2618163 
1814.305 -2620732 -2629493 -2639570 -2645070 -2640756 -2624618 -2597809 
1817.680 -2564871 -2531042 -2500142 -2473555 -2450789 -2430559 -2411909 
1821.056 -2395203 -2381396 -2371971 -2367786 -2368972 -2374904 -2384329 
1824.431 -2395961 -2408317 -2419290 -2427099 -2430196 -2428483 -2423343 
1827.806 -2418202 -2417741 -2425089 -2441267 -2463243 -2484757 -2498824 
1831.181 -2501196 -2491345 -2472929 -2451349 -2431382 -2415468 -2403177 
1834.557 -2391842 -2378595 -2361986 -2342345 -2321549 -2301049 -2280318 
1837.932 -2256289 -2224875 -2182447 -2127783 -2063383 -1994489 -1927365 
1841.307 -1867852 -1819945 -1784671 -1761638 -1747778 -1738438 -1728274 
1844.682 -1711475 -1683322 -1641006 -1585713 -1520573 -1451955 -1387092 
1848.058 -1331965 -1290011 -1261467 -1243494 -1232492 -1226148 -1224397 
1851.433 -1229717 -1245311 -1272436 -1309403 -1352180 -1395448 -1435080 
1854.808 -1470481 -1503601 -1538732 -1579011 -1625195 -1674641 -1723752 
1858.183 -1768502 -1807637 -1842777 -1876561 -1911597 -1948608 -1985913 
1861.559 -2020511 -2050390 -2075321 -2096985 -2118616 -2141993 -2166984 
1864.934 -2191414 -2212117 -2226490 -2234929 -2240401 -2246367 -2255629 
1868.309 -2267430 -2277714 -2281241 -2273857 -2255168 -2228632 -2200249 
1871.684 -2175227 -2156995 -2145983 -2140806 -2139619 -2141433 -2146576 
1875.060 -2156105 -2170215 -2187755 -2205623 -2221084 -2231896 -2239049 
1878.435 -2245576 -2255234 -2270297 -2290799 -2313310 -2333282 -2347288 
1881.810 -2353846 -2355428 -2355758 -2358691 -2365842 -2376453 -2386998 
1885.185 -2394313 -2396488 -2393687 -2388085 -2382121 -2377540 -2374542 
1888.561 -2372531 -2370587 -2368149 -2365842 -2364095 -2362711 -2360470 
1891.936 -2355988 -2347717 -2336479 -2324680 -2315881 -2312947 -2316803 
1895.311 -2325208 -2334238 -2339280 -2338028 -2330975 -2321286 -2312321 
1898.686 -2305960 -2301741 -2296073 -2284998 -2265947 -2238489 -2205623 
1902.062 -2171633 -2139883 -2112516 -2089137 -2068165 -2048378 -2029943 
1905.437 -2014212 -2003229 -1998414 -1999337 -2003856 -2010419 -2017015 
1908.812 -2023380 -2030669 -2039672 -2050126 -2061207 -2070836 -2078058 
1912.187 -2083433 -2089203 -2098173 -2112055 -2130552 -2150664 -2169062 
1915.563 -2183007 -2192271 -2199853 -2209578 -2224314 -2244521 -2267265 
1918.938 -2288393 -2305499 -2319704 -2335523 -2358789 -2393555 -2438994 
1922.313 -2488677 -2532722 -2561413 -2569318 -2558020 -2533875 -2506368 
1925.688 -2483307 -2468284 -2460871 -2459223 -2460838 -2465813 -2476224 
1929.063 -2493553 -2517865 -2545700 -2570734 -2586578 -2589904 -2581439 
1932.439 -2565662 -2548995 -2535917 -2527912 -2523926 -2520863 -2516778 
1935.814 -2512825 -2511836 -2516745 -2528209 -2543955 -2558284 -2566156 
1939.189 -2564904 -2556406 -2546524 -2543493 -2552256 -2574259 -2605351 
1942.564 -2636738 -2659890 -2667991 -2658507 -2632622 -2593988 -2545799 
1945.940 -2492960 -2439554 -2390260 -2349661 -2321714 -2307641 -2305235 
1949.315 -2310805 -2318451 -2324120 -2327218 -2329162 -2333545 -2343333 
1952.690 -2357966 -2374838 -2390853 -2402815 -2411085 -2419290 -2431580 
1956.065 -2450591 -2475598 -2501492 -2521522 -2531141 -2529856 -2521917 
1959.441 -2514768 -2514110 -2521357 -2533611 -2543131 -2543461 -2532326 
1962.816 -2512265 -2488776 -2469536 -2459487 -2458597 -2465319 -2476059 
1966.191 -2488973 -2503074 -2519512 -2536510 -2551333 -2560260 -2559601 
1969.566 -2550609 -2539277 -2533974 -2543592 -2571854 -2614936 -2662261 
1972.942 -2701777 -2722357 -2720151 -2696080 -2653995 -2595537 -2518162 
1976.317 -2415204 -2281702 -2121188 -1946563 -1780678 -1647344 -1564716 
1979.692 -1537610 -1559829 -1614334 -1681309 -1745897 -1799157 -1839115 
1983.067 -1868148 -1889956 -1904801 -1912883 -1913774 -1908265 -1899457 
1986.443 -1892232 -1889098 -1890219 -1893452 -1894508 -1890945 -1884380 
1989.818 -1878013 -1877683 -1886953 -1904240 -1924693 -1940427 -1945507 
1993.193 -1937591 -1919547 -1896356 -1873658 -1854556 -1838092 -1822518 
1996.568 -1807736 -1794372 -1786222 -1788763 -1803414 -1828259 -1858317 
1999.944 -1885205 -1902591 -1909023 -1907473 -1903943 -1905230 -1914631 
2003.319 -1931191 -1951148 -1969422 -1982153 -1988519 -1989080 -1984396 
2006.694 -1975457 -1960351 -1938053 -1909947 -1879662 -1851355 -1830635 
2010.069 -1818625 -1812587 -1807538 -1798035 -1781173 -1758635 -1735765 
2013.445 -1717086 -1705732 -1701046 -1697844 -1691342 -1679394 -1663353 
2016.820 -1647938 -1639059 -1638168 -1642723 -1646552 -1642459 -1627208 
2020.195 -1602648 -1575577 -1555240 -1548472 -1557155 -1578285 -1606411 
2023.570 -1635791 -1662429 -1686359 -1706986 -1722333 -1729165 -1721607 
2026.946 -1695072 -1651074 -1596178 -1540845 -1496105 -1469755 -1461532 
2030.321 -1466023 -1473156 -1473552 -1461664 -1436632 -1400039 -1355120 
2033.696 -1304249 -1247195 -1185143 -1120901 -1058468 -1004290 -964123 
2037.071 -939063 -927887 -925474 -925771 -924184 -918861 -910595 -900708 
2040.929 -890921 -879844 -866517 -851174 -833977 -818401 -808347 -805304 
2044.786 -808248 -812613 -811588 -797532 -766938 -718811 -656220 -585084 
2048.644 -513009 -447840 -397956 -371042 -373227 -406530 -467766 -546301 
2052.501 -628561 -697110 -737864 -745339 -722648 -681628 -637990 -606029 
2056.358 -592297 -596268 -610727 -626609 -636799 -639215 -635344 -628991 
2060.216 -623201 -617245 -608345 -592628 -567678 -533792 -495137 -455288 
2064.073 -418182 -385376 -356044 -329194 -304527 -282905 -265918 -255255 
2067.931 -249924 -247871 -246612 -244592 -242937 -245222 -255620 -276316 
2071.788 -306944 -342338 -375246 -399611 -411958 -412389 -404411 -392924 
2075.646 -380311 -367334 -352469 -333962 -311911 -289163 -269859 -258169 
2079.503 -256083 -262309 -273004 -283766 -290918 -293600 -293600 -292143 
2083.360 -291680 -292309 -292938 -292739 -292044 -292839 -298368 -311414 
2087.218 -332339 -359355 -389084 -417586 -442875 -466012 -489445 -516318 
2091.075 -549114 -585878 -622076 -652316 -670645 -673589 -661249 -635906 
2094.933 -602522 -566222 -531740 -502518 -480839 -467236 -460153 -457307 
2098.790 -454725 -448436 -436752 -419142 -398088 -377299 -360845 -350416 
2102.647 -345583 -343729 -341874 -337835 -331578 -324393 -318334 -313930 
2106.505 -309163 -300653 -284230 -257838 -222868 -184153 -147487 -118438 
2110.362 -100649 -93063 -92931 -97005 -102140 -107606 -114363 -122644 
2114.220 -132416 -142453 -150170 -153946 -153747 -151363 -149441 -150932 
2118.077 -156596 -165340 -175210 -184053 -191108 -197003 -204090 -212900 
2121.935 -223795 -234525 -241976 -244096 -241181 -235552 -231777 -234790 
2125.792 -246679 -268369 -298104 -333498 -373525 -419340 -472069 -534719 
2129.649 -607385 -687384 -769849 -848032 -915720 -968289 -1003992 -1021810 
2133.507 -1022934 -1009513 -983364 -949014 -912413 -879910 -858349 -852629 
2137.364 -863111 -887151 -919522 -954337 -986108 -1012356 -1031429 -1042767 
2141.222 -1045973 -1039627 -1023165 -997480 -966338 -935326 -911058 -898923 
2145.079 -900973 -916381 -940550 -967528 -992620 -1011794 -1022537 -1025215 
2148.937 -1020058 -1009579 -997645 -991166 -996290 -1020719 -1068747 
2152.312 -1140333 -1232690 -1340619 -1458659 -1583567 -1713719 -1844493 
2155.687 -1966486 -2062262 -2106185 -2071363 -1938514 -1705732 -1395481 
2159.062 -1048783 -712889 -431720 -230750 -114032 -69178 -75903 -110885 
2162.920 -154874 -196539 -227935 -244957 -246414 -232638 -206972 -176701 
2166.777 -151396 -140333 -150534 -183921 -237373 -304428 -377464 -449661 
2170.635 -517609 -579095 -632465 -676302 -708225 -725228 -727411 -716859 
2174.492 -696912 -674284 -653243 -637163 -627535 -625219 -631208 -647387 
2178.349 -675673 -714907 -760522 -804874 -837284 -848330 -834010 -795415 
2182.207 -740642 -681264 -626245 -582205 -551166 -530483 -516583 -507052 
2186.064 -500499 -496825 -495799 -495700 -493251 -485804 -470645 -447840 
2189.922 -419870 -389448 -359090 -330022 -301812 -273468 -245652 -220285 
2193.779 -200613 -189717 -188558 -195082 -205018 -212734 -213595 -206409 
2197.636 -193227 -177529 -164247 -156629 -155801 -161200 -171633 -184881 
2201.494 -199686 -215251 -229690 -241281 -247606 -246049 -235949 -217636 
2205.351 -192797 -164081 -134337 -105187 -77858 -53938 -33894 -18422 -8548 
2209.691 -3777 -2485 -3213 -3876 -3777 -2915 -2750 -4406 -8846 -15738 -23922 
2214.995 -32668 -42310 -54402 -70967 -93427 -119829 -146891 -168553 -179085 
2219.334 -175773 -160405 -137385 -114595 -99291 -95084 -102902 -120259 
2223.192 -143281 -168420 -193790 -218165 -240917 -261779 -278038 -287773 
2227.049 -289528 -283303 -270985 -255951 -240552 -226544 -214291 -203329 
2230.907 -193393 -186074 -183291 -187531 -199421 -217503 -237406 -254129 
2234.764 -262971 -260918 -248500 -227471 -200613 -170441 -137948 -103100 
2238.622 -66892 -30184 4870 35653 60606 79794 94342 106340 117575 128313 
2243.443 137163 143096 145051 143924 142334 143063 148167 158078 170640 
2247.783 182772 192120 197192 198584 198650 199280 201634 205877 211314 
2252.123 217778 226364 239127 258356 285212 318103 352855 383894 405882 
2256.462 415268 411686 397757 377196 354048 331765 311803 295125 281995 
2260.802 272911 267971 267076 269032 272182 274701 275464 274602 274105 
2265.141 275994 281830 292440 305669 318965 329742 335910 337336 335147 
2269.481 330969 326327 322182 318667 315285 312566 310809 310643 313163 
2273.821 318236 324868 332760 340519 347881 355474 364196 374509 387144 
2278.160 401869 418087 435765 454638 474904 496996 521246 547089 574294 
2282.500 602463 631397 661328 692091 722724 750969 773971 789041 794385 
2286.839 790568 779846 766635 755051 747982 746189 748513 752164 754421 
2291.179 754089 751102 746953 743833 743401 746621 753690 764113 777257 
2295.519 792726 809755 827382 844612 859684 871304 878808 882526 883124 
2299.858 882194 880733 878841 876384 872931 868183 862672 857493 853542 
2304.198 851683 851617 852247 852015 849824 845143 838437 830669 822734 
2308.537 815099 808062 801456 795414 790900 789141 790900 797074 806269 
2312.877 816859 826353 832793 835615 835316 833690 832893 834154 837972 
2317.217 843350 849160 854173 857792 861045 865760 874093 888403 910051 
2321.556 938142 970054 1000407 1021961 1027309 1009939 966268 897002 807033 
2325.896 704503 599344 501309 417225 350832 301922 267672 244299 228519 
2330.235 218010 211811 209656 210816 214662 219767 226165 234055 245161 
2334.575 260975 282592 309748 340121 370762 398885 422266 440475 454472 
2338.915 465550 475103 484192 492584 500247 507147 513582 520018 526819 
2343.254 533951 541283 549312 559762 575555 601102 640290 695509 766835 
2347.594 851285 944252 1040029 1132472 1216827 1289135 1346897 1388977 
2351.451 1415736 1428934 1430662 1424446 1413110 1399348 1384988 1371427 
2355.309 1359262 1348526 1339984 1333802 1330678 1331442 1335763 1343640 
2359.166 1354642 1368070 1383559 1401110 1420523 1441234 1463010 1483988 
2363.023 1502906 1519132 1532499 1543871 1555376 1569043 1585804 1606888 
2366.881 1631200 1657841 1685415 1712924 1739370 1764255 1786945 1806874 
2370.738 1823644 1837552 1849398 1861178 1875054 1893357 1917718 1949070 
2374.596 1987447 2032252 2082822 2138658 2199431 2265141 2335359 2410052 
2378.453 2488591 2570510 2655445 2743397 2834069 2927362 3022476 3118446 
2382.311 3213502 3306008 3394260 3476517 3552075 3620095 3680274 3732673 
2386.168 3777558 3815596 3847519 3874197 3896195 3913780 3926552 3933808 
2390.025 3934878 3929361 3917324 3899872 3878275 3854038 3828633 3803028 
2393.883 3777859 3753394 3729933 3707675 3686990 3668077 3651236 3636902 
2397.740 3625675 3618525 3616854 3621732 3634596 3655647 3684918 3721310 
2401.598 3763454 3809980 3859788 3912042 3966810 4023826 4083324 4145306 
2405.455 4209973 4277695 4348941 4424116 4503488 4586893 4673731 4762696 
2409.313 4853121 4944301 5036305 5129670 5224865 5321625 5419446 5516718 
2413.170 5611261 5701224 5785061 5861761 5931051 5992558 6046178 6091471 
2417.027 6128099 6155891 6175316 6187382 6193263 6194406 6192255 6187079 
2420.885 6179685 6170207 6158848 6146078 6132165 6117547 6102492 6087170 
2424.742 6072116 6058273 6047488 6041911 6044027 6056190 6079744 6114959 
2428.600 6161167 6216925 6280120 6349006 6422039 6498112 6577292 6659414 
2432.457 6745523 6836530 6933649 7037727 7149207 7267723 7392271 7521979 
2436.314 7655435 7792137 7932155 8076100 8224888 8379504 8540967 8709960 
2440.172 8886493 9070542 9261877 9459731 9663368 9871370 10083270 10298158 
2444.029 10516241 10738136 10964868 11197260 11435458 11678789 11925731 
2447.405 12174039 12421774 12667364 12909988 13150220 13387782 13623219 
2450.780 13856148 14085336 14309302 14525915 14733106 14928805 15111693 
2454.155 15280929 15435778 15576324 15702454 15813535 15908455 15984729 
2457.530 16039047 16067825 16067205 16034612 15968779 15870409 15741276 
2460.906 15584567 15403505 15201312 14980384 14742566 14489770 14223255 
2464.281 13945065 13656692 13360412 13058564 12753274 12447926 12146302 
2467.656 11852685 11572164 11309710 11068761 10851521 10658465 10487558 
2471.031 10336602 10202896 10084491 9980223 9890081 9813548 9750379 9699112 
2474.889 9657778 9623900 9594970 9569328 9545720 9523976 9503892 9485503 
2478.746 9468637 9452688 9436976 9420417 9402641 9382732 9361199 9338347 
2482.604 9315192 9292816 9271998 9253280 9236391 9220280 9203561 9185285 
2486.461 9164744 9142274 9119027 9096695 9077003 9061068 9049261 9041310 
2490.318 9036405 9034037 9033259 9034003 9035897 9038266 9040397 9041412 
2494.176 9040228 9036202 9029368 9019557 9007176 8992597 8976022 8957418 
2498.033 8937022 8915206 8892546 8869584 8846893 8824270 8801481 8777474 
2501.891 8751745 8723753 8694139 8663852 8634648 8607711 8584391 8565027 
2505.748 8549888 8538229 8529613 8522889 8516941 8510589 8502445 8491497 
2509.605 8477375 8460346 8441663 8423318 8406528 8392544 8381429 8372545 
2513.463 8364337 8355318 8344239 8330222 8313402 8293949 8272571 8249911 
2517.320 8226881 8204257 8183019 8164044 8148074 8135853 8127244 8122045 
2521.178 8119750 8120120 8123058 8128831 8137844 8150168 8165597 8183424 
2525.035 8202028 8220195 8236741 8250857 8262439 8272267 8281622 8291821 
2528.893 8304351 8320022 8338363 8358763 8379200 8397846 8413116 8424231 
2532.750 8431596 8436697 8441595 8448589 8458927 8473725 8492410 8514441 
2536.607 8539176 8566177 8595510 8627314 8661689 8698128 8735450 8772200 
2540.465 8806586 8837729 8864883 8888252 8909017 8927924 8946256 8964757 
2544.322 8983734 9003794 9025105 9047908 9072199 9097812 9124238 9150531 
2548.180 9176013 9199737 9220990 9239335 9254532 9266752 9276195 9283574 
2552.037 9289532 9295423 9301820 9309945 9320201 9332761 9347217 9362960 
2555.895 9378974 9394549 9408533 9420249 9428442 9432642 9431829 9426004 
2559.752 9415406 9401049 9383883 9365296 9346134 9326668 9306424 9284657 
2563.609 9260693 9234224 9205997 9177163 9149719 9125659 9106136 9091890 
2567.467 9082823 9077850 9075650 9075109 9075075 9075413 9076395 9078560 
2571.324 9082925 9090334 9101195 9115441 9132732 9152290 9172933 9193915 
2575.182 9214391 9233885 9252028 9268985 9284624 9299044 9312822 9326193 
2579.039 9339871 9354428 9370882 9389775 9411986 9438229 9469044 9505044 
2582.896 9546093 9591583 9640364 9690201 9738994 9784605 9825986 9862999 
2586.754 9897131 9930082 9964356 10002024 10043866 10089952 10139195 
2590.129 10190480 10242654 10294800 10346680 10397684 10447981 10497198 
2593.504 10544859 10590828 10635070 10677754 10719627 10761096 10802468 
2596.880 10843810 10884713 10924670 10963305 11000312 11036303 11071922 
2600.255 11108803 11148440 11192602 11242379 11298624 11360930 11428280 
2603.630 11498599 11570020 11640566 11709117 11775874 11841449 11907102 
2607.005 11974297 12043616 12115160 12188385 12262305 12336169 12409397 
2610.381 12481957 12553812 12624826 12694418 12762009 12826403 12886675 
2613.756 12942109 12992395 13037223 13076559 13110194 13138233 13160944 
2617.131 13179080 13193835 13206542 13218667 13231067 13244081 13257711 
2620.506 13271444 13285075 13298810 13313295 13329422 13348077 13369911 
2623.882 13394993 13422878 13453363 13486071 13521207 13559151 13600620 
2627.257 13645887 13695125 13747927 13803505 13861519 13921115 13982121 
2630.632 14044197 14107344 14171526 14236505 14302658 14369712 14438147 
2634.007 14507825 14579022 14651464 14725257 14800226 14876306 14953531 
2637.383 15032039 15111418 15191224 15270530 15348477 15424001 15496791 
2640.758 15566434 15634233 15700839 15767457 15835218 15904296 15974553 
2644.133 16045682 16116822 16187252 16256833 16325600 16394001 16462686 
2647.508 16532620 16604770 16679997 16758472 16840028 16923942 17009008 
2650.884 17094162 17178504 17261588 17343928 17426352 17509930 17595732 
2654.259 17684210 17775158 17867952 17961664 18055572 18149048 18242198 
2657.634 18335198 18428252 18521670 18615592 18710020 18804504 18898764 
2661.009 18992182 19084336 19174608 19262610 19347894 19430700 19511200 
2664.385 19589982 19667876 19745368 19823152 19901228 19979664 20058390 
2667.760 20137376 20216964 20297820 20380320 20465164 20552352 20641504 
2671.135 20731612 20821634 20910318 20996692 21080370 21161418 21240606 
2674.510 21318692 21396446 21474350 21552514 21630482 21707386 21782734 
2677.885 21855796 21926326 21994534 22061042 22127038 22193708 22262514 
2681.261 22334992 22412476 22496392 22587758 22687486 22795864 22913140 
2684.636 23038728 23172146 23312458 23458936 23611130 23768592 23931082 
2688.011 24098362 24270298 24446438 24626258 24809382 24995146 25183096 
2691.386 25373060 25564828 25758614 25954986 26154472 26358028 26566400 
2694.762 26780474 27000402 27226472 27457992 27694648 27935252 28179522 
2698.137 28426762 28676656 28928994 29183606 29440244 29698634 29958384 
2701.512 30218856 30479806 30740592 31000540 31258934 31515020 31767766 
2704.887 32016058 32258782 32495070 32723628 32942548 33150528 33345188 
2708.263 33524438 33686792 33830508 33955140 34060628 34147828 34217732 
2711.638 34271724 34311168 34336520 34348284 34346416 34330388 34299764 
2715.013 34253764 34191884 34113456 34018448 33906700 33778608 33634984 
2718.388 33477194 33307016 33126782 32938902 32745708 32549530 32352478 
2721.764 32156296 31962808 31774078 31592056 31418800 31256366 31106134 
2725.139 30969010 30845448 30735508 30638748 30555130 30484498 30426992 
2728.514 30382962 30352476 30335740 30332612 30342704 30365336 30399452 
2731.889 30443768 30496546 30556480 30622038 30692192 30766378 30844310 
2735.265 30926100 31011534 31100438 31192318 31286422 31381794 31477790 
2738.640 31574060 31670562 31767304 31864208 31960774 32056332 32149874 
2742.015 32240440 32327276 32410738 32491074 32569102 32645822 32721914 
2745.390 32797948 32874066 32950450 33027202 33104754 33183218 33262942 
2748.766 33343542 33424698 33505686 33585688 33664304 33741368 33817292 
2752.141 33892908 33969252 34047620 34129228 34215044 34305756 34401968 
2755.516 34503840 34611188 34723552 34840216 34960144 35082656 35206388 
2758.891 35330300 35453168 35573552 35689796 35800640 35904280 35999516 
2762.267 36084804 36158984 36220780 36268936 36302184 36319728 36320988 
2765.642 36306472 36277040 36234468 36180552 36117280 36046428 35969820 
2769.017 35889308 35806684 35724224 35643972 35567796 35497460 35433392 
2772.392 35375840 35324440 35278796 35238332 35202940 35172292 35146060 
2775.768 35123860 35104820 35088044 35072668 35057512 35041348 35022744 
2779.143 34999792 34969984 34930840 34879636 34814472 34734568 34640540 
2782.518 34534228 34418720 34297688 34174932 34053820 33937260 33827212 
2785.893 33724716 33630152 33542552 33461020 33384010 33309844 33237402 
2789.269 33165872 33094530 33023626 32953128 32883216 32813992 32745816 
2792.644 32678864 32613926 32551780 32493252 32438692 32388568 32342124 
2796.019 32298506 32256104 32213390 32168928 32121650 32070458 32015168 
2799.394 31955782 31892020 31824380 31752904 31677726 31599324 31517622 
2802.770 31432908 31345252 31255230 31162768 31068620 30972782 30876256 
2806.145 30779430 30683374 30588830 30496726 30407910 30322984 30242302 
2809.520 30166146 30094478 30027614 29965980 29910142 29860910 29818712 
2812.895 29783686 29755086 29732234 29713890 29699380 29688558 29682278 
2816.271 29681958 29689268 29705870 29732944 29770910 29819918 29879686 
2819.646 29950254 30032160 30125800 30231716 30350272 30480944 30622428 
2823.021 30773028 30930690 31093250 31259182 31426958 31595868 31765342 
2826.396 31935026 32104064 32271490 32435656 32594244 32744850 32884680 
2829.771 33011648 33123922 33221200 33303726 33372990 33430674 33478450 
2833.147 33518106 33551428 33579780 33604984 33629076 33654172 33682068 
2836.522 33714040 33751000 33792828 33839676 33891940 33950944 34019312 
2839.897 34099872 34196580 34312852 34451504 34615672 34808408 35033012 
2843.272 35294824 35600416 35957332 36374056 36858264 37414944 38045396 
2846.648 38744608 39500760 40292544 41090872 41860208 42558464 43145088 
2850.023 43583200 43843620 43910632 43782048 43470132 42997600 42396672 
2853.398 41705020 40959084 40195124 39444984 38732764 38077548 37491336 
2856.773 36979364 36542524 36177240 35877576 35635376 35441948 35288644 
2860.149 35167152 35069976 34991352 34926892 34873860 34831168 34799040 
2863.524 34778252 34770252 34776384 34798176 34837200 34895256 34974152 
2866.899 35075432 35200316 35349096 35521048 35714404 35926232 36152428 
2870.274 36388392 36628636 36867100 37097320 37313508 37510300 37684412 
2873.650 37834696 37962940 38072992 38170624 38262600 38355100 38453632 
2877.025 38562572 38684660 38821484 38973580 39140916 39322684 39517920 
2880.400 39725660 39944980 40174660 40414492 40663268 40919796 41181756 
2883.775 41445844 41707280 41960996 42200612 42420676 42616796 42786348 
2887.151 42929120 43047500 43147212 43235192 43320560 43413004 43521044 
2890.526 43653428 43818220 44023152 44278148 44595600 44990268 45481168 
2893.901 46088660 46832916 47732528 48799296 50034624 51425000 52939972 
2897.276 54528200 56115432 57616012 58933064 59970212 60651632 60925428 
2900.652 60775780 60223176 59322296 58152080 56797132 55346720 53878596 
2904.027 52452204 51113848 49893588 48808040 47866320 47071400 46421892 
2907.402 45914388 45543940 45305556 45194028 45205276 45335348 45580004 
2910.777 45934536 46392252 46943724 47577192 48277008 49023688 49796180 
2914.153 50568820 51314608 52008076 52624108 53143560 53554548 53852828 
2917.528 54042172 54131712 54134904 54064424 53930776 53740952 53497092 
2920.903 53198088 52840644 52422664 51944400 51411272 50833352 50226068 
2924.278 49608564 48999988 48419076 47881636 47398216 46976028 46617584 
2927.654 46322572 46088404 45910636 45783924 45700764 45652688 45630384 
2931.029 45622472 45618384 45606828 45576876 45519140 45425356 45289044 
2934.404 45106452 44876504 44600924 44283688 43930720 43548916 43144792 
2937.779 42725252 42296840 41866192 41440812 41028740 40637760 40275564 
2941.155 39948032 39658280 39406776 39190884 39005296 38842212 38692736 
2944.530 38546244 38391764 38218744 38017764 37782104 37508820 37199500 
2947.905 36860572 36501724 36135684 35775492 35432132 35114340 34827040 
2951.280 34571072 34344228 34142276 33960080 33791864 33633156 33480168 
2954.656 33330522 33182536 33035032 32887004 32737706 32586138 32431658 
2958.031 32274164 32114160 31953070 31792614 31634852 31481850 31335100 
2961.406 31195628 31063992 30941008 30827164 30723700 30631672 30552818 
2964.781 30488550 30440036 30408442 30394406 30397994 30418604 30455424 
2968.156 30507176 30572014 30648740 30736146 30833710 30941648 31060542 
2971.532 31191320 31334602 31490758 31658910 31837322 32022052 32206964 
2974.907 32384106 32542140 32668222 32749638 32774042 32732918 32622888 
2978.282 32446474 32211390 31930354 31619172 31293436 30968158 30656456 
2981.657 30367540 30107900 29880610 29685934 29521168 29381636 29261218 
2985.033 29153024 29050806 28949678 28847048 28742426 28637224 28534458 
2988.408 28436808 28346184 28262544 28183448 28104118 28017944 27917938 
2991.783 27797996 27654426 27486900 27298904 27097480 26890900 26688396 
2995.158 26497858 26324054 26169216 26032762 25912462 25805342 25708938 
2998.534 25621306 25541422 25468476 25402288 25342254 25288024 25239632 
3001.909 25196720 25159712 25128640 25103434 25083670 25068472 25056816 
3005.284 25047900 25041232 25036986 25035720 25038038 25044530 25055238 
3008.659 25069840 25087742 25108314 25130712 25154902 25180674 25208132 
3012.035 25237630 25269412 25303688 25340216 25379032 25419676 25461978 
3015.410 25505616 25550876 25598322 25648548 25702188 25759810 25821166 
3018.785 25885486 25951574 26018024 26083462 26147012 26208456 26267624 
3022.160 26325074 26380808 26435138 26488032 26540016 26591268 26642772 
3025.536 26695550 26750484 26808526 26870314 26935458 27003540 27073536 
3028.911 27143966 27213596 27280980 27345338 27406320 27464026 27519094 
3032.286 27572296 27624340 27675578 27725870 27774718 27821980 27867802 
3035.661 27913062 27959068 28007838 28060780 28118822 28182104 28249850 
3039.037 28320930 28394218 28469002 28545108 28622820 28702352 28784166 
3042.412 28868434 28955202 29044430 29136050 29229570 29324384 29419042 
3045.787 29512160 29602602 29689800 29774176 29857148 29940812 30027224 
3049.162 30117560 30211824 30308878 30406736 30503548 30597860 30688956 
3052.538 30777120 30862738 30946346 31028438 31109090 31188936 31268474 
3055.913 31348706 31430628 31514950 31601890 31690810 31781136 31872086 
3059.288 31963344 32055118 32148160 32243260 32340698 32440334 32541494 
3062.663 32643572 32745962 32848444 32951842 33056732 33163760 33273424 
3066.039 33385336 33499208 33614288 33729296 33843724 33956644 34067404 
3069.414 34175684 34281872 34386224 34489848 34593928 34699432 34806936 
3072.789 34916584 35027912 35140312 35253604 35367572 35482972 35600272 
3076.164 35719872 35841484 35964492 36087828 36210840 36332768 36453724 
3079.540 36574168 36694288 36814440 36934484 37054340 37173724 37293328 
3082.915 37413684 37535584 37659768 37785824 37912860 38039536 38164512 
3086.290 38287352 38408488 38529152 38651152 38776016 38904572 39036652 
3089.665 39171664 39308576 39446292 39584340 39722248 39859876 39997364 
3093.041 40134208 40270364 40405656 40540484 40675348 40811568 40949908 
3096.416 41091420 41236220 41383916 41533520 41683756 41833100 41980264 
3099.791 42124232 42264996 42403284 42540304 42677988 42818452 42963104 
3103.166 43112664 43267112 43425604 43586752 43749248 43911948 44073832 
3106.542 44234524 44393188 44549484 44702828 44853136 45000668 45146340 
3109.917 45291360 45436908 45583536 45730984 45878116 46023416 46165308 
3113.292 46302924 46436644 46567412 46697084 46827380 46959416 47093704 
3116.667 47230032 47368136 47507616 47648364 47790448 47933584 48077388 
3120.042 48221132 48363296 48502652 48638496 48770412 48899332 49026472 
3123.418 49153052 49280156 49408592 49537996 49667960 49797852 49927708 
3126.793 50058012 50189656 50323572 50460692 50601356 50744968 50890604 
3130.168 51037224 51183928 51330528 51477408 51624744 51773324 51922816 
3133.543 52072660 52221880 52369284 52514196 52657096 52799184 52942440 
3136.919 53089040 53240332 53397376 53559460 53725356 53892660 54059320 
3140.294 54223304 54382952 54538040 54688376 54834964 54979272 55123024 
3143.669 55267840 55415148 55565564 55719344 55875928 56034492 56193976 
3147.044 56353676 56512712 56670872 56827720 56983344 57138120 57292380 
3150.420 57447108 57603412 57762152 57923792 58088144 58254448 58421616 
3153.795 58588428 58754320 58918832 59082004 59244288 59405148 59564324 
3157.170 59720968 59874592 60025068 60173280 60320476 60468140 60617188 
3160.545 60767888 60919484 61070972 61221028 61369496 61516908 61664292 
3163.921 61812912 61963492 62116264 62270124 62423848 62576092 62726020 
3167.296 62872976 63016952 63157796 63295692 63430108 63561344 63689968 
3170.671 63816608 63942620 64068860 64195952 64323692 64451048 64576552 
3174.046 64698904 64816640 64929248 65036648 65139308 65238132 65334408 
3177.422 65429620 65525396 65623008 65722948 65825112 65928692 66031904 
3180.797 66132940 66231108 66325672 66417128 66506328 66594192 66681452 
3184.172 66768072 66854172 66939400 67024216 67109328 67195144 67282568 
3187.547 67371432 67461104 67550592 67638664 67724472 67807664 67888040 
3190.923 67966040 68041872 68115936 68188344 68259760 68330368 68400536 
3194.298 68470040 68538312 68604280 68667264 68726728 68783208 68838528 
3197.673 68894824 68954048 69017160 69083152 69150400 69216344 69278872 
3201.048 69337208 69392176 69445208 69498048 69551792 69606120 69660032 
3204.424 69711696 69759976 69804216 69844680 69882008 69916800 69949648 
3207.799 69980592 70010416 70040312 70072280 70108368 70150392 70198600 
3211.174 70251688 70306928 70360616 70409864 70453040 70489904 70521944 
3214.549 70551176 70579280 70607352 70635496 70663136 70690080 70715888 
3217.925 70741320 70767168 70794704 70824544 70857536 70893624 70932480 
3221.300 70973872 71017224 71062216 71108776 71157056 71207096 71259176 
3224.675 71313176 71368192 71423336 71476736 71526696 71572208 71612728 
3228.050 71649224 71683304 71716952 71752480 71790864 71833200 71879336 
3231.426 71929728 71984400 72043768 72108232 72177088 72248968 72321792 
3234.801 72393072 72461104 72525168 72586056 72645736 72706416 72769880 
3238.176 72836680 72906432 72977968 73050048 73121368 73191640 73260512 
3241.551 73327776 73392520 73454040 73511728 73565728 73617896 73670616 
3244.927 73727232 73790728 73862872 73943400 74030664 74122224 74214464 
3248.302 74305088 74392728 74476576 74557056 74634568 74709408 74781944 
3251.677 74851776 74918272 74981152 75040112 75095016 75146536 75195584 
3255.052 75243256 75290776 75339248 75388944 75439480 75490024 75538912 
3258.427 75584808 75626608 75663520 75695984 75724576 75749944 75773096 
3261.803 75794208 75813144 75829680 75843208 75853272 75859856 75863136 
3265.178 75863728 75862464 75860448 75857848 75855288 75852328 75848064 
3268.553 75841672 75831808 75817648 75798704 75774680 75745568 75711360 
3271.928 75672392 75629056 75581808 75532128 75481032 75430176 75380472 
3275.304 75332592 75286168 75240576 75194288 75146296 75096072 75043528 
3278.679 74989344 74934608 74880320 74827288 74776280 74727824 74682296 
3282.054 74639688 74599984 74562408 74526616 74491248 74455616 74419080 
3285.429 74381872 74344288 74307048 74271112 74236952 74204880 74174840 
3288.805 74146856 74120608 74095888 74072664 74050584 74029208 74008456 
3292.180 73988616 73970192 73954632 73943048 73937072 73937352 73944192 
3295.555 73957072 73975424 73998400 74025784 74057688 74094128 74134952 
3298.930 74179952 74228192 74278552 74330328 74382904 74436536 74491880 
3302.306 74549392 74610328 74675408 74745264 74820440 74901064 74986784 
3305.681 75076536 75168400 75260272 75350400 75438024 75523568 75609456 
3309.056 75698312 75792704 75894232 76002760 76116768 76234240 76353568 
3312.431 76473864 76595704 76720184 76848056 76979504 77113232 77247008 
3315.807 77378720 77506760 77630504 77750416 77867296 77981752 78094616 
3319.182 78206000 78316184 78425280 78533816 78641936 78749368 78854760 
3322.557 78956128 79051552 79139840 79221392 79297552 79370696 79442976 
3325.932 79515472 79587776 79658224 79724944 79786416 79841960 79891784 
3329.308 79936464 79976064 80010208 80037096 80055024 80062352 80058840 
3332.683 80043984 80018888 79983752 79938824 79884056 79819544 79745608 
3336.058 79663200 79573536 79477664 79375624 79266648 79149184 79021744 
3339.433 78883248 78733960 78574952 78407744 78233928 78054360 77868600 
3342.809 77676032 77475664 77266640 77048376 76820384 76582152 76333648 
3346.184 76075160 75807112 75531656 75251216 74968832 74686784 74407040 
3349.559 74129768 73854744 73581040 73308168 73035904 72765336 72497048 
3352.934 72231984 71970720 71713160 71459744 71210728 70966728 70728680 
3356.310 70497192 70272104 70052456 69837480 69625840 69417680 69214288 
3359.685 69017624 68830032 68653136 68487144 68330792 68181368 68035864 
3363.060 67891528 67746464 67600376 67454056 67309104 67167456 67031376 
3366.435 66902684 66782876 66672564 66571592 66478944 66392764 66311276 
3369.811 66232152 66153504 66073796 65991284 65904856 65812276 65711884 
3373.186 65601848 65481208 65349540 65207296 65055160 64893424 64721940 
3376.561 64539032 64342864 64131036 63901508 63653564 63386588 63101044 
3379.936 62797160 62475232 62135112 61776544 61399340 61003628 60590256 
3383.312 60160532 59716444 59260236 58794340 58321444 57843416 57362100 
3386.687 56878368 56392720 55905128 55415680 54924972 54433616 53942856 
3390.062 53454108 52968304 52486152 52007892 51534188 51065432 50602512 
3393.437 50146216 49696900 49254064 48816568 48382516 47950528 47520076 
3396.813 47091820 46667788 46250360 45841256 45440552 45046612 44656408 
3400.188 44266408 43873972 43477496 43077724 42676084 42274968 41876224 
3403.563 41481168 41090360 40703660 40320864 39941928 39566700 39194948 
3406.938 38825832 38458628 38092124 37725468 37358752 36992820 36628924 
3410.313 36269008 35914392 35566000 35224172 34889116 34560452 34238384 
3413.689 33923320 33615684 33315816 33023876 32739208 32460864 32187660 
3417.064 31917658 31649570 31382292 31114926 30847512 30580512 30315202 
3420.439 30053108 29795964 29545144 29301732 29065794 28836674 28612982 
3423.814 28393404 28176448 27961118 27746494 27532332 27318768 27105734 
3427.190 26893756 26682830 26473592 26266218 26061614 25860306 25662642 
3430.565 25468968 25278998 25092024 24907378 24723968 24541230 24358990 
3433.940 24177316 23997014 23818466 23642232 23468378 23297004 23127622 
3437.315 22959912 22794258 22630620 22469626 22311238 22154618 21998960 
3440.691 21842696 21684674 21524762 21363622 21202924 21044336 20888866 
3444.066 20735990 20584208 20430642 20272994 20110688 19944832 19778830 
3447.441 19617262 19464138 19321566 19189290 19064464 18943066 18821078 
3450.816 18695388 18565032 18430532 18293794 18156510 18020480 17886562 
3454.192 17755066 17626064 17499580 17375480 17253796 17134350 17016488 
3457.567 16899346 16781924 16663434 16543085 16420806 16296187 16169576 
3460.942 16041385 15912408 15784258 15658414 15536865 15420843 15311338 
3464.317 15207352 15107404 15009264 14910974 14810991 14709249 14606538 
3467.693 14504124 14403312 14304850 14208636 14114258 14020892 13928231 
3471.068 13835863 13744165 13653683 13564689 13477321 13391165 13306018 
3474.443 13221639 13138061 13055388 12974232 12895277 12819031 12745938 
3477.818 12676098 12609407 12545013 12482468 12420308 12357782 12294105 
3481.194 12229723 12165929 12104427 12047227 11995994 11951069 11911461 
3484.569 11875500 11840836 11805460 11768452 11730154 11691859 11655406 
3487.944 11622733 11594862 11571993 11553414 11537557 11522893 11508194 
3491.319 11492135 11474512 11455936 11436988 11419673 11405795 11397155 
3494.695 11395726 11402665 11418074 11441546 11472029 11508467 11550386 
3498.070 11597890 11651288 11711602 11779653 11854899 11936220 12021576 
3501.445 12108584 12195746 12282721 12370634 12462520 12561725 12671424 
3504.820 12793710 12928728 13074784 13229017 13388192 13549683 13712019 
3508.196 13875306 14040844 14210724 14386665 14569497 14758849 14953565 
3511.571 15151765 15351876 15553039 15754949 15957573 16161047 16364960 
3514.946 16567627 16767701 16963218 17153100 17336892 17514416 17685868 
3518.321 17850310 18005662 18148564 18275028 18380822 18463272 18520668 
3521.697 18552964 18561574 18548192 18514512 18461612 18389776 18298010 
3525.072 18184840 18048110 17885872 17696808 17481194 17241108 16980582 
3528.447 16704891 16419256 16128102 15833741 15536900 15236966 14932818 
3531.822 14624426 14312075 13996596 13678951 13359353 13037668 12713286 
3535.198 12386419 12057788 11729712 11405420 11087353 10777944 10478088 
3538.573 10187733 9906725 9634876 9372440 9119806 8877565 8644552 8419197 
3542.430 8198551 7980143 7761643 7541870 7320726 7099525 6880054 6664529 
3546.288 6455937 6256656 6068689 5893701 5731675 5580583 5436926 5296133 
3550.145 5153576 5006070 4852920 4695904 4539045 4387531 4244903 4113661 
3554.002 3993561 3882354 3777124 3675228 3574257 3473578 3372621 3271254 
3557.860 3169343 3066521 2962089 2856015 2748666 2641177 2535581 2434009 
3561.717 2338623 2250653 2169759 2093775 2018703 1939285 1849199 1743795 
3565.575 1620490 1480929 1330645 1179183 1036542 911014 806601 723188 656483 
3569.914 600704 550141 500081 447075 389433 326459 258522 186485 111510 
3574.254 34891 -41680 -117046 -190743 -262143 -331578 -399181 -464555 
3578.111 -527140 -586275 -641564 -693041 -741304 -787478 -832158 -875247 
3581.969 -915951 -952188 -982901 -1007926 -1029082 -1051031 -1078927 
3585.344 -1119050 -1175560 -1249739 -1338208 -1434453 -1528860 -1612288 
3588.719 -1678470 -1724412 -1751672 -1764839 -1769987 -1774013 -1782625 
3592.094 -1800807 -1831031 -1873922 -1927365 -1987431 -2049730 -2109548 
3595.470 -2163787 -2210568 -2249927 -2282427 -2309618 -2332887 -2353286 
3598.845 -2372136 -2390359 -2408713 -2427824 -2447428 -2467163 -2485811 
3602.220 -2501855 -2514670 -2524025 -2530383 -2534731 -2539376 -2546162 
3605.595 -2557592 -2575511 -2601564 -2635783 -2676981 -2722423 -2768189 
3608.971 -2810395 -2846145 -2875045 -2899369 -2922704 -2949132 -2981579 
3612.346 -3020606 -3063643 -3105886 -3142236 -3168716 -3183781 -3188945 
3615.721 -3188813 -3188550 -3193879 -3209765 -3238806 -3281196 -3334072 
3619.096 -3391773 -3447330 -3493415 -3525493 -3541794 -3544194 -3536799 
3622.472 -3524376 -3511624 -3500909 -3492330 -3484540 -3475074 -3463733 
3625.847 -3452952 -3448218 -3457915 -3491114 -3551654 -3636665 -3733421 
3629.222 -3822961 -3887593 -3918855 -3918329 -3896230 -3865328 -3836854 
3632.597 -3818528 -3813897 -3821188 -3835869 -3852553 -3866214 -3874621 
3635.973 -3878431 -3880073 -3882667 -3888972 -3900367 -3916786 -3937275 
3639.348 -3959799 -3982421 -4003433 -4021259 -4034587 -4042466 -4043910 
3642.723 -4038362 -4026118 -4008324 -3987018 -3965808 -3948669 -3939771 
3646.098 -3943415 -3961999 -3996145 -4044993 -4104603 -4170834 -4238104 
3649.474 -4300869 -4353194 -4389703 -4405939 -4400133 -4373532 -4331051 
3652.849 -4279446 -4228063 -4185371 -4158527 -4151963 -4165353 -4193444 
3656.224 -4227538 -4258152 -4278756 -4287287 -4285220 -4276985 -4267076 
3659.599 -4258578 -4253329 -4251491 -4252410 -4254936 -4258054 -4260317 
3662.975 -4260678 -4257430 -4249588 -4236168 -4217366 -4194625 -4170177 
3666.350 -4147139 -4128595 -4117929 -4117305 -4127677 -4147762 -4172376 
3669.725 -4192427 -4196529 -4173754 -4117732 -4028974 -3914028 -3784303 
3673.100 -3654901 -3541072 -3458573 -3420670 -3432341 -3488123 -3573837 
3676.476 -3671723 -3768865 -3860205 -3947027 -4032224 -4118126 -4202895 
3679.851 -4282267 -4351062 -4405185 -4443395 -4467795 -4481109 -4486553 
3683.226 -4485373 -4477338 -4461957 -4440115 -4414533 -4390457 -4374877 
3686.601 -4374024 -4392163 -4429062 -4479437 -4534134 -4584037 -4621740 
3689.977 -4645048 -4656161 -4658029 -4654686 -4647834 -4637836 -4624657 
3693.352 -4608069 -4588660 -4568267 -4548955 -4532658 -4520099 -4511049 
3696.727 -4503573 -4495473 -4485635 -4474452 -4463695 -4457235 -4458940 
3700.102 -4471992 -4496686 -4530199 -4566988 -4599512 -4621248 -4628198 
3703.478 -4619838 -4598397 -4567972 -4533543 -4498752 -4466352 -4437983 
3706.853 -4413942 -4394918 -4381044 -4373040 -4372023 -4378452 -4393278 
3710.228 -4415779 -4444674 -4477436 -4510164 -4538462 -4558136 -4565906 
3713.603 -4560627 -4543118 -4517050 -4486553 -4456775 -4432571 -4416500 
3716.979 -4409744 -4411154 -4418403 -4428242 -4438377 -4448380 -4458251 
3720.354 -4469697 -4483077 -4497965 -4513082 -4525379 -4532756 -4534035 
3723.729 -4529838 -4522264 -4514328 -4508130 -4504687 -4502786 -4499408 
3727.104 -4490554 -4472911 -4445395 -4409285 -4368874 -4329509 -4297621 
3730.479 -4278297 -4274196 -4284006 -4304347 -4328755 -4352013 -4372220 
3733.855 -4390523 -4410465 -4435195 -4464974 -4496063 -4521739 -4534953 
3737.230 -4532396 -4515148 -4487373 -4454480 -4420436 -4386915 -4352997 
3740.605 -4317568 -4281545 -4248932 -4228720 -4232624 -4271145 -4347290 
3743.980 -4450479 -4556693 -4635541 -4666814 -4647965 -4592037 -4518525 
3747.356 -4446543 -4391704 -4362281 -4359853 -4379404 -4412433 -4450052 
3750.731 -4486290 -4518001 -4544036 -4562234 -4568988 -4560889 -4536462 
3754.106 -4497702 -4450151 -4401413 -4359001 -4328394 -4312746 -4311794 
3757.481 -4322916 -4342599 -4367037 -4393344 -4418534 -4439361 -4451758 
3760.857 -4452250 -4439623 -4415484 -4384455 -4353555 -4329968 -4318487 
3764.232 -4320488 -4332757 -4349061 -4361034 -4363101 -4353358 -4334233 
3767.607 -4311565 -4291683 -4280397 -4281086 -4293291 -4313369 -4336333 
3770.982 -4356540 -4369399 -4373302 -4368054 -4355556 -4338498 -4319897 
3774.358 -4301854 -4285646 -4271342 -4258480 -4246766 -4236791 -4230131 
3777.733 -4229048 -4235282 -4248932 -4267273 -4285581 -4298146 -4301427 
3781.108 -4294308 -4279249 -4260777 -4244305 -4233773 -4230623 -4233806 
3784.483 -4240630 -4247947 -4253657 -4257692 -4261039 -4265633 -4272556 
3787.859 -4281939 -4292602 -4303330 -4312746 -4320455 -4325671 -4328099 
3791.234 -4326688 -4319996 -4307004 -4287451 -4263040 -4237513 -4215266 
3794.609 -4200893 -4196956 -4202928 -4215004 -4227046 -4233313 -4230360 
3797.984 -4218876 -4203059 -4190327 -4189047 -4205717 -4243288 -4297982 
3801.360 -4359558 -4413122 -4445363 -4449200 -4426439 -4385012 -4336661 
3804.735 -4294111 -4267962 -4263959 -4282300 -4315731 -4351816 -4377993 
3808.110 -4386062 -4375074 -4349618 -4316715 -4282989 -4251918 -4224027 
3811.485 -4196956 -4168372 -4137555 -4106736 -4082185 -4070992 -4080281 
3814.861 -4112940 -4164795 -4223502 -4273737 -4302050 -4302444 -4278264 
3818.236 -4239548 -4200729 -4175723 -4175198 -4204109 -4258611 -4326130 
3821.611 -4388456 -4431161 -4446018 -4434474 -4404758 -4367595 -4333053 
3824.986 -4308415 -4296112 -4294603 -4298802 -4301985 -4298802 -4287123 
3828.362 -4267765 -4244634 -4222748 -4206275 -4197448 -4196430 -4200368 
3831.737 -4205750 -4208277 -4205192 -4195446 -4180449 -4163712 -4149666 
3835.112 -4143299 -4148845 -4168701 -4202009 -4245027 -4291125 -4332068 
3838.487 -4361198 -4374779 -4373138 -4359919 -4340138 -4318946 -4300771 
3841.863 -4287582 -4280364 -4278100 -4279544 -4282169 -4283744 -4282004 
3845.238 -4275475 -4263336 -4246176 -4224683 -4200368 -4174017 -4146023 
3848.613 -4115631 -4082349 -4046471 -4010589 -3980353 -3964856 -3974246 
3851.988 -4018830 -4102076 -4216742 -4342795 -4453758 -4528199 -4556955 
3855.364 -4544200 -4501769 -4443034 -4378616 -4315993 -4260121 -4212904 
3858.739 -4175395 -4147762 -4129711 -4120029 -4117108 -4118651 -4122327 
3862.114 -4127315 -4133354 -4142019 -4154687 -4170735 -4187373 -4199811 
3865.489 -4202698 -4192788 -4171522 -4144218 -4120226 -4109001 -4117666 
3868.865 -4147861 -4194494 -4245192 -4285581 -4305725 -4303363 -4284170 
3872.240 -4257660 -4234593 -4222124 -4222485 -4232329 -4244666 -4251655 
3875.615 -4246537 -4226948 -4194625 -4154687 -4113465 -4077885 -4053824 
3878.990 -4045256 -4052445 -4071714 -4096332 -4118093 -4129777 -4128235 
3882.365 -4115303 -4096758 -4080806 -4076080 -4088323 -4118290 -4159971 
3885.741 -4201812 -4231542 -4239253 -4222288 -4184879 -4136144 -4086320 
3889.116 -4045289 -4020438 -4014463 -4026315 -4050082 -4078016 -4101977 
3892.491 -4115631 -4116583 -4104439 -4081200 -4049753 -4013708 -3976577 
3895.866 -3941577 -3912123 -3891140 -3880434 -3880927 -3891698 -3910382 
3899.242 -3933302 -3956713 -3977168 -3993748 -4006946 -4019027 -4033504 
3902.617 -4052215 -4075620 -4101550 -4125773 -4143988 -4152193 -4149010 
3905.992 -4135521 -4114581 -4089964 -4064295 -4039971 -4017254 -3996013 
3909.367 -3975953 -3956910 -3939738 -3924962 -3913567 -3905654 -3900597 
3912.743 -3896985 -3893865 -3890943 -3889038 -3889793 -3895343 -3906376 
3916.118 -3922762 -3942463 -3962163 -3978711 -3990071 -3995192 -3994568 
3919.493 -3989119 -3979269 -3965742 -3948800 -3929264 -3909201 -3891402 
3922.868 -3879350 -3875902 -3881912 -3895704 -3913305 -3929099 -3937768 
3926.244 -3936257 -3924240 -3904340 -3880368 -3857380 -3839580 -3829662 
3929.619 -3829202 -3838069 -3855311 -3878726 -3905457 -3932120 -3954776 
3932.994 -3969781 -3974968 -3969748 -3955104 -3934123 -3910481 -3887396 
3936.369 -3867331 -3851173 -3838693 -3828676 -3819611 -3811039 -3802631 
3939.745 -3795536 -3791168 -3790675 -3794617 -3802894 -3814389 -3827395 
3943.120 -3840040 -3850549 -3857479 -3860205 -3858760 -3853472 -3845327 
3946.495 -3835573 -3825195 -3815769 -3808116 -3803255 -3801087 -3801744 
3949.870 -3803846 -3806309 -3807328 -3805488 -3799839 -3790347 -3777733 
3953.246 -3763707 -3750634 -3740418 -3734110 -3732271 -3733223 -3735194 
3956.621 -3735851 -3733421 -3727212 -3717685 -3706219 -3695312 -3686738 
3959.996 -3682039 -3681645 -3685292 -3691501 -3698598 -3705037 -3709472 
3963.371 -3711016 -3710030 -3706646 -3701292 -3694491 -3686212 -3676783 
3966.747 -3666039 -3654441 -3642514 -3631277 -3621616 -3614486 -3609524 
3970.122 -3606271 -3603642 -3600717 -3596774 -3591812 -3586653 -3581888 
3973.497 -3577879 -3574231 -3569630 -3562795 -3553034 -3540447 -3526643 
3976.872 -3514417 -3506299 -3503768 -3506956 -3513628 -3521089 -3526118 
3980.248 -3526742 -3522930 -3516258 -3508863 -3502946 -3499791 -3499002 
3983.623 -3499331 -3498969 -3496439 -3491706 -3485099 -3478295 -3472543 
3986.998 -3469256 -3468861 -3471031 -3475632 -3481746 -3488846 -3495913 
3990.373 -3502026 -3506233 -3507318 -3504820 -3498707 -3489865 -3479708 
3993.749 -3470078 -3462945 -3459460 -3460578 -3465837 -3474712 -3485921 
3997.124 -3497885 -3509421 -3519380 -3526677 -3530850 -3532231 -3531212 
4000.499 -3529207 
##END=
