
##TITLE=Z189_1_e
##JCAMP-DX=5.01  $$ Nicolet v. 1
##DATATYPE=INFRARED SPECTRUM
##ORIGIN=UniL
##OWNER=Nicolet
##LONGDATE=2011/09/14
##TIME=16:26:09
##SPECTROMETER/DATA SYSTEM=Nicolet iS5
##DATA PROCESSING=
Ratio against background
%Transmittance->Absorbance
Truncated
ElementMultiply or ElementDivide
##COMMENTS=
Number of sample scans: 32
Collection length: 51.21 sec
Sample gain: 2.0
Background collected on: Mer Sep 14 15:42:45 2011 (GMT+02:00);
Number of background scans: 32
Background gain: 2.0
Sample spacing:  1.000
Number of scan points: 12415
Resolution points: 8192
Number of FFT points: 65536
Apodization: N-B fort;
Phase correction: Mertz;
Laser frequency: 15798.0 cm-1
Number of rejected sample scans: 0
Number of rejected background scans: 0
Bench serial number: ASB1000141;
##RESOLUTION=4.000
##XUNITS=1/CM
##YUNITS=ABSORBANCE
##FIRSTX=649.893372
##LASTX=4000.122314
##FIRSTY=0.094206
##MAXX=4000.122314
##MINX=649.893372
##MAXY=0.243709
##MINY=-0.004888
##XFACTOR=1.000000
##YFACTOR=1.000000E-009
##NPOINTS=6950
##DELTAX=0.482117
##ZPD=6100
##XYDATA=(X++(Y..Y))
649.893 94206056 93441392 92776848 92255976 91883296 91633952 91467776 
653.268 91350000 91262744 91204368 91181928 91202528 91267568 91373304 
656.643 91518416 91707936 91953840 92268968 92659288 93116216 93618888 
660.018 94141720 94666968 95191648 95728736 96298624 96920576 97603360 
663.393 98345104 99139184 99982696 100879032 101831320 102831112 103837296 
666.767 104755904 105457928 105824176 105827648 105559144 105178208 
669.660 104821824 104552048 104365640 104219416 104060984 103847104 
672.553 103559632 103205664 102808440 102392704 101972424 101550872 
675.446 101126384 100700808 100283912 99889144 99524104 99182608 98842248 
678.820 98471816 98041440 97537152 96964072 96341720 95692016 95029344 
682.195 94355200 93662336 92944136 92204920 91461520 90741360 90069840 
685.570 89460304 88911144 88408248 87933032 87472360 87022904 86590896 
688.945 86186232 85815208 85478464 85171536 84890680 84637472 84421152 
692.320 84255576 84154056 84124336 84166160 84273640 84439864 84662272 
695.694 84943544 85290112 85707344 86195200 86747896 87355736 88010448 
699.069 88710040 89459000 90265952 91135984 92065848 93040312 94035888 
702.444 95027240 95992472 96919496 97803400 98642232 99431696 100162336 
705.819 100822072 101403368 101907056 102346024 102739344 103106920 
708.712 103461024 103803256 104128696 104434152 104725112 105020912 
711.604 105350008 105740736 106210928 106757840 107356184 107961008 
714.497 108521488 108988408 109323040 109506464 109537376 109435264 
717.390 109235216 108989680 108762208 108614408 108603560 108767440 
720.282 109117928 109639552 110291816 111019064 111751184 112417912 
723.175 112953624 113300792 113422400 113309480 112987872 112516000 
726.068 111977568 111466272 111056040 110792496 110682864 110703688 
728.961 110813240 110970768 111151384 111347872 111566288 111815864 
731.853 112099672 112411384 112738712 113069720 113399688 113732448 
734.746 114076712 114438624 114817408 115205088 115591376 115970264 
737.639 116344368 116723264 117118456 117535592 117970912 118411552 
740.531 118844648 119265328 119680208 120105848 120557528 121038976 
743.424 121533880 122009296 122420928 122731400 122921144 122992832 
746.317 122966752 122871504 122734392 122574336 122403928 122233896 
749.209 122076176 121945624 121856128 121814288 121817448 121854248 
752.102 121911712 121981696 122066168 122175112 122321408 122511592 
754.995 122740848 122992400 123243992 123476496 123677456 123843560 
757.888 123976048 124074232 124133000 124144384 124102928 124012856 
760.780 123889880 123758472 123641728 123553256 123492480 123447792 
763.673 123403504 123351168 123294864 123251784 123245136 123293640 
766.566 123407112 123582848 123810288 124074536 124361704 124660720 
769.458 124962632 125263032 125568256 125902640 126310704 126853376 
772.351 127591176 128551632 129703832 130934832 132070064 132888336 
775.244 133178424 132806184 131736336 130047184 127888696 125447136 
778.136 122882936 120292176 117708536 115109712 112449288 109680240 
781.029 106779112 103750784 100627024 97455160 94290032 91190264 88207136 
784.404 85385936 82762832 80359792 78187000 76242768 74518040 72999832 
787.779 71676696 70541240 69589664 68820392 68231808 67820560 67582416 
791.154 67514360 67617104 67895792 68358488 69012384 69856784 70879192 
794.528 72047800 73313696 74608400 75843368 76923048 77743160 78200728 
797.903 78215720 77736424 76756480 75317416 73507960 71449984 69270368 
801.278 67096836 65032072 63141508 61456552 59971964 58656652 57462580 
804.653 56342096 55259448 54197816 53163708 52182308 51288540 50512312 
808.028 49868236 49348452 48923584 48546968 48165708 47735560 47225116 
811.402 46620828 45925956 45154060 44324196 43455372 42567088 41677956 
814.777 40805600 39968556 39182620 38459568 37805600 37220836 36700740 
818.152 36238320 35827304 35463664 35146060 34875152 34652528 34479232 
821.527 34355456 34280980 34256164 34282304 34361912 34498388 34694692 
824.902 34952456 35269668 35640016 36049848 36477652 36894440 37262136 
828.277 37540896 37694672 37696736 37538296 37230688 36805464 36305676 
831.651 35781752 35282928 34847864 34503912 34263624 34124388 34069052 
835.026 34067260 34082060 34069872 33990180 33814212 33528056 33137724 
838.401 32665898 32148376 31623878 31125356 30677470 30291824 29970062 
841.776 29707362 29496520 29331438 29207420 29121594 29071674 29054882 
845.151 29068450 29109690 29176590 29267458 29380220 29511452 29656274 
848.525 29808456 29962112 30114010 30263652 30413418 30567642 30730420 
851.900 30904112 31089618 31286314 31494570 31715900 31954392 32215208 
855.275 32504142 32826464 33186008 33586188 34030276 34522208 35066348 
858.650 35667856 36332120 37064952 37873740 38766888 39755180 40848440 
862.025 42051948 43361820 44759684 46211700 47665892 49062452 50339456 
865.400 51440068 52326932 52985264 53428436 53696108 53854700 53990952 
868.774 54195072 54560808 55171516 56087492 57349320 58969384 60932824 
872.149 63192932 65671488 68261696 70816424 73165368 75129160 76524648 
875.524 77207856 77090600 76154512 74454472 72107728 69279032 66141472 
878.899 62870256 59623804 56521584 53654716 51080864 48826100 46896440 
882.274 45281248 43960784 42908676 42095716 41493888 41073320 40806252 
885.648 40667924 40635580 40692780 40829916 41045856 41346884 41745252 
889.023 42255464 42890352 43657828 44561052 45598364 46766748 48065064 
892.398 49495180 51064316 52782872 54662184 56712096 58935228 61322328 
895.773 63842088 66433960 69004376 71414784 73498736 75080752 75988672 
899.148 76100264 75360568 73795208 71505208 68653992 65448188 62090764 
902.523 58776244 55667660 52875260 50469700 48479868 46901900 45710408 
905.897 44867060 44331500 44063196 44028212 44202792 44570228 45122740 
909.272 45858452 46779144 47887740 49185300 50666696 52316544 54102588 
912.647 55969464 57843004 59629240 61222748 62531092 63479924 64031044 
916.022 64189344 64002052 63552716 62941456 62281060 61674604 61199016 
919.397 60904420 60803408 60874304 61065100 61307180 61529392 61668644 
922.771 61689648 61590668 61408576 61210880 61089852 61150724 61486824 
926.146 62174912 63258320 64738632 66570392 68656944 70863784 73009128 
929.521 74886024 76293280 77035752 76967072 76011128 74170560 71535760 
932.896 68269264 64598316 60764500 56997700 53500540 50411312 47812976 
936.271 45738272 44179608 43107468 42481692 42263280 42412124 42883696 
939.646 43625732 44565128 45607680 46649268 47573788 48276748 48682564 
943.020 48749692 48481572 47921184 47145668 46246676 45314640 44431176 
946.395 43652072 43009012 42512056 42154788 41921620 41793804 41754260 
949.770 41787384 41878632 42015524 42183744 42369492 42560840 42748468 
953.145 42927584 43098356 43264988 43434060 43612876 43808472 44026304 
956.520 44270444 44543612 44847444 45181744 45545412 45935936 46350404 
959.894 46786340 47241964 47717516 48214100 48732860 49274660 49838768 
963.269 50423588 51027460 51649632 52290792 52953368 53640020 54352760 
966.644 55092024 55856936 56645688 57457360 58292720 59153984 60044548 
970.019 60967328 61923368 62912724 63934752 64988816 66076456 67200520 
973.394 68365048 69574072 70830704 72137616 73497760 74915632 76398280 
976.768 77954672 79594152 81325408 83155528 85090632 87138304 89308424 
980.143 91614808 94075064 96706120 99522976 102535176 105745424 109148512 
983.518 112728792 116458728 120288472 124136136 127891096 131399632 
986.411 134479344 136949792 138638832 139420896 139238544 138107072 
989.304 136117088 133416224 130208048 126716224 123160696 119755768 
992.196 116670680 114027464 111902920 110324496 109284728 108752760 
995.089 108689128 109052632 109805960 110919776 112367096 114122128 
997.982 116160888 118456680 120981136 123704152 126584904 129567888 
1000.874 132580368 135520800 138270544 140706544 142706480 144177360 
1003.767 145065840 145365520 145119344 144415328 143384032 142173760 
1006.660 140946992 139866048 139064384 138650224 138695648 139234064 
1009.552 140271440 141792736 143774768 146190752 149016432 152231872 
1012.445 155816768 159751408 164017088 168592336 173454256 178571264 
1015.338 183885888 189305712 194687248 199820288 204458880 208333344 
1018.231 211187904 212845008 213227872 212393232 210519488 207904592 
1021.123 204928304 201975552 199434704 197630096 196780576 197012432 
1024.016 198340928 200694048 203924672 207846272 212260000 216950608 
1026.909 221717184 226369424 230717488 234596240 237866736 240428592 
1029.802 242239056 243311024 243708848 243525280 242871344 241859648 
1032.695 240584976 239128976 237547904 235865056 234066480 232096944 
1035.588 229871456 227280240 224219184 220613392 216426448 211671488 
1038.481 206401664 200702160 194669888 188407696 182023360 175617296 
1041.374 169286560 163121376 157192672 151555856 146250736 141301632 
1044.267 136729472 132556272 128806040 125507640 122689384 120372000 
1047.160 118568640 117280288 116498416 116205744 116379368 116992728 
1050.053 118012344 119400832 121115952 123109400 125334280 127746432 
1052.947 130303264 132966456 135692048 138421632 141083264 143581296 
1055.840 145802640 147636144 148973552 149729088 149852320 149329360 
1058.733 148190848 146508752 144402448 142026224 139552048 137171648 
1061.626 135060304 133366544 132211416 131671128 131783904 132552400 
1064.519 133947240 135909104 138346304 141148208 144176624 147275776 
1067.412 150297392 153096224 155549888 157571184 159097136 160090000 
1070.305 160531120 160413648 159743168 158536448 156825248 154652496 
1073.198 152071200 149148352 145959296 142592864 139160016 135780640 
1076.091 132587296 129717496 127289336 125403168 124130224 123504456 
1078.984 123525024 124151792 125309600 126878488 128698360 130587832 
1081.877 132336912 133746744 134662176 134985840 134708576 133906912 
1084.770 132739800 131412088 130146744 129171384 128671792 128788560 
1087.663 129606200 131141472 133344520 136096096 139229824 142528816 
1090.556 145748784 148662336 151055568 152761776 153677680 153754816 
1093.449 153003136 151478912 149280992 146532896 143365264 139912608 
1096.343 136288976 132582216 128858240 125157344 121504600 117917576 
1099.236 114408352 110987368 107662568 104438544 101318728 98308408 95418480 
1102.611 92669864 90094224 87729168 85618912 83806384 82327272 81212824 
1105.986 80485800 80161208 80249168 80753320 81671024 82991480 84694848 
1109.361 86751168 89117312 91741128 94558040 97487136 100438168 103303712 
1112.737 105962104 108295072 110187480 111544320 112307104 112451224 
1115.630 111990736 110968800 109454368 107531400 105287008 102813984 
1118.523 100196104 97502440 94789192 92093088 89436160 86832416 84291952 
1121.898 81827328 79456944 77202440 75088512 73140856 71381088 69829624 
1125.273 68505536 67426040 66609332 66073140 65832092 65896600 66269860 
1128.648 66945740 67907608 69127984 70570080 72182688 73904392 75664704 
1132.024 77380544 78971144 80365176 81509696 82384896 83006560 83427264 
1135.399 83722040 83982392 84300320 84747688 85372904 86189416 87175032 
1138.774 88271072 89389064 90428152 91274808 91824424 91994504 91723648 
1142.149 90980136 89758344 88074360 85961824 83468672 80658552 77602656 
1145.525 74379400 71071856 67754600 64495860 61353964 58371888 55582920 
1148.900 53010196 50666472 48557304 46681956 45034152 43604304 42380344 
1152.275 41349984 40500908 39821924 39303752 38938024 38717912 38637392 
1155.650 38691248 38875692 39188532 39629456 40200212 40903884 41744412 
1159.026 42724632 43845748 45106380 46502688 48026612 49665288 51400532 
1162.401 53204752 55040800 56864620 58621912 60255112 61708632 62927284 
1165.776 63863316 64479068 64745904 64649416 64190112 63384480 62261980 
1169.151 60862796 59234944 57425364 55481220 53447924 51364132 49266868 
1172.527 47189364 45158548 43198700 41329248 39564412 37915680 36390808 
1175.902 34993900 33726756 32588602 31576306 30685648 29911702 29249594 
1179.277 28695522 28246914 27902816 27663008 27527638 27496254 27567320 
1182.652 27737984 28004798 28363904 28812170 29346788 29964490 30661610 
1186.028 31430732 32261386 33139906 34048372 34967040 35875668 36752124 
1189.403 37575112 38325420 38986192 39546628 40003832 40364168 40642964 
1192.778 40863040 41053144 41241504 41455392 41718332 42046000 42448040 
1196.153 42926524 43476032 44083440 44727876 45382392 46011368 46573168 
1199.529 47023248 47311860 47391936 47223492 46776856 46041540 45028048 
1202.904 43770684 42320948 40742524 39106512 37476056 35906512 34441172 
1206.279 33106972 31918906 30881344 29990832 29239104 28615106 28107476 
1209.654 27704008 27393580 27167420 27017890 26940182 26931544 26990176 
1213.030 27115080 27304690 27556974 27868968 28237086 28656478 29121276 
1216.405 29623212 30151122 30692582 31233580 31759854 32259818 32723416 
1219.780 33143234 33513918 33831976 34095824 34306432 34469152 34594108 
1223.155 34695412 34792040 34904844 35053668 35257452 35530616 35882328 
1226.531 36316560 36830708 37415376 38053788 38723996 39397708 40043108 
1229.906 40630268 41130576 41521340 41788408 41926800 41942712 41853020 
1233.281 41687148 41484592 41289564 41152724 41122524 41241360 41547336 
1236.656 42068524 42824708 43828960 45087264 46599432 48357928 50346824 
1240.031 52539960 54897672 57371628 59900640 62412260 64831600 67075916 
1243.407 69062376 70720216 71990312 72837776 73255528 73264632 72910592 
1246.782 72254248 71371712 70341248 69238224 68134416 67084460 66123144 
1250.157 65261008 64482636 63749640 63007108 62199952 61280356 60220440 
1253.532 59018384 57698460 56306900 54899556 53538656 52279880 51163088 
1256.908 50212232 49429272 48796920 48278156 47822632 47374088 46871152 
1260.283 46261124 45504568 44577204 43475372 42212444 40817976 39329836 
1263.658 37792224 36251036 34745912 33310950 31972046 30744790 29637686 
1267.033 28652126 27784220 27026318 26368238 25799718 25309834 24889096 
1270.409 24529274 24222930 23964170 23747664 23568974 23424594 23311584 
1273.784 23227126 23168476 23132584 23115776 23114728 23125944 23146528 
1277.159 23174314 23206608 23240340 23271694 23296166 23309242 23307528 
1280.534 23288510 23250722 23193046 23113436 23009134 22877060 22715276 
1283.910 22524796 22311066 22084574 21859036 21650056 21473514 21342498 
1287.285 21268094 21259534 21324400 21470974 21707978 22043438 22484318 
1290.660 23034360 23692234 24450046 25291396 26192198 27116632 28020558 
1294.035 28855902 29571246 30123706 30484462 30642944 30609416 30411926 
1297.411 30093378 29700124 29278800 28871374 28508946 28214278 28000486 
1300.786 27872288 27826256 27851940 27933802 28051378 28182988 28309084 
1304.161 28411904 28478520 28500420 28472434 28392874 28263252 28088352 
1307.536 27876068 27637160 27384968 27132256 26891568 26673776 26487292 
1310.912 26339474 26237564 26187834 26197088 26270404 26410488 26617476 
1314.287 26889206 27222556 27614844 28064598 28571506 29135944 29758136 
1317.662 30437014 31171418 31959884 32801698 33695384 34638496 35624300 
1321.037 36639560 37664212 38669480 39618712 40473592 41194724 41749084 
1324.413 42118756 42304916 42332964 42248560 42117368 42011616 41994824 
1327.788 42117368 42403100 42848148 43423040 44082960 44778712 45463436 
1331.163 46104876 46686792 47209272 47686156 48141760 48606960 49112092 
1334.538 49685384 50347904 51109340 51967108 52905352 53898812 54912416 
1337.914 55906904 56843392 57682076 58387652 58932988 59300076 59483188 
1341.289 59488052 59328984 59024228 58591956 58049092 57408348 56679592 
1344.664 55870388 54985852 54029828 53005400 51915724 50766236 49567076 
1348.039 48333300 47087796 45860144 44682812 43593532 42629664 41825400 
1351.415 41213340 40819900 40664436 40760212 41112724 41719316 42565920 
1354.790 43626100 44857620 46198436 47576044 48907120 50104976 51094692 
1358.165 51813084 52216948 52288324 52034560 51489940 50709148 49771244 
1361.540 48770896 47804392 46968904 46340744 45963044 45843280 45952952 
1364.916 46238752 46628872 47048984 47427448 47697844 47812052 47741444 
1368.291 47481520 47050500 46484508 45829652 45129136 44422660 43742064 
1371.666 43111020 42551012 42083744 41730988 41515288 41452916 41549744 
1375.041 41796940 42173740 42653604 43208912 43818808 44470632 45158176 
1378.417 45881760 46645176 47455352 48320040 49246976 50238904 51288912 
1381.792 52373096 53445340 54443608 55288500 55896464 56194956 56124028 
1385.167 55651092 54780120 53565232 52112408 50562788 49075884 47781388 
1388.542 46755676 46019552 45547176 45287020 45176708 45158876 45180900 
1391.917 45194392 45157664 45031764 44784772 44399720 43879140 43246428 
1395.293 42536104 41782644 41007584 40216604 39406016 38573656 37729296 
1398.668 36901404 36131688 35461864 34922976 34524108 34256416 34099908 
1402.043 34034576 34045648 34126180 34275312 34495016 34785936 35145308 
1405.418 35566972 36043224 36567032 37132796 37736236 38373524 39039840 
1408.794 39729364 40436424 41156148 41885492 42623852 43371080 44125544 
1412.169 44880728 45625088 46343144 47018932 47639196 48198548 48699428 
1415.544 49150904 49564888 49953768 50329488 50704268 51094768 51522544 
1418.919 52008452 52567184 53197188 53879008 54580456 55265356 55903736 
1422.295 56472148 56960528 57371816 57720900 58029780 58320532 58609284 
1425.670 58900732 59190100 59466280 59717052 59932212 60105352 60234788 
1429.045 60323296 60377704 60407288 60424956 60445900 60485544 60559056 
1432.420 60676584 60841104 61048472 61289208 61553176 61834880 62140504 
1435.796 62490916 62921764 63468224 64150548 64964728 65880680 66850932 
1439.171 67815488 68712640 69474288 70032096 70330536 70325704 69993832 
1442.546 69331032 68349296 67074216 65539964 63791236 61876672 59842416 
1445.921 57736188 55602956 53493308 51471700 49610088 47978060 46627948 
1449.297 45580296 44827860 44346692 44111936 44106216 44319536 44742164 
1452.672 45352816 46111172 46963696 47839200 48658508 49345112 49826876 
1456.047 50061728 50058496 49891132 49668480 49485156 49395600 49408188 
1459.422 49509140 49682004 49917300 50211044 50558732 50949952 51362712 
1462.798 51763508 52117264 52394404 52585844 52708380 52801652 52910892 
1466.173 53067328 53281500 53541620 53822856 54091932 54314196 54454800 
1469.548 54470348 54309280 53911116 53213480 52177452 50813016 49196764 
1472.923 47450476 45701056 44038296 42497512 41078416 39771012 38576444 
1476.299 37514564 36615836 35902588 35380728 35034056 34834616 34752804 
1479.674 34769856 34882544 35100260 35438176 35907952 36513760 37252060 
1483.049 38116292 39102740 40213404 41453936 42826684 44324600 45921388 
1486.424 47564804 49182776 50678200 51937456 52847304 53297908 53208420 
1489.800 52550992 51364168 49752148 47853520 45812276 43737116 41687732 
1493.175 39687756 37732656 35811544 33927516 32104206 30388790 28841736 
1496.550 27514822 26434574 25596036 24974510 24536846 24254146 24107330 
1499.925 24083548 24172446 24362878 24640882 24989566 25391642 25824682 
1503.301 26261464 26666940 26988448 27158710 27099880 26740442 26053416 
1506.676 25081354 23930802 22718034 21522708 20372298 19260948 18173474 
1510.051 17103226 16056031 15051419 14115079 13267311 12521139 11877815 
1513.426 11330456 10867862 10478189 10149914 9871133 9631048 9421772 9240655 
1517.284 9091180 8980148 8912941 8888252 8896301 8920144 8942434 8953121 
1521.141 8957519 8975176 9031262 9141530 9304663 9506060 9726016 9949745 
1524.999 10171689 10397956 10642370 10920151 11239659 11599286 11990272 
1528.374 12402647 12830737 13274485 13739240 14231438 14755283 15311922 
1531.749 15898900 16512519 17150582 17812542 18498606 19205532 19925544 
1535.124 20645744 21351858 22026810 22654184 23220554 23712772 24121794 
1538.500 24443282 24678442 24832116 24909272 24917764 24866886 24769076 
1541.875 24636886 24477354 24289080 24061660 23781960 23442010 23047602 
1545.250 22618752 22184572 21770124 21384646 21020132 20654568 20264280 
1548.625 19833832 19366500 18883504 18417568 17995440 17626822 17303202 
1552.000 17004358 16711123 16413923 16118784 15843293 15606857 15418954 
1555.376 15272074 15141918 14993967 14786822 14478842 14040125 13469768 
1558.751 12813844 12158024 11588634 11150241 10838985 10623185 10464884 
1562.126 10331207 10196010 10042408 9864252 9667433 9467689 9285334 9137841 
1565.984 9031161 8959278 8906311 8854670 8789985 8707256 8612679 8521841 
1569.841 8453049 8419366 8425278 8467002 8536777 8625522 8724091 8823527 
1573.698 8912941 8981299 9020098 9028319 9017088 9008530 9028793 9094563 
1577.556 9207486 9356696 9526854 9704330 9881438 10057803 10238108 10429450 
1581.413 10637582 10864804 11109108 11365624 11627634 11887487 12137750 
1584.789 12369406 12573150 12740206 12863876 12942417 12980309 12989186 
1588.164 12986079 12990688 13023805 13102033 13238138 13439145 13705658 
1591.539 14030816 14398002 14782880 15151800 15466541 15692767 15802504 
1594.914 15781853 15632996 15373811 15033034 14642075 14232226 13827619 
1598.290 13444374 13093974 12783064 12515547 12292776 12113389 11973889 
1601.665 11869268 11795654 11751396 11737336 11755277 11806651 11889461 
1605.040 11998584 12125075 12257670 12384987 12494710 12574549 12613057 
1608.415 12598527 12521720 12377589 12167599 11900768 11594282 11271487 
1611.791 10955116 10663084 10404878 10179830 9979647 9791655 9603981 9409075 
1615.648 9207521 9009172 8831710 8693971 8608421 8577768 8595815 8651109 
1619.505 8728857 8814702 8895996 8962288 9008259 9034815 9049870 9065534 
1623.363 9093854 9143391 9215508 9306424 9409684 9518862 9629083 9737129 
1627.220 9841509 9941608 10038679 10135600 10237361 10350005 10478360 
1630.595 10624544 10786333 10958038 11129912 11291143 11432362 11546200 
1633.971 11629948 11687196 11728996 11771720 11832869 11926582 12057243 
1637.346 12221237 12409500 12610874 12813366 13006290 13182871 13340457 
1640.721 13482618 13616517 13750902 13891692 14038824 14185390 14319780 
1644.096 14428521 14498883 14524441 14507551 14461542 14408072 14371322 
1647.472 14372624 14422904 14522660 14663734 14832555 15010189 15171563 
1650.847 15287691 15324827 15255326 15077456 14837527 14621821 14506146 
1654.222 14516184 14623295 14778662 14936692 15067919 15159280 15208244 
1657.597 15220289 15203577 15164873 15106753 15027236 14921467 14784182 
1660.973 14612055 14405400 14168787 13911329 13645990 13386552 13145234 
1664.348 12929479 12740206 12571206 12410080 12240322 12043684 11803757 
1667.723 11511018 11165608 10779846 10374201 9973171 9596901 9257477 8957586 
1671.581 8692957 8454265 8228332 8000190 7754188 7478694 7172415 6849219 
1675.438 6536725 6264522 6052494 5902736 5802354 5731171 5670943 5611630 
1679.295 5553197 5504135 5474874 5471821 5491450 5520645 5539673 5530477 
1683.153 5485947 5418808 5360871 5350070 5409448 5536686 5712840 5914995 
1687.010 6125780 6334381 6535682 6728630 6912472 7086929 7251382 7406460 
1690.868 7554142 7696984 7836702 7971470 8095106 8196255 8261933 8281453 
1694.725 8253963 8193891 8129506 8091528 8094802 8132679 8178292 8197470 
1698.583 8153814 8021723 7799019 7518102 7237670 7012202 6865612 6784528 
1702.440 6737312 6687913 6608746 6482842 6304628 6079777 5823174 5554607 
1706.297 5290566 5041501 4809832 4592754 4384184 4177855 3968916 3755031 
1710.155 3536942 3318128 3103796 2899008 2706654 2526949 2357312 2193536 
1714.012 2031886 1870163 1707602 1544469 1380967 1216130 1050159 886643 
1717.870 733842 603359 505057 442564 412217 404357 405915 404125 390262 
1722.209 360648 317208 265650 213203 165138 123474 87350 55204 25779 -927 
1727.031 -24949 -46915 -69277 -95415 -127812 -166566 -208859 -250487 -288832 
1731.371 -326181 -371108 -437049 -536903 -675805 -842344 -1009943 -1146844 
1735.228 -1233516 -1270123 -1271412 -1257338 -1246237 -1251324 -1278217 
1738.603 -1324995 -1383261 -1442510 -1493266 -1530676 -1554316 -1566598 
1741.979 -1570625 -1568611 -1562471 -1554151 -1545501 -1538270 -1532888 
1745.354 -1528761 -1523214 -1513606 -1498450 -1478208 -1456083 -1436269 
1748.729 -1423257 -1419690 -1425800 -1439010 -1455390 -1470712 -1480850 
1752.104 -1483425 -1477184 -1462721 -1442147 -1419492 -1400403 -1391419 
1755.479 -1397595 -1421077 -1459286 -1504459 -1547383 -1580926 -1602747 
1758.855 -1615424 -1625129 -1638432 -1660151 -1690484 -1725699 -1759625 
1762.230 -1786387 -1802457 -1808000 -1805162 -1796847 -1785166 -1771802 
1765.605 -1758173 -1746425 -1739098 -1738471 -1744940 -1756523 -1768667 
1768.980 -1777576 -1781173 -1781503 -1783285 -1792921 -1814632 -1847363 
1772.356 -1884281 -1914862 -1931191 -1930367 -1915885 -1894970 -1874714 
1775.731 -1859999 -1851751 -1848089 -1846406 -1845317 -1845581 -1850267 
1779.106 -1862012 -1881543 -1905922 -1929839 -1947421 -1955931 -1956195 
1782.481 -1952632 -1950455 -1954018 -1963517 -1976447 -1987727 -1993301 
1785.857 -1991224 -1982780 -1970708 -1957580 -1945375 -1934292 -1924693 
1789.232 -1918359 -1918095 -1928783 -1954084 -1994654 -2046169 -2099953 
1792.607 -2146016 -2177337 -2192634 -2195469 -2192996 -2191810 -2195535 
1795.982 -2204963 -2218644 -2234005 -2249103 -2263013 -2276066 -2288591 
1799.358 -2300225 -2309981 -2316507 -2319638 -2320330 -2320692 -2322538 
1802.733 -2326097 -2329953 -2331173 -2327284 -2316770 -2301148 -2283910 
1806.108 -2269243 -2260936 -2260838 -2268452 -2282196 -2299830 -2319605 
1809.483 -2340664 -2361986 -2382516 -2399915 -2411876 -2416456 -2413557 
1812.859 -2405747 -2396158 -2388448 -2384790 -2385086 -2386701 -2386536 
1816.234 -2381429 -2370060 -2353154 -2332985 -2311959 -2292447 -2274945 
1819.609 -2259651 -2246037 -2234368 -2224743 -2217985 -2214523 -2214853 
1822.984 -2218908 -2226523 -2237236 -2250388 -2264496 -2277615 -2287503 
1826.360 -2292710 -2293040 -2290601 -2288788 -2291326 -2301049 -2317759 
1829.735 -2337929 -2356351 -2367226 -2367951 -2359251 -2344882 -2329492 
1833.110 -2316210 -2306224 -2298182 -2289513 -2278307 -2264167 -2248674 
1836.485 -2233940 -2221281 -2209315 -2195007 -2173578 -2141795 -2098832 
1839.861 -2047191 -1991916 -1938976 -1892727 -1856040 -1828820 -1809056 
1843.236 -1792921 -1775960 -1754213 -1724214 -1684444 -1635131 -1578351 
1846.611 -1517931 -1458560 -1404894 -1360405 -1326745 -1303126 -1287732 
1849.986 -1278448 -1274352 -1276367 -1286641 -1306892 -1337547 -1377019 
1853.362 -1421870 -1468929 -1515719 -1562107 -1609382 -1658864 -1710320 
1856.737 -1762199 -1811069 -1854094 -1890483 -1922021 -1952467 -1985682 
1860.112 -2023083 -2064043 -2104701 -2140707 -2169292 -2189864 -2204502 
1863.487 -2215875 -2226391 -2236280 -2244356 -2249400 -2251344 -2252762 
1866.863 -2257739 -2270429 -2292315 -2320923 -2349991 -2372235 -2382154 
1870.238 -2379023 -2366105 -2349463 -2334369 -2324483 -2320066 -2319967 
1873.613 -2322011 -2325142 -2329294 -2335193 -2343070 -2352001 -2359745 
1876.988 -2363996 -2363107 -2358097 -2351638 -2347420 -2348639 -2356680 
1880.364 -2370983 -2389535 -2410360 -2432404 -2454644 -2477311 -2499186 
1883.739 -2518326 -2532129 -2538717 -2538091 -2532689 -2527089 -2526397 
1887.114 -2533809 -2549983 -2572480 -2597282 -2619546 -2635915 -2645597 
1890.489 -2649648 -2650373 -2649977 -2649648 -2650702 -2653303 -2657848 
1893.865 -2664006 -2670658 -2675499 -2675894 -2669934 -2657091 -2639274 
1897.240 -2619546 -2601761 -2587401 -2576235 -2565431 -2551728 -2533084 
1900.615 -2509992 -2486041 -2466538 -2455632 -2455204 -2463243 -2476026 
1903.990 -2488314 -2497078 -2501558 -2503568 -2505907 -2510980 -2519446 
1907.365 -2530877 -2543131 -2554561 -2563982 -2570833 -2574588 -2574391 
1910.741 -2569318 -2559041 -2544943 -2529757 -2517503 -2511309 -2512462 
1914.116 -2519677 -2530317 -2541945 -2553738 -2567836 -2588126 -2618064 
1917.491 -2657585 -2702765 -2745636 -2779152 -2799597 -2808847 -2813621 
1920.866 -2823003 -2843972 -2878995 -2924547 -2973517 -3018302 -3054134 
1924.242 -3080817 -3102102 -3122236 -3143223 -3163322 -3178058 -3182959 
1927.617 -3175689 -3158124 -3135460 -3113978 -3098944 -3092595 -3094634 
1930.992 -3103287 -3117202 -3136085 -3160657 -3190951 -3225289 -3260117 
1934.367 -3291949 -3318650 -3341042 -3363038 -3389439 -3422741 -3462123 
1937.743 -3501895 -3535057 -3556485 -3564734 -3564076 -3561612 -3564471 
1941.118 -3576038 -3594408 -3613040 -3624541 -3623785 -3610181 -3587212 
1944.493 -3560790 -3535057 -3512248 -3492034 -3473594 -3457455 -3444964 
1947.868 -3438652 -3439803 -3446410 -3454891 -3460117 -3458704 -3451407 
1951.244 -3442663 -3439441 -3447692 -3470702 -3506858 -3551917 -3601342 
1954.619 -3652338 -3705201 -3762131 -3824275 -3890516 -3955236 -4010885 
1957.994 -4050738 -4072239 -4078180 -4074996 -4071057 -4071090 -4077163 
1961.369 -4086780 -4097776 -4107984 -4118322 -4130401 -4147401 -4168996 
1964.745 -4194166 -4219860 -4244469 -4267634 -4291880 -4319372 -4351095 
1968.120 -4385144 -4418501 -4447757 -4473173 -4498391 -4528658 -4569250 
1971.495 -4621018 -4679729 -4737908 -4787788 -4825735 -4851687 -4870101 
1974.870 -4882977 -4888448 -4877603 -4838383 -4760391 -4642589 -4494784 
1978.246 -4336530 -4188292 -4066133 -3976249 -3915932 -3875804 -3847101 
1981.621 -3824735 -3808050 -3799806 -3802270 -3814948 -3834030 -3854490 
1984.996 -3872914 -3888151 -3902731 -3919938 -3940953 -3964462 -3985901 
1988.371 -4000478 -4005599 -4002316 -3994109 -3984621 -3975296 -3962722 
1991.747 -3942102 -3909004 -3864047 -3813305 -3766697 -3733946 -3720280 
1995.122 -3723729 -3736771 -3748926 -3752473 -3744688 -3729018 -3712429 
1998.497 -3701423 -3699649 -3705398 -3715418 -3726062 -3736574 -3750075 
2001.872 -3770901 -3801908 -3842700 -3888775 -3934254 -3974147 -4006880 
2005.248 -4034620 -4062031 -4091507 -4122130 -4148386 -4164040 -4163909 
2008.623 -4149469 -4125609 -4101879 -4086386 -4083925 -4093411 -4109986 
2011.998 -4126659 -4137194 -4137293 -4125510 -4101518 -4066724 -4022835 
2015.373 -3974476 -3927819 -3890056 -3867692 -3862504 -3871633 -3887921 
2018.749 -3902698 -3909759 -3907559 -3900794 -3895080 -3896492 -3906081 
2022.124 -3920792 -3933565 -3939574 -3937210 -3931201 -3928081 -3934189 
2025.499 -3950869 -3974574 -3997917 -4014266 -4022113 -4024936 -4030746 
2028.874 -4045978 -4071550 -4101977 -4125806 -4130959 -4109625 -4062293 
2032.250 -3995948 -3921251 -3847429 -3779573 -3717488 -3658811 -3600947 
2035.625 -3544555 -3492692 -3449303 -3415739 -3390853 -3370074 -3348210 
2039.000 -3321577 -3289845 -3255776 -3223151 -3194602 -3170459 -3148881 
2042.375 -3127071 -3102859 -3075520 -3046534 -3016690 -2987240 -2956800 
2045.750 -2923889 -2886565 -2843347 -2794329 -2739643 -2679154 -2613289 
2049.126 -2543559 -2473390 -2409602 -2360009 -2331634 -2328207 -2346926 
2052.501 -2380374 -2415896 -2441728 -2450229 -2440344 -2417280 -2390095 
2055.876 -2367522 -2354967 -2352001 -2354407 -2356713 -2354769 -2347156 
2059.251 -2334534 -2319242 -2302433 -2284207 -2263672 -2240631 -2215974 
2062.627 -2192601 -2173512 -2159830 -2150763 -2142191 -2130420 -2111923 
2066.002 -2087752 -2060448 -2035550 -2015927 -2002536 -1991685 -1978954 
2069.377 -1959592 -1932016 -1899127 -1865938 -1839247 -1823607 -1820968 
2072.752 -1830008 -1848056 -1871349 -1897114 -1923241 -1947387 -1967278 
2076.128 -1980042 -1983044 -1975359 -1958372 -1935513 -1910871 -1887943 
2079.503 -1868214 -1851157 -1834693 -1817371 -1799025 -1781371 -1767314 
2082.878 -1758503 -1755863 -1757348 -1760648 -1762991 -1762925 -1761077 
2086.253 -1758536 -1756886 -1756160 -1755401 -1753454 -1749065 -1743421 
2089.629 -1738735 -1738174 -1744577 -1758602 -1778599 -1801335 -1823112 
2093.004 -1840665 -1852114 -1856898 -1855050 -1846604 -1831955 -1812026 
2096.379 -1788499 -1764575 -1743751 -1728802 -1720848 -1718472 -1718571 
2099.754 -1717647 -1713356 -1704973 -1693917 -1682134 -1671077 -1660415 
2103.130 -1648895 -1634570 -1616975 -1597498 -1578912 -1564353 -1556165 
2106.505 -1553854 -1554877 -1555603 -1552962 -1545699 -1534770 -1522157 
2109.880 -1510139 -1499870 -1490954 -1481774 -1471670 -1460013 -1448554 
2113.255 -1439043 -1433891 -1433429 -1437755 -1445185 -1454366 -1463778 
2116.631 -1472958 -1480982 -1487718 -1491879 -1492440 -1489039 -1482534 
2120.006 -1474873 -1468599 -1465759 -1467014 -1471670 -1477680 -1483425 
2123.381 -1488379 -1494190 -1503139 -1517733 -1539095 -1566267 -1597333 
2126.756 -1629816 -1662792 -1697283 -1735897 -1781074 -1834397 -1894838 
2130.132 -1959757 -2025194 -2088148 -2146840 -2201205 -2251674 -2298017 
2133.507 -2338753 -2372136 -2396784 -2414018 -2428153 -2444924 -2470293 
2136.882 -2507225 -2554924 -2609468 -2665258 -2717582 -2763975 -2804732 
2140.257 -2840878 -2872972 -2899994 -2920466 -2932742 -2937843 -2940147 
2143.633 -2945610 -2959531 -2984212 -3017184 -3052654 -3082856 -3102497 
2147.008 -3111347 -3113288 -3116380 -3128223 -3155559 -3201345 -3266233 
2150.383 -3349065 -3447396 -3558621 -3678196 -3799741 -3916786 -4024017 
2153.758 -4119865 -4208211 -4297589 -4395345 -4504851 -4618888 -4719947 
2157.134 -4782217 -4782348 -4706312 -4559185 -4361034 -4142478 -3933827 
2160.509 -3755824 -3616687 -3515337 -3444504 -3396014 -3362545 -3339628 
2163.884 -3321675 -3303360 -3280473 -3250218 -3214501 -3179077 -3151578 
2167.259 -3139407 -3144901 -3166150 -3195490 -3226012 -3251237 -3269226 
2170.635 -3281492 -3291489 -3300762 -3308424 -3310594 -3302867 -3283005 
2174.010 -3252487 -3215422 -3177893 -3144309 -3116841 -3094963 -3078086 
2177.385 -3067689 -3067295 -3082100 -3115262 -3166052 -3228315 -3291620 
2180.760 -3344297 -3377932 -3390064 -3384738 -3368693 -3349328 -3330520 
2184.135 -3312238 -3291588 -3264951 -3231044 -3190294 -3144967 -3097200 
2187.511 -3047817 -2995466 -2938798 -2877613 -2813226 -2748961 -2688869 
2190.886 -2635355 -2588126 -2544877 -2501690 -2457181 -2410690 -2365479 
2194.261 -2325109 -2293502 -2271451 -2258003 -2249762 -2243005 -2234863 
2197.636 -2224050 -2210106 -2194150 -2177502 -2161644 -2148027 -2139751 
2201.012 -2138696 -2147829 -2167248 -2195205 -2226688 -2255695 -2275373 
2204.387 -2281372 -2271847 -2248213 -2213040 -2170281 -2122309 -2071528 
2207.762 -2019324 -1967377 -1917271 -1871415 -1831295 -1798134 -1772627 
2211.137 -1754279 -1743421 -1740550 -1745666 -1759097 -1779853 -1805723 
2214.513 -1833671 -1861055 -1885733 -1907539 -1927167 -1945870 -1963781 
2217.888 -1980669 -1994522 -2004284 -2009726 -2012661 -2015498 -2021269 
2221.263 -2031064 -2043399 -2054710 -2060943 -2059360 -2049928 -2035912 
2224.638 -2021962 -2013453 -2014113 -2024435 -2042310 -2064307 -2086269 
2228.014 -2104767 -2117693 -2123826 -2123034 -2115813 -2103316 -2087390 
2231.389 -2070176 -2053853 -2039408 -2027008 -2015465 -2002998 -1987925 
2234.764 -1970114 -1949861 -1928420 -1906252 -1882731 -1856040 -1824531 
2238.139 -1787146 -1745600 -1703356 -1665465 -1635692 -1616348 -1606312 
2241.515 -1602945 -1602384 -1601460 -1598885 -1594593 -1588618 -1580992 
2244.890 -1570559 -1555703 -1535695 -1511988 -1487091 -1465825 -1451691 
2248.265 -1446308 -1448455 -1455059 -1461895 -1466650 -1468467 -1468500 
2251.640 -1468037 -1467476 -1464636 -1456281 -1439241 -1412589 -1378472 
2255.016 -1342337 -1310889 -1289846 -1282115 -1286807 -1300318 -1318322 
2258.391 -1336358 -1352048 -1364467 -1373517 -1378736 -1379793 -1375631 
2261.766 -1366185 -1352180 -1335631 -1318553 -1302036 -1285716 -1267810 
2265.141 -1246170 -1219672 -1189009 -1157121 -1128040 -1105731 -1092710 
2268.517 -1089206 -1094230 -1105368 -1120901 -1139441 -1160095 -1181938 
2271.892 -1202821 -1220102 -1230675 -1231930 -1223109 -1205134 -1180451 
2275.267 -1152296 -1123842 -1096742 -1071755 -1048717 -1027231 -1006472 
2278.642 -985909 -965049 -943129 -919324 -893434 -865228 -835300 -803849 
2282.500 -771139 -736607 -698963 -657312 -611191 -561457 -510262 -460484 
2286.357 -415004 -375610 -342901 -315950 -293071 -272905 -254328 -236578 
2290.215 -219159 -200812 -179781 -153780 -120922 -80176 -32403 20212 74856 
2294.554 128711 179756 227889 273508 317971 362571 408204 455168 503398 
2298.894 552861 603193 654293 705897 757508 808991 860381 911944 964707 
2303.233 1019138 1075868 1134499 1193868 1252648 1309574 1364646 1418496 
2307.091 1473050 1530471 1592355 1659470 1731453 1806841 1883906 1960785 
2310.948 2035681 2107060 2173755 2234466 2288690 2336491 2379400 2420314 
2314.806 2462632 2510819 2567877 2636110 2715823 2805588 2903045 3005327 
2318.663 3109602 3213969 3317327 3419239 3519272 3616788 3709814 3795307 
2322.521 3868948 3925884 3962630 3977544 3972026 3950961 3922105 3893988 
2326.378 3875166 3872157 3887502 3920434 3966342 4018943 4071383 4117776 
2330.235 4154405 4179762 4194349 4200170 4200103 4198130 4197695 4203047 
2334.093 4217635 4243866 4282145 4331873 4389773 4451866 4514068 4572964 
2337.950 4626308 4673396 4714527 4750804 4783701 4814456 4844208 4873694 
2341.808 4902646 4928885 4948088 4952747 4933074 4879089 4782796 4642149 
2345.665 4463616 4262972 4061985 3885563 3757338 3694576 3707274 3797446 
2349.522 3959654 4181770 4446476 4734993 5028025 5309214 5567964 5799131 
2353.380 6002502 6180021 6334986 6470600 6588932 6693331 6786884 6872884 
2357.237 6953850 7031160 7103601 7168879 7223419 7265769 7295386 7313279 
2361.095 7321332 7320861 7311695 7292690 7261759 7217927 7160996 7092655 
2364.952 7015367 6932033 6844641 6754576 6661971 6566696 6468549 6367297 
2368.810 6262640 6154211 6041172 5923023 5799198 5670306 5537256 5401732 
2372.667 5265143 5128228 4991155 4853389 4714292 4574370 4434760 4297237 
2376.524 4164106 4037036 3917090 3804131 3697917 3598111 3504908 3419540 
2380.382 3343804 3279700 3228657 3191105 3166839 3154457 3152254 3158195 
2384.239 3170511 3187199 3206592 3227088 3247251 3265578 3281336 3293388 
2388.097 3301000 3303404 3299932 3290050 3274125 3252826 3227756 3200985 
2391.954 3174516 3150051 3128391 3109536 3092850 3077700 3063151 3048302 
2395.812 3032887 3016571 2998821 2979871 2960521 2941873 2925894 2914786 
2399.669 2910316 2913418 2924360 2942373 2966760 2997219 3033921 3077266 
2403.526 3127991 3185798 3249254 3316425 3384843 3452803 3519806 3586785 
2407.384 3655780 3728796 3807139 3890879 3979350 4071083 4165143 4261165 
2411.241 4359517 4460570 4564626 4670181 4774957 4875503 4968063 5049580 
2415.099 5118271 5173325 5215308 5245423 5265177 5276177 5279699 5277049 
2418.956 5269671 5258636 5245121 5229929 5213262 5194953 5174700 5152067 
2422.813 5126887 5099663 5071536 5044417 5020383 5001579 4990083 4987401 
2426.671 4994306 5010897 5036707 5070464 5110693 5156023 5204946 5256658 
2430.528 5310958 5368185 5429142 5495276 5567461 5646874 5733488 5827271 
2434.386 5927423 6033612 6145036 6261900 6384580 6513651 6649153 6791091 
2438.243 6938665 7091173 7248047 7409190 7575653 7748521 7929253 8118939 
2442.101 8317759 8525051 8740014 8961510 9188535 9420553 9657168 9897606 
2445.958 10140959 10386417 10632862 10880229 11128723 11379161 11631854 
2449.333 11886976 12143133 12398283 12649796 12895277 13133007 13362018 
2452.708 13582124 13793244 13995193 14186896 14367075 14534000 14685394 
2456.084 14819151 14932680 15022811 15086341 15120510 15123083 15092961 
2459.459 15030324 14937001 14814762 14665619 14491004 14291803 14068599 
2462.834 13822284 13554570 13268165 12966585 12653548 12333135 12009176 
2466.209 11684950 11363856 11049218 10744046 10451613 10174199 9913640 
2469.585 9671194 9447879 9244649 9062591 8903538 8768210 8656856 8567629 
2473.442 8497242 8440684 8392915 8349340 8306917 8264432 8222086 8180419 
2477.300 8140613 8102802 8066548 8031849 7997557 7963404 7929388 7895409 
2481.157 7861702 7828335 7795645 7764308 7735164 7709463 7687777 7670105 
2485.014 7655536 7642553 7629132 7614126 7596592 7577440 7557749 7538802 
2488.872 7521608 7506808 7493627 7482031 7471109 7460491 7449805 7438952 
2492.729 7427593 7415324 7402348 7388732 7375251 7363355 7353986 7348291 
2496.587 7346100 7346572 7347785 7347684 7344315 7336227 7322781 7304046 
2500.444 7281032 7255122 7227596 7200510 7175212 7152811 7133847 7118185 
2504.302 7105116 7094069 7083966 7074569 7065712 7057495 7049951 7042576 
2508.159 7035100 7026547 7016849 7006174 6995332 6985399 6976880 6969607 
2512.016 6962300 6953344 6940854 6923784 6902272 6877428 6851071 6825220 
2515.874 6801222 6779581 6760263 6743235 6727990 6714598 6703190 6693600 
2519.731 6685659 6678627 6671763 6664663 6657362 6650196 6643736 6638588 
2523.589 6634820 6632532 6631489 6631792 6634013 6639025 6647302 6658977 
2527.446 6673580 6689260 6704166 6716583 6725568 6731187 6734418 6736673 
2531.303 6739600 6744177 6751480 6761710 6775576 6793043 6814113 6838448 
2535.161 6865040 6892510 6919509 6944321 6966678 6986779 7005534 7024291 
2539.018 7044462 7066958 7091813 7118690 7146781 7175043 7202970 7229887 
2542.876 7255492 7279920 7303170 7325477 7347044 7368039 7388530 7408785 
2546.733 7429076 7449738 7471446 7494908 7520394 7548310 7578249 7609169 
2550.591 7639720 7668284 7693847 7715500 7733140 7747307 7758573 7767714 
2554.448 7775372 7782118 7788325 7794465 7800705 7806913 7812883 7817472 
2558.305 7820070 7819631 7815447 7807553 7796050 7781342 7763700 7743125 
2562.163 7719447 7692532 7662551 7630245 7596862 7563717 7531857 7502021 
2566.020 7474412 7449098 7426379 7407269 7392372 7383104 7379835 7382126 
2569.878 7388327 7396551 7404539 7411010 7415425 7418830 7422672 7428503 
2573.735 7437132 7448626 7462277 7476941 7491706 7505932 7519316 7532025 
2577.593 7544399 7556772 7569314 7582363 7596423 7611867 7629536 7650107 
2581.450 7674084 7702111 7734388 7770379 7809578 7850973 7892878 7933876 
2585.307 7972617 8008290 8041030 8072252 8103342 8136258 8172417 8212158 
2589.165 8254807 8299149 8343598 8387003 8428859 8469536 8510014 8551307 
2593.022 8594023 8638231 8683593 8728959 8773451 8816324 8857241 8896437 
2596.880 8935060 8974127 9015126 9059072 9106542 9157671 9211616 9267225 
2600.737 9323249 9378873 9433590 9487568 9541283 9595647 9651002 9707989 
2604.594 9766814 9827375 9890013 9954863 10021860 10091105 10162158 10234579 
2608.452 10307522 10380614 10453819 10527275 10601251 10675444 10748971 
2611.827 10820098 10886888 10947572 11001229 11047722 11088169 11123896 
2615.202 11156565 11186890 11215246 11241156 11263904 11283117 11298794 
2618.578 11311445 11322089 11331612 11340795 11350387 11361202 11373753 
2621.953 11388821 11406883 11428552 11453589 11481657 11511902 11543751 
2625.328 11576553 11610277 11645263 11682057 11721304 11763549 11809102 
2628.703 11858099 11910405 11966123 12024675 12085757 12148483 12212138 
2632.079 12275666 12338964 12402101 12465726 12530961 12599107 12670913 
2635.454 12746791 12826368 12908657 12992702 13077003 13160739 13243364 
2638.829 13324467 13404219 13482823 13560142 13636416 13711847 13786403 
2642.204 13860287 13933774 14006998 14080338 14153657 14226816 14299474 
2645.580 14371287 14441811 14510874 14579159 14647284 14716105 14786753 
2648.955 14859882 14935801 15014546 15095877 15179455 15265039 15352528 
2652.330 15442026 15533397 15626607 15721383 15817281 15913954 16011508 
2655.705 16109912 16209505 16310189 16411927 16514482 16616957 16719008 
2659.081 16820224 16920636 17020450 17119736 17218492 17316306 17412556 
2662.456 17506308 17596942 17684418 17769254 17852140 17934524 18017128 
2665.831 18100650 18185358 18271226 18357872 18445294 18533566 18622580 
2669.206 18712650 18804020 18896482 18990036 19083990 19177862 19270786 
2672.582 19361856 19450382 19535980 19618856 19699460 19778312 19856378 
2675.957 19933938 20011236 20087922 20163476 20237550 20310422 20382474 
2679.332 20454674 20528244 20604360 20683826 20767062 20854380 20946168 
2682.707 21042424 21144026 21251672 21366094 21487790 21617180 21754028 
2686.083 21898446 22049922 22208038 22372390 22542420 22717406 22896758 
2689.458 23079678 23265646 23454600 23646432 23841288 24039596 24241322 
2692.833 24446962 24656488 24870290 25088654 25311592 25539210 25771412 
2696.208 26007716 26247668 26490708 26736424 26984710 27235576 27489372 
2699.583 27746002 28005328 28267070 28530850 28795776 29061010 29325766 
2702.959 29589018 29849766 30107262 30360646 30609346 30852564 31089548 
2706.334 31318828 31538714 31746804 31940374 32117228 32275486 32414198 
2709.709 32533996 32635390 32719984 32788764 32842190 32880284 32902408 
2713.084 32907770 32896082 32867062 32821320 32759250 32681796 32589388 
2716.460 32482288 32360260 32223240 32071170 31904392 31724100 31532124 
2719.835 31330720 31122580 30910410 30696744 30484072 30274450 30070152 
2723.210 29873296 29686004 29510174 29347178 29197992 29062676 28941106 
2726.585 28832248 28735734 28650958 28578054 28517508 28469922 28435926 
2729.961 28415760 28408792 28414556 28431890 28459662 28496988 28543198 
2733.336 28597694 28660090 28729646 28805798 28887700 28974682 29065688 
2736.711 29160360 29258064 29357848 29458968 29560180 29660248 29757960 
2740.086 29852748 29943756 30031058 30114896 30195910 30274450 30351230 
2743.462 30426636 30501098 30574894 30648596 30722278 30796148 30870314 
2746.837 30944850 31019754 31094994 31170566 31246470 31322424 31398460 
2750.212 31473980 31549190 31623736 31697902 31771724 31846024 31921546 
2753.587 31999364 32080662 32166678 32258570 32357472 32463792 32577958 
2756.963 32699372 32827002 32959670 33095528 33232752 33369914 33505436 
2760.338 33637704 33765432 33887068 34000464 34103744 34194504 34270616 
2763.713 34330388 34372848 34397524 34404912 34396340 34373204 34337276 
2767.088 34290228 34233360 34167724 34094352 34014544 33929700 33842184 
2770.464 33753896 33667564 33585508 33509516 33440764 33379752 33326264 
2773.839 33279580 33238728 33202600 33170198 33140942 33114016 33089344 
2777.214 33066600 33044972 33023234 32999388 32971002 32935008 32889150 
2780.589 32830752 32759000 32673758 32575994 32467612 32351262 32229484 
2783.965 32105312 31981568 31860712 31744632 31634428 31530414 31432192 
2787.340 31338486 31247930 31159102 31071432 30984454 30898526 30814466 
2790.715 30732768 30654252 30579232 30508206 30441352 30378698 30320176 
2794.090 30265748 30214524 30165612 30118092 30070720 30022572 29973116 
2797.466 29921856 29868294 29812396 29753666 29691680 29626264 29557272 
2800.841 29484888 29409220 29330374 29248000 29161634 29070504 28974186 
2804.216 28872580 28766568 28657222 28546240 28435606 28326732 28220784 
2807.591 28117832 28018334 27922036 27828694 27738442 27651566 27568766 
2810.967 27490890 27418886 27353950 27297000 27249332 27210844 27181742 
2814.342 27161354 27148514 27141816 27140332 27143578 27151550 27165304 
2817.717 27186186 27216488 27257730 27311394 27378724 27459616 27554080 
2821.092 27660958 27778710 27906102 28041800 28184684 28334266 28490124 
2824.468 28651914 28819252 28991118 29166206 29342358 29516912 29687352 
2827.843 29850902 30005494 30149346 30281698 30402222 30511406 30609984 
2831.218 30698876 30779040 30851176 30915640 30972818 31022958 31067090 
2834.593 31106562 31143296 31180176 31219480 31263598 31314306 31372820 
2837.969 31440172 31517658 31607162 31711054 31832368 31974614 32141096 
2841.344 32335340 32561102 32822892 33125888 33477194 33884992 34358144 
2844.719 34905920 35536296 36253808 37058344 37942836 38891636 39877964 
2848.094 40865880 41811424 42663108 43371156 43891348 44189112 44246852 
2851.469 44063560 43656032 43053388 42296040 41429876 40499308 39547500 
2854.845 38612296 37722392 36900320 36159808 35507492 34943624 34463912 
2858.220 34060556 33723892 33443090 33208608 33010684 32841436 32694728 
2861.595 32565888 32452296 32352940 32267846 32197688 32143772 32107666 
2864.970 32090258 32093252 32118012 32166216 32239366 32338768 32464862 
2868.346 32617070 32793302 32990270 33203066 33426128 33653028 33876752 
2871.721 34090448 34288328 34465708 34619764 34750864 34861436 34956412 
2875.096 35041812 35124832 35211380 35306288 35413260 35534032 35669548 
2878.471 35819820 35984832 36164524 36358348 36566200 36787828 37022440 
2881.847 37269316 37526592 37792148 38062720 38334292 38602084 38861452 
2885.222 39107164 39334876 39541440 39725008 39885884 40026176 40150672 
2888.597 40265568 40378384 40497416 40629940 40783612 40965416 41182704 
2891.972 41444856 41764184 42155852 42639240 43235960 43966796 44851448 
2895.348 45901904 47120148 48492464 49988560 51557620 53127120 54614424 
2898.723 55926612 56972160 57679464 57999712 57918036 57453428 56656672 
2902.098 55600812 54365192 53033368 51679528 50361112 49124820 48001704 
2905.473 47011104 46164236 45465460 44914788 44509100 44243916 44114540 
2908.849 44116592 44246708 44502492 44881168 45379116 45990892 46707156 
2912.224 47515972 48400188 49338280 50305488 51271800 52204840 53073840 
2915.599 53848848 54506824 55033464 55423356 55680280 55814092 55839300 
2918.974 55770124 55618288 55392264 55095600 54728364 54288928 53775716 
2922.350 53189588 52536480 51826520 51076016 50305416 49536032 48789692 
2925.725 48085196 47436244 46852328 46337540 45892256 45513768 45197484 
2929.100 44937460 44726404 44556348 44418404 44302512 44198720 44096824 
2932.475 43986484 43858652 43704908 43518588 43294968 43031440 42728032 
2935.851 42386812 42011652 41607900 41181028 40737212 40282764 39824176 
2939.226 39368900 38924616 38498520 38097952 37728252 37393204 37093928 
2942.601 36829408 36596084 36388068 36197912 36016508 35833456 35639152 
2945.976 35425052 35185152 34917480 34624356 34312172 33989856 33668172 
2949.352 33357606 33066210 32800198 32562174 32352440 32168678 32006818 
2952.727 31862460 31730264 31605310 31483278 31360670 31234720 31103502 
2956.102 30965738 30820654 30667834 30507352 30340038 30167176 29991080 
2959.477 29813744 29637720 29464676 29295778 29132154 28974860 28825166 
2962.853 28685292 28557600 28444380 28347280 28266964 28202964 28154138 
2966.228 28119174 28097046 28087608 28091038 28108040 28139044 28184262 
2969.603 28243274 28315944 28402070 28501800 28615708 28744442 28887736 
2972.978 29044572 29212630 29387310 29562450 29729820 29879082 29998820 
2976.354 30077646 30104100 30070472 29972370 29810726 29591430 29324596 
2979.729 29024096 28704158 28379044 28061734 27762142 27487996 27243902 
2983.104 27031396 26849376 26693964 26559600 26439716 26328030 26220142 
2986.479 26113862 26009932 25911230 25821308 25743074 25676914 25620042 
2989.854 25566304 25507374 25433378 25336178 25209958 25053166 24868324 
2993.230 24662450 24445316 24227062 24017640 23824698 23652274 23501780 
2996.605 23371720 23259530 23161800 23075414 22998410 22929312 22866930 
2999.980 22810706 22759794 22713496 22671252 22632750 22598088 22567548 
3003.355 22541270 22519458 22502080 22488992 22480130 22475592 22475314 
3006.731 22479500 22487910 22500264 22515864 22533522 22552752 22572608 
3010.106 22592818 22613308 22634356 22656138 22678932 22702814 22728124 
3013.481 22754940 22783640 22814614 22848594 22885896 22927076 22972314 
3016.856 23021294 23073774 23128916 23185776 23243554 23301516 23359308 
3020.232 23416830 23474044 23530916 23587236 23642372 23695416 23745880 
3023.607 23793268 23837928 23880670 23922890 23966166 24011756 24060468 
3026.982 24112338 24167298 24224680 24283926 24344094 24404760 24464980 
3030.357 24524332 24582182 24638356 24692752 24745400 24796438 24845696 
3033.733 24893062 24938258 24981318 25022944 25064258 25107050 25153006 
3037.108 25203566 25259438 25320126 25384862 25452630 25522484 25593998 
3040.483 25667036 25741740 25817862 25895332 25973840 26053170 26133462 
3043.858 26215110 26298636 26384118 26470880 26557980 26643898 26727544 
3047.234 26808878 26888608 26968246 27049308 27132750 27218252 27304584 
3050.609 27389910 27472994 27553056 27630696 27706656 27782240 27857944 
3053.984 27933696 28008932 28082942 28155800 28228034 28301162 28376566 
3057.359 28455134 28537394 28622608 28709962 28798540 28887736 28977410 
3060.735 29067424 29157490 29247324 29336544 29424572 29511416 29597708 
3064.110 29683910 29771016 29859490 29949508 30040716 30132902 30226174 
3067.485 30320852 30417824 30517804 30621006 30726864 30834172 30941506 
3070.860 31047302 31150806 31251776 31350844 31448792 31546872 31646080 
3074.236 31747342 31851620 31959492 32071170 32186482 32304466 32423876 
3077.611 32542996 32660574 32775686 32888468 32999494 33109796 33220268 
3080.986 33331416 33443376 33555972 33668816 33781760 33894732 34007952 
3084.361 34121016 34233792 34345592 34456168 34565260 34673412 34781304 
3087.737 34890264 35001264 35114916 35231180 35349708 35469776 35590740 
3091.112 35712280 35834644 35957980 36082828 36209364 36337668 36467416 
3094.487 36598356 36730200 36863168 36997296 37133448 37271916 37413032 
3097.862 37556396 37701292 37846048 37988796 38128336 38263612 38395060 
3101.238 38523724 38651588 38780656 38912000 39046036 39182036 39318624 
3104.613 39454420 39588732 39721740 39854828 39989552 40127160 40268184 
3107.988 40412492 40558380 40704060 40847896 40988432 41125364 41258920 
3111.363 41390040 41520064 41650204 41781472 41914720 42050380 42188308 
3114.739 42328032 42468900 42610144 42750992 42891084 43030596 43169828 
3118.114 43309136 43448748 43588660 43728472 43867592 44005444 44141976 
3121.489 44276864 44410512 44543208 44674988 44805860 44935440 45063448 
3124.864 45189904 45315228 45440000 45565392 45692664 45822696 45956340 
3128.240 46093672 46234588 46378388 46524076 46670444 46816604 46961556 
3131.615 47104708 47245768 47384840 47522184 47658788 47795480 47933432 
3134.990 48073688 48216988 48363188 48512028 48662400 48812976 48962636 
3138.365 49110680 49257292 49402872 49548468 49694820 49842076 49990160 
3141.740 50138332 50286032 50432968 50579764 50727244 50876376 51027756 
3145.116 51181280 51336424 51491696 51645792 51798000 51948212 52096868 
3148.491 52245052 52393580 52543472 52695288 52849364 53005888 53164868 
3151.866 53325856 53488360 53651116 53812956 53972492 54128560 54280856 
3155.241 54429488 54575084 54718592 54860868 55002812 55145332 55288760 
3158.617 55433524 55579720 55726952 55874228 56020728 56165392 56307880 
3161.992 56448864 56589368 56731164 56875536 57022904 57172512 57323192 
3165.367 57472792 57620208 57764424 57905620 58044244 58180832 58315264 
3168.742 58447352 58576828 58703188 58827120 58949496 59071260 59193060 
3172.118 59314928 59435960 59555236 59671848 59785300 59895808 60003424 
3175.493 60108548 60210920 60310008 60405536 60498076 60588924 60680244 
3178.868 60773872 60871064 60971448 61073644 61175212 61274100 61369228 
3182.243 61460792 61549664 61637180 61724176 61810504 61895780 61979008 
3185.619 62059920 62138668 62215940 62292536 62368608 62444160 62518656 
3188.994 62592016 62664620 62737548 62811628 62887760 62965432 63043044 
3192.369 63118368 63189336 63254720 63314788 63370720 63424320 63477008 
3195.744 63529432 63581556 63633188 63684100 63734828 63786244 63839132 
3199.120 63893980 63950604 64008152 64065636 64122552 64178972 64235596 
3202.495 64292840 64350592 64407960 64463036 64514196 64560176 64600892 
3205.870 64636916 64669832 64701216 64732404 64763980 64796292 64829760 
3209.245 64864652 64901084 64938940 64977496 65015444 65051124 65083064 
3212.621 65111132 65135688 65158324 65180688 65204220 65228968 65254308 
3215.996 65279028 65302132 65323160 65342724 65362140 65383092 65407052 
3219.371 65435208 65467760 65504900 65545820 65589628 65634800 65679892 
3222.746 65723256 65763660 65800704 65834560 65865988 65896564 65927260 
3226.122 65958924 65991864 66025844 66061028 66097872 66136836 66178508 
3229.497 66222696 66268972 66315868 66362232 66407396 66451684 66496596 
3232.872 66543744 66594192 66648268 66704788 66762008 66817924 66871292 
3236.247 66922008 66971176 67019656 67068496 67117792 67166832 67215216 
3239.623 67262832 67310544 67359368 67410680 67464896 67521408 67578816 
3242.998 67635376 67690240 67743800 67797440 67853608 67914776 67981920 
3246.373 68054968 68132288 68211768 68290936 68367880 68441680 68512056 
3249.748 68578712 68642080 68702152 68759328 68813792 68866056 68916264 
3253.124 68964808 69011920 69057552 69102112 69145784 69188792 69231104 
3256.499 69272656 69312800 69350696 69385840 69418112 69448080 69477088 
3259.874 69506096 69535528 69565088 69592856 69616152 69632840 69641400 
3263.249 69641360 69633616 69620272 69603472 69585080 69566216 69547352 
3266.625 69528688 69509984 69491200 69472424 69453520 69434168 69414136 
3270.000 69392960 69369976 69345024 69317504 69287272 69253376 69215600 
3273.375 69173608 69127288 69077368 69024928 68971096 68917432 68864888 
3276.750 68813720 68764264 68715936 68668160 68620312 68571496 68521136 
3280.125 68468840 68414760 68359576 68304848 68252080 68203192 68159352 
3283.501 68120512 68086088 68054352 68023544 67992152 67959328 67924728 
3286.876 67888504 67851008 67812392 67773072 67733768 67695432 67659536 
3290.251 67627560 67600144 67578112 67560344 67545752 67533560 67523184 
3293.626 67515016 67510728 67511576 67518888 67532744 67552216 67575824 
3297.002 67602312 67630264 67659264 67689512 67721216 67754952 67790392 
3300.377 67828384 67868904 67912680 67960416 68012880 68070192 68131936 
3303.752 68197256 68265232 68335256 68407672 68483032 68562336 68646120 
3307.127 68734256 68826184 68921160 69018480 69117616 69218480 69320888 
3310.503 69424328 69528104 69631480 69734056 69836664 69940848 70048560 
3313.878 70161528 70280480 70404640 70531920 70659592 70785304 70907704 
3317.253 71026624 71142688 71256640 71368856 71479312 71587560 71692840 
3320.628 71795048 71894032 71989760 72082224 72170520 72253816 72331384 
3324.004 72403680 72472112 72538752 72605904 72674688 72745040 72815016 
3327.379 72882104 72943312 72997016 73042456 73079968 73110864 73135992 
3330.754 73155800 73170192 73178616 73180504 73175288 73162464 73141176 
3334.129 73110792 73070360 73019632 72958880 72889504 72813296 72732304 
3337.505 72647816 72560048 72468352 72371192 72267208 72155416 72035280 
3340.880 71906664 71769248 71622576 71466144 71299944 71123960 70939304 
3344.255 70747440 70549616 70346272 70136760 69920336 69695896 69463520 
3347.630 69224472 68981584 68737600 68495336 68256192 68020088 67785856 
3351.006 67551832 67316848 67080520 66843620 66607088 66372380 66140928 
3354.381 65913804 65692304 65477468 65270676 65072216 64882228 64699100 
3357.756 64520768 64345128 64170404 63996524 63824320 63655944 63493340 
3361.131 63337900 63189604 63047180 62909016 62773340 62639476 62507564 
3364.507 62378824 62254752 62136908 62026132 61922944 61826972 61737468 
3367.882 61653484 61573604 61496484 61420944 61345528 61269292 61191044 
3371.257 61110216 61025516 60936064 60840420 60737400 60625916 60505808 
3374.632 60376864 60239316 60093060 59937080 59770016 59589480 59393864 
3378.008 59181440 58951620 58704440 58440836 58161212 57865828 57554192 
3381.383 57225844 56880480 56517884 56139260 55745976 55339948 54923052 
3384.758 54496644 54062320 53620600 53172508 52719268 52261868 51802108 
3388.133 51341904 50883492 50427868 49976180 49528340 49083596 48640756 
3391.509 48198620 47756752 47315744 46876836 46442028 46013360 45591704 
3394.884 45177112 44768388 44363536 43960636 43558844 43158296 42759804 
3398.259 42364748 41973916 41587296 41204268 40822996 40442060 40060696 
3401.634 39678864 39297836 38919288 38544760 38175256 37811200 37452000 
3405.010 37096420 36743144 36390808 36038468 35685772 35332780 34979788 
3408.385 34628020 34278108 33931132 33587836 33248492 32913596 32583460 
3411.760 32258462 31939126 31626194 31320288 31022032 30731418 30448352 
3415.135 30172184 29902226 29637686 29377312 29120284 28865248 28611284 
3418.510 28357714 28104716 27852858 27604322 27361114 27125414 26898584 
3421.886 26680716 26470952 26266990 26066890 25868394 25669952 25470796 
3425.261 25270324 25068400 24864604 24659224 24452676 24245806 24040016 
3428.636 23837334 23639154 23446274 23258900 23076288 22897352 22721038 
3432.011 22546922 22374902 22205144 22037896 21873148 21710276 21548858 
3435.387 21388682 21230028 21074074 20921688 20773944 20630628 20490416 
3438.762 20351324 20210404 20065920 19916802 19763434 19607972 19452878 
3442.137 19300816 19153656 19011566 18873122 18736276 18598334 18457014 
3445.512 18311386 18162350 18012260 17864328 17722278 17588418 17463948 
3448.888 17347788 17237178 17129074 17020276 16908508 16792910 16674142 
3452.263 16553205 16431611 16310705 16190726 16071882 15953895 15836557 
3455.638 15719527 15602839 15486421 15370172 15253680 15136464 15018730 
3459.013 14900720 14782845 14666133 14551405 14439345 14330568 14225138 
3462.389 14122917 14024143 13928128 13834700 13742968 13652007 13560382 
3465.764 13467580 13372952 13276877 13179968 13083320 12987786 12894082 
3469.139 12802480 12712774 12625167 12539897 12456996 12376907 12299423 
3472.514 12223964 12149744 12075366 12000082 11923756 11846556 11769678 
3475.890 11694140 11621032 11550556 11482779 11417428 11354196 11292809 
3479.265 11233266 11175807 11120768 11068319 11018766 10972344 10929326 
3482.640 10889675 10853186 10819453 10787250 10755424 10722649 10688553 
3486.015 10653032 10617107 10582238 10550155 10521707 10497572 10477646 
3489.391 10461083 10447200 10435220 10424732 10415637 10407560 10400807 
3492.766 10395173 10391236 10389777 10391677 10398091 10410003 10427753 
3496.141 10451376 10480430 10514918 10554602 10600063 10651810 10710525 
3499.516 10776008 10847547 10923583 11002147 11082051 11162582 11244352 
3502.892 11329368 11420728 11521157 11633181 11758137 11896103 12044842 
3506.267 12201778 12362998 12524788 12684286 12840020 12992566 13144448 
3509.642 13299527 13461872 13634707 13818897 14013569 14216168 14422972 
3513.017 14630903 14837082 15039654 15237550 15430422 15617608 15798587 
3516.393 15973041 16141100 16302655 16457833 16606320 16746661 16876542 
3519.768 16992780 17092300 17172748 17232764 17272412 17292032 17292480 
3523.143 17274240 17237144 17181296 17105156 17008354 16889528 16748073 
3526.518 16582841 16393965 16182506 15950389 15701218 15438455 15165971 
3529.894 14886215 14600815 14310466 14016101 13718789 13419802 13120679 
3533.269 12821830 12522538 12220896 11914662 11602518 11285463 10966601 
3536.644 10651402 10345730 10053734 9777421 9515983 9266616 9025410 8789748 
3540.501 8557964 8329682 8105740 7886265 7670678 7457996 7246160 7033349 
3544.359 6818758 6602254 6384849 6168729 5956345 5751417 5556855 5375867 
3548.216 5210043 5059602 4922518 4794890 4671755 4547784 4419062 4284019 
3552.074 4143399 3999882 3857883 3721043 3591730 3470973 3358429 3252959 
3555.931 3153656 3059247 2968661 2880830 2794016 2706487 2616809 2523949 
3559.789 2427978 2330295 2232967 2138325 2048664 1964946 1887833 1815492 
3563.646 1745625 1674638 1598441 1513513 1417232 1309840 1193768 1074905 
3567.503 960357 856663 767797 695012 635843 586470 541615 497394 450458 
3571.843 399050 342111 279807 212474 141240 67134 -8184 -82827 -155437 
3576.183 -224690 -290124 -351641 -408913 -462139 -510229 -552059 -587003 
3580.040 -614499 -635509 -652349 -667799 -684804 -705711 -730884 -760058 
3583.897 -792439 -827165 -864699 -906991 -955891 -1013810 -1080481 -1153552 
3587.755 -1227437 -1295462 -1352081 -1393962 -1420978 -1436467 -1444888 
3591.130 -1451691 -1460938 -1475732 -1497030 -1524733 -1557254 -1592678 
3594.505 -1628892 -1664442 -1698108 -1728571 -1755335 -1777708 -1795461 
3597.881 -1809122 -1819747 -1828721 -1837960 -1849343 -1863860 -1881807 
3601.256 -1902986 -1926969 -1952731 -1980207 -2009264 -2040035 -2072946 
3604.631 -2108098 -2145917 -2186403 -2229885 -2276329 -2325636 -2376288 
3608.006 -2426539 -2473555 -2514933 -2549324 -2577256 -2600411 -2621621 
3611.382 -2643127 -2665422 -2687387 -2706255 -2718504 -2722258 -2717484 
3614.757 -2706683 -2693874 -2683666 -2679813 -2684357 -2697661 -2718010 
3618.132 -2743462 -2770724 -2797358 -2821225 -2840581 -2854572 -2863261 
3621.507 -2867903 -2870141 -2872577 -2877185 -2884953 -2895452 -2906413 
3624.883 -2915727 -2922210 -2927246 -2935309 -2954134 -2991616 -3053213 
3628.258 -3137006 -3231603 -3319834 -3384014 -3414523 -3412090 -3385592 
3631.633 -3347421 -3309805 -3282183 -3269588 -3272942 -3289384 -3314145 
3635.008 -3342555 -3370798 -3397296 -3421361 -3443550 -3463569 -3481253 
3638.384 -3495715 -3507121 -3515798 -3523028 -3529930 -3537358 -3545344 
3641.759 -3553133 -3558720 -3560823 -3558522 -3552213 -3543273 -3534071 
3645.134 -3527137 -3525756 -3531343 -3545640 -3569039 -3600717 -3639294 
3648.509 -3682631 -3726752 -3767616 -3800299 -3820334 -3825162 -3814849 
3651.885 -3792416 -3762656 -3731942 -3706548 -3690976 -3688216 -3698171 
3655.260 -3718342 -3743243 -3766762 -3784106 -3793171 -3794452 -3790511 
3658.635 -3783942 -3776748 -3769817 -3763510 -3757565 -3752375 -3748893 
3662.010 -3748696 -3752736 -3761770 -3775270 -3792153 -3810317 -3828118 
3665.385 -3844047 -3857282 -3867988 -3877150 -3886509 -3898068 -3913601 
3668.761 -3932186 -3950541 -3960752 -3952675 -3917114 -3849367 -3750798 
3672.136 -3628056 -3492790 -3358106 -3237359 -3144079 -3088614 -3075783 
3675.511 -3102366 -3157762 -3229367 -3307010 -3385855 -3465607 -3546396 
3678.886 -3627235 -3704577 -3772971 -3827001 -3863489 -3882667 -3887462 
3682.262 -3882569 -3872224 -3859416 -3846411 -3834095 -3823914 -3817969 
3685.637 -3819415 -3830220 -3852553 -3885754 -3926998 -3970831 -4011082 
3689.012 -4042696 -4063508 -4073355 -4073519 -4065707 -4051559 -4031206 
3692.387 -4006059 -3977398 -3947158 -3917705 -3891238 -3868809 -3851272 
3695.763 -3838595 -3830318 -3826377 -3827100 -3832585 -3843423 -3859384 
3699.138 -3879909 -3903257 -3926735 -3946863 -3960095 -3963477 -3955531 
3702.513 -3936257 -3908084 -3874424 -3839120 -3805587 -3776124 -3751553 
3705.888 -3731548 -3715484 -3702540 -3693308 -3689859 -3695049 -3712757 
3709.264 -3745279 -3793171 -3853308 -3919938 -3984982 -4040135 -4078935 
3712.639 -4098597 -4099778 -4085861 -4061702 -4031600 -3999231 -3967285 
3716.014 -3937177 -3909857 -3885951 -3865295 -3848382 -3835245 -3825720 
3719.389 -3820006 -3817706 -3817871 -3819677 -3821319 -3820991 -3817706 
3722.765 -3811335 -3802302 -3792876 -3785584 -3782661 -3785485 -3793795 
3726.140 -3805291 -3816491 -3823060 -3821648 -3811302 -3793598 -3771821 
3729.515 -3751652 -3738578 -3736377 -3746429 -3766697 -3791956 -3816228 
3732.890 -3835048 -3847725 -3857939 -3871272 -3893241 -3925257 -3964462 
3736.266 -4002973 -4032125 -4046011 -4042728 -4025199 -3998147 -3966268 
3739.641 -3932711 -3899710 -3868218 -3841255 -3823717 -3823356 -3849334 
3743.016 -3907821 -3997392 -4103979 -4203978 -4271243 -4291584 -4267896 
3746.391 -4215725 -4154589 -4101452 -4068497 -4061144 -4078542 -4114089 
3749.767 -4159347 -4206734 -4250277 -4287090 -4314812 -4329772 -4328394 
3753.142 -4308907 -4273146 -4226620 -4178020 -4135816 -4106539 -4092656 
3756.517 -4092688 -4102240 -4115204 -4127874 -4138277 -4147467 -4156525 
3759.892 -4165255 -4170735 -4168635 -4155343 -4129613 -4094034 -4054218 
3763.268 -4016926 -3987379 -3968106 -3957468 -3951263 -3944335 -3932908 
3766.643 -3917344 -3901155 -3889596 -3887133 -3896427 -3916030 -3941478 
3770.018 -3965906 -3982716 -3987937 -3980451 -3962295 -3937013 -3909036 
3773.393 -3881551 -3856953 -3835770 -3817082 -3799182 -3780131 -3759240 
3776.769 -3737494 -3717422 -3702113 -3694951 -3697152 -3707632 -3722186 
3780.144 -3736213 -3745247 -3747743 -3745049 -3739892 -3736508 -3737395 
3783.519 -3743407 -3752999 -3763839 -3772609 -3777766 -3779113 -3777931 
3786.894 -3776091 -3775106 -3776091 -3778916 -3783482 -3789230 -3795536 
3790.270 -3801744 -3806835 -3809101 -3807459 -3801120 -3791266 -3780131 
3793.645 -3771427 -3768536 -3773628 -3785879 -3802105 -3816688 -3823980 
3797.020 -3820991 -3807952 -3789230 -3771460 -3762295 -3768602 -3793336 
3800.395 -3835146 -3886772 -3936257 -3970109 -3978809 -3960095 -3918986 
3803.771 -3865886 -3812156 -3769620 -3746922 -3748532 -3772806 -3812156 
3807.146 -3855081 -3889596 -3908905 -3912189 -3903060 -3887035 -3868612 
3810.521 -3849630 -3829924 -3807853 -3783022 -3757302 -3736476 -3727737 
3813.896 -3738874 -3774711 -3834030 -3908117 -3981633 -4037542 -4064591 
3817.271 -4060849 -4032979 -3993715 -3957468 -3936027 -3936651 -3960029 
3820.647 -3998508 -4038625 -4064065 -4064295 -4036229 -3986000 -3923714 
3824.022 -3861880 -3811335 -3778456 -3765810 -3770868 -3787029 -3806047 
3827.397 -3820827 -3827461 -3826279 -3821089 -3816327 -3817082 -3825720 
3830.772 -3841419 -3860500 -3878004 -3887560 -3884506 -3867134 -3836493 
3834.148 -3797080 -3755134 -3718178 -3692848 -3683189 -3690220 -3709965 
3837.523 -3736311 -3760850 -3777996 -3785223 -3784237 -3779212 -3774843 
3840.898 -3774088 -3778029 -3784960 -3792449 -3798065 -3800562 -3799642 
3844.273 -3796324 -3791529 -3786306 -3780460 -3773628 -3765481 -3755200 
3847.649 -3742421 -3726292 -3705727 -3679838 -3649151 -3616194 -3586719 
3851.024 -3569992 -3576301 -3614913 -3688742 -3789427 -3895868 -3983636 
3854.399 -4034128 -4043057 -4018370 -3974935 -3926604 -3882864 -3848382 
3857.774 -3823191 -3805029 -3791036 -3779179 -3769522 -3762985 -3761342 
3861.150 -3765711 -3776190 -3791792 -3811466 -3833373 -3854655 -3871863 
3864.525 -3879810 -3873144 -3848250 -3805817 -3750568 -3692356 -3643697 
3867.900 -3615373 -3614814 -3642218 -3689431 -3740582 -3778752 -3793336 
3871.275 -3783580 -3758025 -3728559 -3707501 -3701620 -3711016 -3730037 
3874.651 -3749648 -3760784 -3759010 -3744820 -3723105 -3700897 -3684931 
3878.026 -3679838 -3687493 -3707107 -3734143 -3762229 -3784500 -3794255 
3881.401 -3787029 -3762689 -3724617 -3679181 -3635022 -3600717 -3583071 
3884.776 -3584714 -3601966 -3625691 -3644847 -3649512 -3636304 -3608374 
3888.152 -3573837 -3542518 -3523850 -3524080 -3544489 -3581263 -3626249 
3891.527 -3669522 -3703263 -3722777 -3727803 -3720871 -3705760 -3685193 
3894.902 -3661275 -3635022 -3607059 -3578240 -3550109 -3525000 -3504853 
3898.277 -3492133 -3487466 -3490161 -3498969 -3511394 -3525559 -3540513 
3901.653 -3556419 -3573837 -3593554 -3615406 -3637092 -3655558 -3667255 
3905.028 -3669357 -3660585 -3642481 -3617870 -3591023 -3565753 -3545377 
3908.403 -3531245 -3523718 -3521155 -3521812 -3523456 -3524113 -3522831 
3911.778 -3519347 -3513694 -3506923 -3499923 -3493678 -3489306 -3487104 
3915.154 -3486742 -3487663 -3488287 -3487104 -3483127 -3476619 -3468500 
3918.529 -3460939 -3455713 -3453609 -3454332 -3456436 -3457521 -3456074 
3921.904 -3451801 -3446016 -3441282 -3441019 -3446936 -3459394 -3476356 
3925.279 -3493875 -3507417 -3513694 -3510605 -3498805 -3479938 -3456896 
3928.655 -3432406 -3408803 -3387499 -3370041 -3357021 -3349065 -3346796 
3932.030 -3350216 -3358534 -3369943 -3382732 -3394831 -3404397 -3411137 
3935.405 -3414622 -3415180 -3413175 -3408967 -3402359 -3393877 -3383685 
3938.780 -3372902 -3362940 -3355838 -3352681 -3354260 -3360408 -3369778 
3942.156 -3379905 -3388255 -3392792 -3391773 -3385132 -3373691 -3359126 
3945.531 -3344133 -3331408 -3322958 -3320294 -3323319 -3330257 -3338741 
3948.906 -3345613 -3347848 -3344034 -3334006 -3319111 -3301847 -3284550 
3952.281 -3269127 -3256499 -3246633 -3238740 -3232162 -3226177 -3220717 
3955.656 -3216145 -3212922 -3211146 -3211048 -3211968 -3213153 -3213975 
3959.032 -3214205 -3213383 -3212133 -3211048 -3209995 -3209206 -3208482 
3962.407 -3207199 -3205160 -3202003 -3197793 -3192859 -3187531 -3182136 
3965.782 -3177235 -3173222 -3169933 -3167696 -3166348 -3164999 -3163256 
3969.157 -3160065 -3154736 -3146611 -3135855 -3122828 -3108583 -3094437 
3972.533 -3081442 -3070025 -3060353 -3051765 -3043540 -3035380 -3027417 
3975.908 -3020573 -3015769 -3014288 -3016197 -3021330 -3027647 -3033372 
3979.283 -3036334 -3035149 -3029984 -3021692 -3012084 -3003067 -2996552 
3982.658 -2992801 -2991879 -2992603 -2993426 -2993097 -2990859 -2986417 
3986.034 -2980197 -2973451 -2967594 -2963908 -2963908 -2968318 -2977269 
3989.409 -2989905 -3004680 -3020046 -3033767 -3044922 -3052851 -3057720 
3992.784 -3060188 -3061241 -3061011 -3059826 -3057523 -3053608 -3048179 
3996.159 -3041532 -3034656 -3028700 -3024818 -3023534 -3025443 -3030082 
3999.535 -3036795 -3045020 -3053838 
##END=
