
##TITLE=Z189_3_a
##JCAMP-DX=5.01  $$ Nicolet v. 1
##DATATYPE=INFRARED SPECTRUM
##ORIGIN=UniL
##OWNER=Nicolet
##LONGDATE=2011/09/14
##TIME=16:57:18
##SPECTROMETER/DATA SYSTEM=Nicolet iS5
##DATA PROCESSING=
Ratio against background
%Transmittance->Absorbance
Truncated
ElementMultiply or ElementDivide
##COMMENTS=
Number of sample scans: 32
Collection length: 51.24 sec
Sample gain: 2.0
Background collected on: Mer Sep 14 16:54:19 2011 (GMT+02:00);
Number of background scans: 32
Background gain: 2.0
Sample spacing:  1.000
Number of scan points: 12415
Resolution points: 8192
Number of FFT points: 65536
Apodization: N-B fort;
Phase correction: Mertz;
Laser frequency: 15798.0 cm-1
Number of rejected sample scans: 0
Number of rejected background scans: 0
Bench serial number: ASB1000141;
##RESOLUTION=4.000
##XUNITS=1/CM
##YUNITS=ABSORBANCE
##FIRSTX=649.893372
##LASTX=4000.122314
##FIRSTY=0.107605
##MAXX=4000.122314
##MINX=649.893372
##MAXY=0.257518
##MINY=-0.003678
##XFACTOR=1.000000
##YFACTOR=1.000000E-009
##NPOINTS=6950
##DELTAX=0.482117
##ZPD=6100
##XYDATA=(X++(Y..Y))
649.893 107605040 106865728 106244864 105756200 105382192 105091304 
652.786 104853752 104658448 104515168 104447856 104476888 104608488 
655.679 104831224 105120760 105454288 105819992 106218840 106660496 
658.571 107150808 107684088 108242776 108805664 109360336 109909656 
661.464 110472920 111072640 111726064 112433408 113176424 113925024 
664.357 114650320 115328912 115939624 116460112 116858328 117094984 
667.250 117146448 117034808 116846312 116688144 116636704 116701112 
670.142 116836296 116969344 117029120 116969776 116774936 116464016 
673.035 116077640 115660648 115239992 114817504 114375928 113895440 
675.928 113371688 112818224 112261832 111725552 111216272 110719544 
678.820 110207768 109653888 109047304 108397592 107728040 107060664 
681.713 106405872 105756072 105093624 104402512 103681072 102944192 
684.606 102220648 101538192 100911768 100340224 99809288 99301528 98805856 
687.981 98322656 97861464 97433848 97046304 96696224 96376216 96079640 
691.355 95807096 95567800 95375184 95241488 95171928 95164136 95212320 
694.730 95313864 95473880 95705848 96026104 96444648 96960672 97559384 
698.105 98219744 98918352 99641120 100384936 101155328 101959016 102797280 
701.480 103660920 104533960 105398152 106240000 107053760 107840320 
704.373 108600536 109330328 110017976 110647976 111207920 111694184 
707.265 112115320 112486512 112824496 113139320 113432680 113702312 
710.158 113949400 114184232 114430256 114716080 115066264 115491200 
713.051 115980816 116505176 117019760 117480400 117848072 118096096 
715.943 118213352 118201352 118075312 117862976 117607440 117365160 
718.836 117195264 117156336 117290880 117615648 118119448 118764152 
721.729 119493968 120237720 120923616 121484872 121862096 122017064 
724.621 121938392 121649400 121205776 120689496 120192928 119789992 
727.514 119528176 119417320 119436768 119548376 119714216 119910552 
730.407 120129008 120372176 120643560 120939552 121247872 121553296 
733.300 121844856 122122616 122397784 122686920 123002112 123345352 
736.192 123707672 124076560 124442888 124807856 125181912 125579400 
739.085 126009584 126470912 126951936 127437416 127918456 128395976 
741.978 128879992 129379496 129892632 130397024 130855384 131219000 
744.870 131447344 131520096 131440432 131232184 130928696 130565584 
747.763 130171344 129769552 129383560 129035608 128748896 128540728 
750.656 128416064 128365520 128367648 128399176 128442912 128496144 
753.548 128569096 128679648 128841968 129058304 129317464 129598392 
756.441 129878384 130138024 130365536 130553992 130696368 130784304 
759.334 130808264 130763528 130655320 130500776 130325944 130155592 
762.227 130006192 129880968 129772528 129669264 129565344 129465656 
765.119 129385400 129343840 129355984 129427792 129554944 129727688 
768.012 129933072 130159840 130398544 130638720 130871680 131094904 
770.905 131321160 131582304 131928760 132415696 133074256 133888064 
773.797 134771904 135586032 136149088 136285888 135883280 134908800 
776.690 133422520 131541072 129408152 127143456 124812808 122431024 
779.583 119970776 117389640 114651144 111742568 108678144 105496536 
782.475 102250288 98998960 95806312 92728768 89815952 87106760 84623616 
785.850 82375568 80359192 78563392 76974120 75579168 74369960 73341040 
789.225 72487376 71804040 71283496 70919096 70706688 70647656 70748880 
792.600 71020968 71473568 72108856 72916624 73869352 74923072 76017248 
795.975 77073816 78009712 78735104 79162224 79222944 78872872 78106160 
799.350 76956320 75496760 73828744 72058160 70292632 68618368 67089952 
802.724 65731584 64533808 63463204 62469452 61503356 60528012 59527228 
806.099 58511080 57509440 56564832 55713880 54977352 54351932 53811644 
809.474 53312816 52805880 52251028 51622396 50912660 50130040 49293032 
812.849 48423376 47541184 46664396 45807968 44984056 44203272 43473428 
816.224 42798892 42181080 41618404 41108500 40649368 40239540 39878836 
819.598 39566516 39300776 39078340 38894716 38746492 38632504 38555008 
822.973 38519196 38532232 38600996 38730296 38922256 39174968 39482648 
826.348 39833692 40210460 40589084 40937164 41219716 41403380 41461444 
829.723 41382492 41172172 40855032 40467192 40053172 39658860 39321996 
833.098 39071380 38922692 38875692 38914652 39008196 39116228 39190052 
836.473 39183924 39064492 38815000 38441068 37967356 37433940 36885136 
839.847 36360472 35892044 35498000 35185692 34953644 34795124 34701408 
843.222 34662932 34670828 34717020 34794480 34898740 35027124 35178972 
846.597 35353696 35548988 35758904 35974288 36182532 36371464 36531856 
849.972 36658884 36753496 36821296 36871140 36913524 36958616 37016888 
853.347 37097680 37209176 37358860 37551448 37790164 38076140 38410044 
856.721 38792536 39226024 39714440 40263060 40877384 41562720 42324604 
860.096 43169388 44105112 45141784 46289064 47551940 48926220 50393076 
863.471 51918824 53451448 54930836 56294676 57484780 58460736 59203576 
866.846 59721232 60047520 60243996 60394076 60587588 60920512 61481216 
870.221 62336636 63534840 65095620 67009336 69232472 71687136 74263488 
873.596 76809384 79148272 81095112 82462056 83103488 82931520 81930192 
876.970 80158456 77738128 74838432 71636720 68311528 65023564 61893332 
880.345 59011020 56431584 54177428 52250096 50634828 49309588 48247568 
883.720 47421944 46807600 46379196 46113200 45987352 45981276 46078640 
887.095 46269564 46550668 46925376 47401840 47990196 48698688 49532280 
890.470 50492512 51579000 52791440 54132800 55609172 57230724 59009960 
893.844 60958752 63086868 65396920 67879904 70504792 73210856 75904008 
897.219 78442824 80658192 82370680 83405064 83637952 83013504 81558752 
900.594 79376896 76633848 73538688 70296912 67104840 64127044 61474496 
903.969 59217248 57381876 55961172 54924144 54226720 53822444 53664912 
907.344 53714780 53943528 54330532 54864892 55544324 56373296 57361040 
910.719 58517640 59849600 61351676 63000016 64743480 66507904 68195864 
914.093 69696832 70913512 71768504 72222792 72282616 71998168 71455680 
917.468 70756840 70014584 69329552 68774360 68392696 68189776 68137216 
920.843 68177296 68238776 68251384 68156832 67927128 67569672 67130944 
924.218 66685856 66331692 66175228 66307956 66801348 67691360 68972184 
927.593 70591912 72451672 74420776 76329184 77989368 79223696 79863192 
930.967 79783352 78920480 77278360 74935240 72031880 68765616 65349044 
934.342 61986420 58861080 56100388 53783068 51942424 50574552 49654328 
937.717 49146300 49015232 49224744 49733460 50492624 51433764 52468092 
941.092 53497580 54412772 55114788 55531784 55623484 55391284 54873536 
944.467 54141584 53281200 52378404 51512776 50741324 50098876 49601288 
947.841 49247792 49028216 48927216 48929184 49017048 49173424 49381196 
951.216 49621936 49878348 50136808 50388016 50629096 50862704 51095436 
954.591 51335604 51591124 51868716 52173080 52507612 52874700 53275768 
957.966 53711144 54179492 54677704 55201992 55748308 56313956 56898084 
961.341 57501688 58126208 58772948 59441736 60131340 60840304 61568372 
964.716 62316632 63088208 63886648 64715056 65574988 66466592 67389000 
968.090 68341696 69325160 70340552 71388736 72469528 73580880 74719800 
971.465 75884248 77074368 78294240 79550456 80851136 82204008 83614088 
974.840 85084952 86619368 88221344 89897216 91655840 93506440 95458232 
978.215 97518240 99692936 101989016 104415784 106985248 109711424 112606816 
981.590 115680024 118932920 122361504 125955064 129695208 133554144 
984.482 137484688 141408272 145217008 148759328 151853152 154317824 
987.375 155980624 156716240 156468288 155253840 153165664 150353184 
990.268 147021712 143396880 139701024 136151312 132920968 130135296 
993.160 127875568 126172272 125021352 124394480 124254592 124562096 
996.053 125280064 126378608 127828520 129600808 131668088 133999960 
998.946 136564688 139329504 142250576 145268656 148307536 151261248 
1001.839 154007360 156420784 158379056 159790944 160607136 160825792 
1004.731 160494304 159705120 158592928 157309328 156020208 154890928 
1007.624 154056208 153624912 153667712 154215632 155271184 156816496 
1010.517 158825664 161269728 164121792 167358432 170954560 174884384 
1013.409 179122416 183641152 188411824 193398656 198540736 203743216 
1016.302 208861408 213687168 217980784 221485088 223963920 225263376 
1019.195 225332208 224249808 222209296 219515136 216543744 213670144 
1022.087 211268144 209646016 209008016 209466464 211024656 213600768 
1024.980 217038624 221144176 225713440 230528000 235386528 240100832 
1027.873 244485040 248379456 251651824 254209936 256018496 257097872 
1030.766 257517808 257373120 256773152 255823824 254610416 253202592 
1033.659 251644368 249949328 248096992 246031456 243671472 240917488 
1036.552 237679744 233900448 229562080 224695136 219366848 213672064 
1039.446 207712112 201589472 195407712 189260672 183237456 177419936 
1042.339 171870512 166636288 161748208 157222416 153071616 149310336 
1045.232 145956976 143036656 140574656 138590784 137097424 136095776 
1048.125 135577888 135527648 135924208 136742688 137950944 139511248 
1051.018 141379440 143503744 145833744 148321936 150923520 153599712 
1053.911 156306656 158986272 161566720 163952496 166031696 167696176 
1056.804 168842528 169392512 169303440 168569664 167228048 165354576 
1059.697 163070912 160531456 157907600 155389248 153149120 151331712 
1062.590 150053136 149383568 149355664 149966384 151183344 152944176 
1065.483 155156640 157709136 160463712 163264720 165964736 168421248 
1068.376 170515376 172164496 173310528 173920192 173978560 173481824 
1071.269 172439136 170871296 168815104 166319616 163443424 160258224 
1074.162 156841696 153282464 149688080 146173296 142864000 139890752 
1077.055 137365200 135382080 134008672 133275912 133181480 133684352 
1079.948 134709808 136138800 137812992 139553328 141153248 142417408 
1082.842 143194752 143390896 142998912 142094768 140834880 139419024 
1085.735 138063904 136989840 136376816 136360704 137024544 138386080 
1088.628 140399760 142953936 145891824 149008720 152073792 154872128 
1091.521 157202192 158905152 159882336 160083968 159514144 158219440 
1094.414 156285424 153821152 150943600 147775216 144420944 140964128 
1097.307 137469504 133980200 130527048 127134800 123823112 120607912 
1100.200 117500376 114504088 111618088 108840744 106174624 103632528 
1103.093 101239648 99029712 97045264 95330072 93922464 92857344 92162272 
1106.468 91856760 91955520 92465864 93386864 94708008 96407576 98452824 
1109.844 100796496 103382824 106143656 108995008 111844408 114583240 
1112.737 117089120 119245664 120941304 122087368 122632648 122561592 
1115.630 121896576 120687008 119006600 116941808 114580264 112013888 
1118.523 109324368 106578248 103828040 101106192 98430208 95809000 93248848 
1121.898 90759696 88358216 86065992 83908704 81913024 80101832 78496816 
1125.273 77117944 75982664 75109232 74514384 74210576 74205072 74497424 
1128.648 75078072 75927304 77016448 78308808 79755120 81296968 82866552 
1132.024 84384368 85773296 86965128 87910600 88593000 89030784 89277824 
1135.399 89409256 89514856 89683544 89983456 90458720 91118784 91938240 
1138.774 92855824 93782600 94618632 95254112 95590552 95553600 95091704 
1142.149 94182680 92828784 91051880 88887688 86382816 83596864 80595640 
1145.525 77451192 74240888 71034744 67897456 64884500 62036640 59384672 
1148.900 56949344 54741140 52763940 51015308 49488684 48174000 47059508 
1152.275 46133724 45385004 44803504 44381224 44111204 43987876 44006320 
1155.650 44161560 44449748 44867392 45412556 46084684 46883704 47809576 
1159.026 48861064 50034996 51325720 52726036 54226120 55812772 57469504 
1162.401 59171944 60887156 62576132 64189612 65674380 66978752 68050240 
1165.776 68843032 69320816 69455744 69234256 68657368 67741784 66516748 
1169.151 65021836 63303628 61407776 59379656 57263116 55096052 52914968 
1172.527 50753128 48637976 46594232 44642124 42796552 41069312 39468712 
1175.902 37999392 36663500 35460536 34387948 33441622 32617032 31909422 
1179.277 31314518 30829370 30451764 30180174 30013518 29949900 29986748 
1182.652 30120686 30347394 30662714 31063210 31545770 32107274 32743744 
1186.028 33448246 34210168 35016028 35847960 36685924 37509796 38298064 
1189.403 39030704 39690880 40264728 40744780 41131448 41433596 41667888 
1192.778 41857252 42029464 42210876 42426700 42698420 43040328 43461452 
1196.153 43964008 44543428 45188180 45878740 46588996 47283376 47919448 
1199.529 48451228 48827212 48998280 48923252 48571532 47932136 47015460 
1202.904 45855580 44503080 43021156 41478796 39937788 38451352 37060656 
1206.279 35790312 34653100 33651164 32779690 32029436 31389772 30850856 
1209.654 30403750 30041144 29758172 29551350 29418724 29359622 29373270 
1213.030 29458862 29614840 29838798 30126936 30474936 30876898 31325306 
1216.405 31810902 32321456 32843902 33364080 33868296 34345448 34786404 
1219.780 35184400 35534536 35833672 36080232 36275204 36423344 36533800 
1223.155 36619736 36698688 36790132 36913088 37085880 37322936 37633928 
1226.531 38023152 38488712 39022224 39608076 40226124 40851208 41455392 
1229.906 42013220 42500948 42899932 43198960 43394184 43491008 43504012 
1233.281 43458564 43388804 43333408 43336484 43439700 43679224 44086224 
1236.656 44682996 45484368 46499736 47732752 49182328 50840728 52692892 
1240.031 54713892 56866544 59106032 61376748 63614352 65754368 67726872 
1243.407 69463712 70907664 72011736 72749232 73115688 73129456 72827944 
1246.782 72260936 71490360 70580880 69594920 68593376 67623760 66717608 
1250.157 65886340 65119444 64386324 63642056 62840888 61943504 60926456 
1253.532 59789484 58553996 57261264 55960568 54707652 53552976 52533116 
1256.908 51670460 50967316 50407328 49955400 49563288 49176428 48735528 
1260.283 48189404 47499892 46643772 45617100 44433048 43119872 41714064 
1263.658 40258480 38797936 37371140 36012264 34747028 33591020 32552316 
1267.033 31632144 30825848 30125516 29521346 29003552 28562448 28189988 
1270.409 27879072 27623142 27416342 27253356 27129046 27039400 26981044 
1273.784 26951394 26948114 26968422 27008688 27065248 27133666 27209716 
1277.159 27289272 27368242 27441648 27504728 27551502 27576570 27576004 
1280.534 27546806 27488102 27399792 27282426 27135994 26960488 26756616 
1283.910 26526668 26276038 26013872 25752146 25504984 25288024 25115230 
1287.285 24999674 24952856 24983846 25101574 25313734 25626684 26045464 
1290.660 26572176 27204848 27935886 28749824 29623816 30523278 31405408 
1294.035 32223060 32925964 33472258 33834124 34001824 33986060 33815212 
1297.411 33531886 33182144 32811992 32462508 32163932 31937308 31794644 
1300.786 31738430 31763666 31858894 32007784 32190266 32384924 32573066 
1304.161 32737240 32864380 32945660 32975148 32950840 32873924 32749280 
1307.536 32584996 32392066 32183916 31973616 31773682 31595334 31447474 
1310.912 31338092 31274814 31264272 31312526 31424142 31600714 31841532 
1314.287 32143414 32502714 32915990 33381042 33896956 34463340 35080212 
1317.662 35746708 36462408 37226972 38040224 38902076 39809904 40757084 
1321.037 41729420 42706320 43658232 44547940 45337184 45987096 46466140 
1324.413 46758404 46867428 46821288 46667384 46472156 46307424 46235548 
1327.788 46305688 46540936 46937928 47469176 48092456 48761368 49431352 
1331.163 50070728 50662752 51205176 51709164 52196024 52693976 53231420 
1334.538 53834972 54524256 55308144 56183120 57132640 58130944 59143052 
1337.914 60129480 61051104 61868116 62545024 63054384 63378460 63511908 
1341.289 63460976 63240768 62870672 62370292 61758936 61052516 60264932 
1344.664 59408416 58492276 57523288 56506148 55443988 54340632 53203668 
1348.039 52045128 50884384 49747356 48662996 47665040 46787816 46062764 
1351.415 45520904 45188144 45083772 45222188 45609368 46242844 47108292 
1354.790 48179188 49413344 50750000 52118456 53437920 54623928 55603296 
1358.165 56313536 56711644 56779760 56525620 55984204 55210832 54284388 
1361.540 53297492 52343380 51514824 50883676 50490020 50339716 50404128 
1364.916 50630356 50947272 51280860 51560492 51722000 51721592 51537580 
1368.291 51173972 50657164 50029604 49340508 48632936 47943276 47298008 
1371.666 46714608 46207684 45791472 45480724 45291436 45235392 45316848 
1375.041 45528852 45855284 46275132 46766192 47310756 47896840 48517028 
1378.417 49168860 49853672 50576044 51342540 52160380 53033180 53955760 
1381.792 54907864 55849472 56726480 57469012 58002816 58262176 58190608 
1385.167 57755000 56953916 55831952 54482708 53034940 51637584 50414064 
1388.542 49439296 48736420 48283932 48034900 47931544 47919856 47949456 
1391.917 47972840 47947752 47833136 47594084 47211080 46685280 46041172 
1395.293 45316148 44548712 43764088 42969504 42161108 41334896 40497888 
1398.668 39676724 38912292 38247692 37716036 37329216 37079388 36947000 
1402.043 36910168 36952016 37062244 37237260 37476560 37779428 38142840 
1405.418 38561308 39028096 39536940 40082932 40661848 41269668 41901512 
1408.794 42551704 43215684 43890024 44574564 45270880 45981316 46704940 
1412.169 47435656 48160452 48862548 49524664 50132976 50682596 51177400 
1415.544 51628552 52050656 52458780 52867328 53289816 53742040 54241920 
1418.919 54804288 55436120 56129872 56863336 57605076 58322580 58989308 
1422.295 59584692 60099380 60534680 60902516 61221140 61510304 61785024 
1425.670 62051244 62305808 62539012 62739416 62896528 63003584 63059480 
1429.045 63068480 63040324 62986916 62923796 62868340 62836632 62845252 
1432.420 62905416 63021704 63190484 63401932 63642436 63899584 64169488 
1435.796 64462156 64804792 65230972 65767780 66422960 67178432 67995248 
1439.171 68818688 69589976 70243432 70714528 70951592 70915312 70584696 
1442.546 69956424 69040384 67858096 66438592 64821252 63049896 61167012 
1445.921 59216452 57239904 55282816 53403444 51667364 50139152 48868296 
1449.297 47876492 47159332 46697084 46468612 46459172 46660928 47065860 
1452.672 47655132 48390780 49221480 50076640 50875704 51537996 51984660 
1456.047 52166732 52088388 51825552 51494532 51200404 51005700 50923616 
1459.422 50941648 51043448 51219380 51464352 51772244 52129444 52508772 
1462.798 52869760 53170336 53374968 53472360 53482216 53451932 53437356 
1466.173 53478916 53594960 53778568 54007500 54249920 54471928 54638996 
1469.548 54707920 54627160 54335676 53768740 52882444 51678036 50220564 
1472.923 48620632 46998104 45440808 43985788 42636348 41384860 40233176 
1476.299 39200352 38315180 37599208 37058092 36676624 36427708 36281976 
1479.674 36219844 36235836 36336876 36536104 36844880 37268956 37807728 
1483.049 38458264 39219936 40096412 41093716 42214088 43451128 44781244 
1486.424 46158264 47519188 48778864 49836276 50589068 50935240 50797336 
1489.800 50145992 49013600 47495680 45721560 43826724 41913480 40037292 
1493.175 38218780 36451056 34720392 33025376 31383752 29835356 28433802 
1496.550 27225978 26237528 25466402 24892956 24490044 24233894 24108450 
1499.925 24102182 24204782 24404620 24687490 25037474 25438612 25871102 
1503.301 26309690 26720602 27050472 27229012 27173136 26805990 26098098 
1506.676 25096730 23918724 22692340 21505092 20386708 19329082 18312456 
1510.051 17325064 16367678 15455382 14609656 13847972 13180685 12607770 
1513.426 12121736 11711738 11366474 11075865 10829508 10618567 10437222 
1516.802 10284621 10165855 10088493 10058176 10073131 10122577 10187224 
1520.177 10246589 10287030 10311051 10338163 10396496 10507144 10673237 
1523.552 10882913 11116655 11357767 11597074 11837670 12091345 12373975 
1526.927 12696465 13061364 13463479 13895215 14351012 14830190 15336326 
1530.302 15874635 16448541 17058320 17700950 18370696 19062076 19770750 
1533.678 20494444 21230062 21973758 22718174 23454038 24167998 24844502 
1537.053 25469250 26024390 26494232 26864990 27128340 27280556 27324626 
1540.428 27272760 27143154 26958584 26740652 26502296 26245096 25958680 
1543.803 25628898 25244900 24809910 24342168 23869714 23417878 22996070 
1547.179 22596308 22196602 21772458 21308462 20808252 20294730 19802620 
1550.554 19360400 18978024 18645200 18338896 18036126 17724176 17407900 
1553.929 17106568 16844610 16637200 16482370 16358698 16231794 16055344 
1557.304 15777729 15354553 14767419 14051282 13295529 12605178 12047431 
1560.680 11633794 11338279 11121550 10946620 10782461 10608347 10415060 
1564.055 10206457 9996939 9807074 9654255 9544874 9472938 9422483 9375114 
1567.912 9315157 9235511 9139973 9042054 8959244 8905534 8887981 8906684 
1571.770 8957282 9033631 9128400 9233378 9336486 9424143 9483471 9507651 
1575.627 9501996 9485029 9483572 9518388 9596901 9713851 9857270 10014807 
1579.485 10178574 10346442 10520587 10704854 10902143 11112338 11332973 
1582.860 11559709 11788027 12013094 12230337 12433299 12614320 12765660 
1586.235 12880907 12958632 13003252 13026127 13043096 13071846 13129831 
1589.610 13230179 13381768 13589337 13852728 14166527 14517931 14887039 
1592.986 15245512 15560148 15800374 15940420 15966853 15880994 15697954 
1596.361 15442712 15142845 14825664 14512107 14216579 13948794 13714379 
1599.736 13516252 13354672 13227276 13129661 13056686 13005061 12974199 
1603.111 12966790 12986966 13038043 13119518 13227070 13351733 13482071 
1606.487 13606500 13712942 13790063 13828338 13818658 13754357 13632894 
1609.862 13457190 13236976 12988264 12732427 12489152 12273859 12093388 
1613.237 11945960 11822484 11709832 11594963 11467912 11325287 11173087 
1616.612 11026208 10904386 10823971 10793773 10812863 10872822 10960314 
1619.988 11060128 11157924 11240884 11301617 11339843 11363481 11385862 
1623.363 11420898 11478765 11562125 11667251 11787211 11915377 12046579 
1626.738 12177481 12306581 12433230 12558212 12683706 12814049 12954979 
1630.113 13111663 13287501 13481730 13690270 13904658 14114532 14309507 
1633.489 14479527 14617949 14722514 14799266 14860979 14926336 15014065 
1636.864 15134954 15290985 15476052 15679678 15889345 16093062 16282942 
1640.239 16456077 16615923 16770422 16928938 17097332 17275584 17456256 
1643.614 17626650 17772258 17878690 17937182 17946920 17918122 17869818 
1646.990 17826626 17813162 17846442 17933660 18072910 18254778 18461856 
1650.365 18668304 18841804 18939776 18919774 18761670 18495910 18208060 
1653.740 17990672 17893364 17905414 17984596 18085070 18173820 18233940 
1657.115 18259582 18253982 18223538 18173336 18104656 18013882 17894918 
1660.490 17741228 17547982 17314582 17044294 16746316 16434226 16123701 
1663.866 15829720 15563034 15326407 15114884 14915706 14711101 14479801 
1667.241 14202645 13866547 13469494 13022576 12547673 12072981 11623108 
1670.616 11214532 10853424 10537085 10255545 9993650 9733166 9454449 9142274 
1674.474 8793163 8422035 8060540 7743968 7497369 7325679 7216074 7146613 
1678.331 7096191 7052309 7012572 6984085 6977284 6999103 7047627 7111145 
1682.188 7170967 7208764 7214963 7197984 7183835 7207080 7291241 7438210 
1686.046 7634460 7861702 8105503 8355048 8603959 8847840 9081977 9302598 
1689.903 9507312 9697351 9877336 10053632 10231018 10409630 10583052 
1693.279 10736913 10853729 10916447 10918180 10869765 10801619 10751688 
1696.654 10743808 10777740 10828795 10859573 10826315 10692866 10447031 
1700.029 10114912 9759291 9445813 9211649 9051866 8936278 8826942 8692618 
1703.886 8513258 8281149 8001608 7690441 7368679 7053824 6756528 6478840 
1707.744 6217396 5965918 5717742 5468197 5214771 4958209 4701363 4449121 
1711.601 4206159 3975069 3756268 3547666 3346075 3148950 2955083 2764438 
1715.459 2576409 2388995 2198298 2000928 1799056 1601733 1424712 1282888 
1719.316 1184332 1127256 1101910 1093440 1086763 1071151 1041723 1000308 
1723.174 953185 907826 869445 838802 813340 789472 765042 739485 714161 
1727.513 689237 664116 636474 604354 567890 529937 494475 464058 435765 
1731.853 399913 340254 241050 94309 -89518 -281614 -445490 -556229 -610727 
1736.192 -623102 -614201 -603911 -606922 -629918 -671637 -724467 -778878 
1740.050 -827198 -866319 -897104 -922564 -945047 -964718 -980951 -992720 
1743.907 -1000125 -1003926 -1005480 -1005282 -1002703 -997083 -987926 
1747.282 -976653 -966636 -962106 -966966 -983529 -1010802 -1045709 -1083158 
1751.140 -1118026 -1145489 -1162937 -1169315 -1165019 -1152461 -1135574 
1754.515 -1120769 -1114159 -1121694 -1145687 -1183656 -1227338 -1266786 
1757.890 -1294438 -1307916 -1310856 -1310790 -1316736 -1334838 -1366548 
1761.266 -1407371 -1449148 -1483227 -1504162 -1511294 -1507761 -1498384 
1764.641 -1487454 -1478274 -1472693 -1472033 -1476392 -1485341 -1496733 
1768.016 -1506903 -1511790 -1509181 -1499738 -1488478 -1482996 -1491846 
1771.391 -1520110 -1566234 -1621101 -1671440 -1706095 -1720221 -1716360 
1774.767 -1701508 -1683520 -1667578 -1655035 -1644901 -1634834 -1624766 
1778.142 -1616876 -1615424 -1624039 -1643746 -1671506 -1700386 -1723059 
1781.517 -1735072 -1736524 -1732135 -1728109 -1730089 -1740022 -1756424 
1784.892 -1774739 -1790512 -1800510 -1804173 -1802127 -1795164 -1783450 
1788.268 -1766489 -1744675 -1720485 -1699197 -1688042 -1694412 -1721574 
1791.643 -1767314 -1823508 -1879300 -1924858 -1955865 -1973412 -1981856 
1795.018 -1986144 -1989014 -1991289 -1992147 -1991553 -1990201 -1990762 
1798.393 -1996303 -2008407 -2026645 -2047620 -2067340 -2081817 -2089863 
1801.769 -2093094 -2094051 -2095370 -2097843 -2100942 -2102855 -2102162 
1805.144 -2098931 -2094281 -2089566 -2085939 -2082839 -2079047 -2073309 
1808.519 -2066120 -2058997 -2055172 -2057447 -2066780 -2081421 -2097810 
1811.894 -2111758 -2121188 -2126134 -2128673 -2131607 -2136487 -2142686 
1815.270 -2146840 -2144796 -2133289 -2111461 -2081256 -2046466 -2011540 
1818.645 -1979481 -1951346 -1927167 -1906285 -1888471 -1874450 -1865476 
1822.020 -1862540 -1865773 -1874813 -1887646 -1902129 -1915489 -1925155 
1825.395 -1928552 -1924033 -1911497 -1892958 -1872437 -1856205 -1850629 
1828.771 -1860428 -1885898 -1921922 -1959592 -1988288 -2000887 -1996039 
1832.146 -1977437 -1951874 -1925946 -1904273 -1887547 -1873823 -1859867 
1835.521 -1843008 -1822518 -1799751 -1776323 -1753454 -1730287 -1705072 
1838.896 -1675301 -1639686 -1598621 -1554415 -1510205 -1468863 -1432405 
1842.271 -1401592 -1376094 -1354195 -1333616 -1311153 -1283073 -1246468 
1845.647 -1199847 -1144299 -1083389 -1022471 -968289 -925837 -897633 -882886 
1849.504 -878554 -880273 -885134 -892938 -905437 -925474 -954767 -992587 
1853.362 -1035495 -1079456 -1120802 -1158079 -1192545 -1226280 -1261236 
1856.737 -1297378 -1332724 -1364831 -1392311 -1415529 -1437227 -1460971 
1860.112 -1489105 -1521662 -1556000 -1588090 -1614829 -1634999 -1649490 
1863.487 -1660712 -1671341 -1682134 -1692795 -1702168 -1710023 -1717614 
1866.863 -1727548 -1742728 -1764113 -1789522 -1814236 -1832153 -1839544 
1870.238 -1835716 -1823805 -1808726 -1794274 -1782559 -1772924 -1764014 
1873.613 -1754015 -1743223 -1733290 -1727151 -1726326 -1731178 -1739362 
1876.988 -1747514 -1753487 -1756424 -1758041 -1760747 -1767578 -1779061 
1880.364 -1794438 -1810970 -1826643 -1840302 -1852543 -1864222 -1876462 
1883.739 -1888372 -1898137 -1903613 -1903514 -1898665 -1891869 -1886920 
1887.114 -1886261 -1891308 -1900875 -1912421 -1923043 -1930828 -1935216 
1890.489 -1936700 -1935776 -1931917 -1924759 -1913774 -1899490 -1884248 
1893.865 -1870722 -1861649 -1857987 -1858812 -1861154 -1861913 -1859537 
1897.240 -1854094 -1847132 -1840830 -1835815 -1831757 -1826874 -1819120 
1900.615 -1807769 -1793877 -1779424 -1766654 -1755962 -1746161 -1734313 
1903.990 -1718373 -1697844 -1674905 -1653550 -1638531 -1632622 -1636319 
1907.365 -1647344 -1662462 -1677777 -1691507 -1702993 -1713125 -1722333 
1910.741 -1731310 -1739659 -1746986 -1753454 -1759064 -1764740 -1770350 
1914.116 -1775497 -1779226 -1781998 -1785463 -1792921 -1808858 -1835815 
1917.491 -1873394 -1916908 -1958603 -1991652 -2012563 -2022919 -2028756 
1920.866 -2037759 -2055996 -2084554 -2119605 -2153137 -2177403 -2187194 
1924.242 -2181919 -2164974 -2142092 -2117000 -2092501 -2069055 -2047158 
1927.617 -2028327 -2016190 -2013948 -2023809 -2044619 -2072254 -2100745 
1930.992 -2124749 -2141532 -2152082 -2159632 -2166787 -2174963 -2182546 
1934.367 -2186831 -2185941 -2180996 -2175490 -2174402 -2180963 -2194183 
1937.743 -2208820 -2218248 -2216139 -2201073 -2176875 -2150961 -2131805 
1941.118 -2124320 -2129365 -2142323 -2157357 -2168930 -2174600 -2175062 
1944.493 -2171996 -2165963 -2155808 -2138597 -2112318 -2077497 -2037462 
1947.868 -1997259 -1961802 -1932907 -1909452 -1888405 -1867159 -1846208 
1951.244 -1829018 -1820605 -1825719 -1845219 -1876594 -1914236 -1952368 
1954.619 -1987991 -2021236 -2055436 -2093325 -2135663 -2180073 -2220721 
1957.994 -2252234 -2271023 -2277022 -2272770 -2261727 -2245378 -2223292 
1961.369 -2194381 -2158676 -2119474 -2082509 -2053688 -2036341 -2029580 
1964.745 -2028954 -2028921 -2025392 -2019060 -2015234 -2020874 -2040562 
1968.120 -2073837 -2115055 -2156335 -2189205 -2210271 -2220160 -2222963 
1971.495 -2221314 -2216864 -2207172 -2190260 -2165864 -2137839 -2110835 
1974.870 -2089236 -2071726 -2050027 -2011606 -1945276 -1847066 -1725039 
1978.246 -1598159 -1486662 -1408858 -1372163 -1372890 -1399148 -1436995 
1981.621 -1475071 -1507464 -1534044 -1555967 -1574620 -1588981 -1596409 
1984.996 -1594956 -1585680 -1572012 -1560094 -1554580 -1556924 -1565145 
1988.371 -1575214 -1582510 -1585415 -1585317 -1585217 -1587826 -1593405 
1991.747 -1599446 -1602087 -1599281 -1591226 -1582048 -1576535 -1578978 
1995.122 -1589938 -1607237 -1626119 -1643284 -1657247 -1669030 -1681144 
1998.497 -1694808 -1709198 -1721145 -1727251 -1725600 -1717977 -1709825 
2001.872 -1707449 -1715237 -1733587 -1758239 -1782790 -1800477 -1807109 
2005.248 -1803051 -1790149 -1772198 -1749560 -1721970 -1687382 -1645760 
2008.623 -1598984 -1550849 -1505912 -1466386 -1431513 -1398685 -1364170 
2011.998 -1327472 -1290936 -1259452 -1238637 -1231567 -1236985 -1250763 
2015.373 -1266522 -1278911 -1285353 -1287104 -1286179 -1284164 -1280959 
2018.749 -1275343 -1265432 -1252415 -1238935 -1228626 -1224694 -1226974 
2022.124 -1232558 -1236259 -1234078 -1225686 -1215344 -1208108 -1209892 
2025.499 -1220994 -1238274 -1254034 -1261203 -1255917 -1240355 -1220531 
2028.874 -1203019 -1192115 -1187621 -1184482 -1176618 -1160359 -1134550 
2032.250 -1101964 -1065905 -1027793 -985876 -937773 -881100 -817938 -755163 
2036.107 -701576 -666046 -651952 -656650 -672001 -688178 -697209 -696085 
2039.964 -687186 -676236 -668693 -667402 -671637 -677691 -681463 -680536 
2043.822 -674681 -665781 -655956 -646196 -634715 -618767 -594547 -559604 
2047.679 -513274 -458002 -398816 -342735 -297574 -271316 -268600 -291018 
2051.537 -334260 -390077 -447244 -493780 -521647 -528629 -519131 -502452 
2055.394 -489213 -487327 -499274 -521647 -547559 -569002 -581312 -582304 
2059.251 -574098 -560233 -543885 -527504 -511553 -496461 -482825 -472366 
2063.109 -465581 -462702 -461510 -458829 -451647 -439102 -421790 -403484 
2066.966 -387329 -375511 -367433 -361077 -353131 -342967 -332240 -324492 
2070.824 -323665 -331876 -347370 -365215 -379517 -385773 -383257 -374915 
2074.681 -365612 -360183 -360613 -365149 -369850 -371306 -367268 -359156 
2078.539 -350615 -345384 -345715 -350979 -358461 -364222 -366043 -362666 
2082.396 -355482 -346576 -337074 -327439 -317705 -307772 -298865 -293700 
2086.253 -294958 -304527 -322572 -346774 -373624 -400074 -424272 -447178 
2090.111 -470513 -496428 -525122 -554640 -581047 -599941 -608345 -605202 
2093.968 -592132 -571914 -548221 -523930 -501061 -480939 -464754 -453235 
2097.826 -446615 -444298 -444497 -444530 -442379 -436685 -428046 -417917 
2101.683 -408350 -400174 -392990 -385078 -374451 -360613 -343927 -326645 
2105.541 -311050 -298203 -287806 -277706 -265819 -251083 -234823 -219159 
2109.398 -207104 -199884 -196837 -195181 -191605 -183457 -171004 -156463 
2113.255 -143546 -135298 -133145 -136126 -141989 -148613 -154509 -160372 
2117.113 -167460 -176866 -188558 -200778 -211178 -217437 -219159 -217139 
2120.970 -213496 -210416 -208528 -207932 -207303 -206044 -205084 -206508 
2124.828 -213032 -227074 -249460 -279726 -316016 -357038 -402027 -451481 
2128.685 -506357 -566123 -629388 -692776 -751889 -803055 -844626 -876173 
2132.542 -898559 -912281 -916282 -909140 -889731 -858713 -820749 -782285 
2136.400 -752319 -737335 -740212 -759926 -791546 -828851 -865592 -898361 
2140.257 -925738 -947725 -965313 -979959 -992620 -1005116 -1019165 -1036520 
2144.115 -1056584 -1077737 -1094957 -1104013 -1101402 -1086694 -1064583 
2147.490 -1042007 -1027033 -1025545 -1039924 -1068912 -1109301 -1157517 
2150.865 -1211577 -1270420 -1333814 -1401261 -1471241 -1542067 -1613410 
2154.240 -1687811 -1767248 -1852543 -1937624 -2007484 -2039936 -2009001 
2157.616 -1893881 -1689329 -1411533 -1093305 -775174 -496560 -281283 -137219 
2161.473 -59007 -31774 -39228 -65732 -99788 -132416 -156894 -168851 -167228 
2165.813 -155536 -140035 -129369 -131522 -149640 -182762 -226445 -274461 
2169.670 -322572 -370313 -419837 -474021 -534255 -596764 -654268 -698268 
2173.528 -722085 -723673 -707365 -680999 -654897 -636369 -630182 -637263 
2177.385 -656022 -683745 -717587 -755196 -793199 -828025 -856068 -873958 
2181.242 -881365 -879844 -872833 -863310 -853092 -841352 -826073 -805899 
2185.100 -780598 -752881 -726055 -702866 -682951 -663664 -639943 -608411 
2188.957 -567612 -521647 -476040 -437811 -410734 -394943 -386138 -378457 
2192.815 -366804 -348496 -324658 -298402 -273004 -250156 -229591 -209356 
2196.672 -187895 -164909 -141790 -120756 -103995 -92235 -84384 -79315 -75008 
2201.012 -70934 -67356 -65236 -64308 -64142 -62685 -58444 -50791 -40487 
2205.351 -29057 -18289 -8846 331 10536 23028 37940 53315 66770 75552 79164 
2210.655 78799 77673 78435 82445 88410 93017 92752 84433 67532 44435 18986 
2215.959 -4572 -23027 -34623 -39659 -38731 -33199 -24916 -15175 -6726 -1756 
2220.781 -2418 -9774 -23093 -39560 -55495 -67820 -74346 -75737 -74147 -72623 
2225.603 -74379 -80640 -91307 -104657 -118802 -131422 -140896 -146494 
2229.460 -147951 -145235 -139703 -132681 -126288 -121949 -120524 -120922 
2233.318 -120823 -116715 -106214 -87730 -62585 -33762 -4970 20013 39232 
2237.657 52122 59943 63655 64417 63290 60772 58220 57756 61169 70581 86521 
2242.961 107964 132490 157481 181148 202695 222983 242708 262733 282460 
2247.301 301193 317407 331102 342873 355010 369038 385486 403329 420077 
2251.640 433078 440873 443991 444554 445748 449264 454704 459812 460641 
2255.980 454273 439513 418286 394573 373083 357729 350036 349539 353850 
2260.320 359785 365224 368606 369303 367413 363599 358127 351992 346455 
2264.659 342906 342674 346355 353352 362140 370497 376300 378257 376101 
2268.999 370265 361841 352357 342741 334252 328084 325531 327985 336009 
2273.338 349141 365721 383463 399946 413378 423924 432382 440873 451387 
2277.678 464655 481140 499584 519388 540255 561819 584878 610127 637635 
2282.018 667036 696903 725943 752263 774967 792991 806070 814203 817655 
2286.357 816925 812709 806203 798103 789306 780311 771946 764511 758968 
2290.697 756279 757773 763681 774303 788410 804643 820975 836013 848994 
2295.036 860415 870607 880268 889332 897500 903942 908557 911479 913936 
2299.376 917289 922801 930571 939736 948702 955609 959228 959494 957269 
2303.716 954015 950993 948967 947573 946112 943156 938375 931401 923100 
2308.055 914334 906897 902315 901717 905834 914633 926919 940799 953583 
2312.395 962881 966966 965671 960357 953815 948967 947938 951757 959560 
2316.734 969390 979153 987323 994297 1001370 1011035 1025748 1047469 1076300 
2321.074 1111012 1148618 1184632 1213372 1228856 1225732 1200114 1150910 
2324.931 1079987 992769 896471 799431 709448 631629 568819 521279 487144 
2329.271 463958 449861 443858 445682 455235 471919 494641 521776 551501 
2333.611 582422 613711 644471 674071 701417 725678 745990 762453 775398 
2337.950 786153 795879 805306 814601 823531 831598 839034 846504 854571 
2342.290 864100 874159 883788 890926 895176 897268 900455 909354 929542 
2346.629 964641 1016116 1082611 1160112 1243775 1327454 1406030 1474712 
2350.487 1530005 1570374 1595847 1608518 1611943 1610480 1607986 1607021 
2354.344 1608518 1611511 1614437 1615868 1615136 1613007 1611677 1613307 
2358.202 1620124 1632430 1649858 1670247 1691535 1711427 1729124 1744560 
2362.059 1758666 1773138 1789141 1807673 1828868 1851461 1873790 1894023 
2365.917 1910896 1923775 1933826 1943245 1953763 1967509 1984551 2004190 
2369.774 2024130 2042106 2056854 2068539 2078294 2088748 2101933 2119313 
2373.631 2141455 2167728 2197299 2229937 2265774 2305511 2350050 2400023 
2377.489 2455234 2514918 2578476 2645077 2714656 2787347 2862952 2941172 
2381.346 3020641 3099524 3175717 3247751 3314355 3375559 3432030 3484232 
2385.204 3532934 3578400 3620430 3659222 3694475 3726390 3754630 3778661 
2389.061 3797446 3809780 3814961 3812621 3803630 3789557 3772745 3755466 
2392.918 3739056 3724351 3711184 3699154 3687658 3676531 3666038 3656549 
2396.776 3648496 3642214 3637837 3635431 3635231 3637603 3643083 3652305 
2400.633 3665838 3684183 3707909 3737151 3772244 3812855 3858785 3909300 
2404.491 3963366 4020114 4078842 4139318 4201508 4265682 4332041 4400652 
2408.348 4471718 4545239 4622055 4703138 4789664 4882373 4980933 5083840 
2412.206 5188347 5290968 5388614 5478532 5559775 5631702 5694744 5749167 
2416.063 5794832 5831704 5859880 5879662 5892693 5900552 5905557 5909386 
2419.920 5912812 5916204 5918589 5919227 5917480 5912745 5904952 5894440 
2423.778 5881475 5867000 5851920 5837816 5826633 5819984 5819782 5826868 
2427.635 5841812 5864918 5896354 5936056 5984495 6041978 6108003 6181500 
2431.493 6260758 6343357 6427588 6512271 6597342 6684044 6773893 6868406 
2435.350 6968361 7074266 7185385 7301721 7422705 7548478 7679413 7815886 
2439.208 7958612 8107664 8262879 8423926 8589935 8760232 8933674 9109756 
2443.065 9287840 9468367 9652019 9840323 10034779 10236378 10445266 10660809 
2446.922 10881418 11105063 11329572 11553448 11774954 11992384 12204743 
2450.298 12410591 12609101 12800262 12985157 13165248 13342474 13517858 
2453.673 13691091 13860391 14022330 14172964 14308890 14427048 14525915 
2457.048 14604447 14661849 14697322 14709318 14696602 14657668 14592111 
2460.423 14500116 14382795 14241777 14078525 13894565 13691570 13471340 
2463.799 13236634 12990654 12737544 12481241 12225395 11972935 11725558 
2467.174 11484718 11251186 11026480 10812624 10611912 10426871 10259787 
2470.549 10111962 9984123 9875743 9785724 9712326 9653001 9605471 9566924 
2474.406 9535525 9509142 9486790 9467520 9451062 9436874 9424108 9411986 
2478.264 9399594 9385780 9370307 9352973 9334115 9314277 9294000 9273522 
2482.121 9252840 9232295 9211649 9191208 9170835 9150497 9130059 9109485 
2485.979 9088947 9069188 9051189 9036168 9024835 9018239 9015735 9016682 
2489.836 9019997 9024226 9028083 9030485 9030924 9028387 9022467 9012927 
2493.694 8999937 8984004 8966111 8947406 8929039 8911351 8894339 8877329 
2497.551 8859878 8841482 8822140 8802190 8781971 8761482 8740386 8718005 
2501.408 8694004 8668212 8641239 8614167 8588143 8564183 8542656 8523462 
2505.266 8506297 8490889 8477611 8466732 8458792 8453589 8450278 8447305 
2509.123 8443082 8435987 8425311 8411494 8395313 8377849 8360013 8341976 
2512.981 8323636 8304249 8283614 8261866 8239477 8217257 8196220 8177009 
2516.838 8160499 8147230 8137609 8132308 8130687 8132511 8136359 8141120 
2520.696 8145373 8148749 8151248 8153442 8156481 8160735 8166508 8173464 
2524.553 8181364 8189941 8199733 8211314 8225227 8241705 8260109 8278852 
2528.410 8296245 8311004 8322420 8331033 8337856 8344273 8351434 8359777 
2532.268 8369269 8380146 8392442 8406663 8423521 8443150 8465076 8488153 
2536.125 8510555 8530356 8546711 8559654 8570671 8581654 8594902 8612138 
2539.983 8633972 8660370 8690218 8722570 8756275 8790492 8824406 8857782 
2543.840 8889875 8920043 8947643 8972064 8993104 9011033 9026154 9039924 
2547.698 9053287 9067598 9083432 9100688 9119061 9137435 9154660 9169820 
2551.555 9183018 9194355 9205016 9216015 9228268 9241873 9256597 9271524 
2555.412 9285639 9297961 9307880 9314921 9318983 9319965 9317663 9312111 
2559.270 9303208 9291563 9277550 9261844 9244649 9226270 9206877 9186639 
2563.127 9166165 9146571 9128705 9113410 9100857 9090639 9081605 9072910 
2566.985 9063876 9054978 9046893 9040939 9037589 9036540 9036913 9037149 
2570.842 9036067 9033428 9029639 9026391 9025140 9026899 9031736 9038705 
2574.699 9046758 9055148 9063876 9073688 9085699 9100621 9118486 9138450 
2578.557 9158957 9178787 9197435 9215203 9233446 9253483 9276838 9303716 
2582.414 9333506 9365364 9398037 9430440 9462305 9493461 9524077 9554763 
2586.272 9585790 9617735 9651442 9687321 9726456 9769017 9814938 9863405 
2590.129 9913098 9962525 10010161 10054954 10096394 10134786 10170875 
2593.504 10205983 10241128 10277666 10316582 10358048 10401960 10447642 
2596.880 10493465 10538307 10580642 10619484 10654798 10686752 10716400 
2600.255 10745404 10775260 10807665 10843810 10884917 10931194 10982403 
2603.630 11037866 11096157 11155918 11216164 11276349 11336952 11398753 
2607.005 11462775 11530071 11600613 11673854 11748230 11822279 11894195 
2610.381 11962752 12027503 12088381 12145757 12199937 12251774 12301230 
2613.756 12348612 12393885 12436538 12476058 12511590 12542182 12567216 
2617.131 12586555 12600471 12610397 12617833 12624553 12632126 12641609 
2620.506 12653275 12666853 12682068 12698410 12715947 12734985 12756038 
2623.882 12779651 12806166 12835617 12867562 12901762 12937569 12974847 
2627.257 13013665 13054535 13098003 13144789 13195133 13249137 13306052 
2630.632 13365162 13425202 13485455 13545375 13604859 13664351 13724467 
2634.007 13785514 13847767 13911124 13975004 14039166 14103237 14167075 
2637.383 14231130 14295228 14359746 14424548 14489359 14553975 14618189 
2640.758 14682275 14746303 14810648 14875448 14940499 15005422 15070149 
2644.133 15133787 15196372 15258072 15318958 15379578 15440172 15501049 
2647.508 15562244 15624065 15686376 15749659 15814325 15880788 15949460 
2650.884 16020345 16093887 16169714 16247546 16327010 16407626 16488668 
2654.259 16569624 16650110 16729889 16809444 16889010 16969352 17051016 
2657.634 17134626 17219940 17306514 17393208 17479194 17563060 17644214 
2661.009 17722210 17797214 17869748 17940530 18010394 18079992 18149740 
2664.385 18219912 18290580 18361398 18432330 18503242 18574060 18644922 
2667.760 18716144 18788138 18861182 18935694 19011946 19089668 19169032 
2671.135 19249240 19330088 19410570 19489990 19567936 19643746 19717282 
2674.510 19788646 19857836 19925336 19991078 20055128 20117732 20178818 
2677.885 20238660 20297680 20356602 20415986 20476522 20538978 20604012 
2681.261 20672360 20744436 20821218 20903226 20991268 21085726 21186780 
2684.636 21294540 21408766 21529360 21656358 21789458 21928628 22073486 
2688.011 22223418 22377552 22534778 22694224 22854986 23016646 23179346 
2691.386 23342944 23508284 23675718 23846156 24020090 24198438 24381734 
2694.762 24570470 24764622 24963876 25167506 25374782 25585002 25797432 
2698.137 26012042 26228520 26446970 26667222 26889278 27112752 27337364 
2701.512 27562870 27788740 28014516 28239594 28463482 28685184 28904062 
2704.887 29119256 29329880 29534752 29732518 29921536 30099948 30265570 
2708.263 30416972 30553280 30674128 30779858 30871276 30949122 31014062 
2711.638 31066484 31106348 31133686 31148494 31150486 31139844 31116458 
2715.013 31080116 31030432 30967516 30891270 30802230 30701650 30590962 
2718.388 30471844 30345936 30214842 30079420 29940420 29798130 29652940 
2721.764 29505564 29357140 29209582 29065332 28927292 28797938 28679698 
2725.139 28573878 28481384 28401506 28333982 28277432 28231286 28195114 
2728.514 28168810 28152618 28146890 28151382 28166016 28189988 28222586 
2731.889 28263004 28310356 28363656 28422094 28485028 28551478 28621122 
2735.265 28693396 28768446 28846446 28927648 29011946 29099450 29189310 
2738.640 29280466 29371498 29461060 29547910 29631016 29709952 29784288 
2742.015 29854522 29921394 29985756 30049132 30112730 30177796 30245002 
2745.390 30314422 30385840 30458588 30531844 30605184 30678396 30751404 
2748.766 30824390 30897602 30970648 31043492 31115568 31187048 31257722 
2752.141 31328194 31399030 31471022 31544842 31621132 31700504 31783168 
2755.516 31869628 31959742 32053408 32149982 32248716 32348622 32448404 
2758.891 32547530 32645002 32740350 32832504 32920494 33002570 33076756 
2762.267 33141196 33193838 33233468 33259366 33271492 33270742 33257720 
2765.642 33233826 33199810 33156928 33106040 33048116 32983982 32914740 
2769.017 32841794 32767038 32692370 32619998 32552172 32490466 32436122 
2772.392 32389458 32349940 32316566 32288086 32263170 32240830 32220598 
2775.768 32202218 32185770 32171104 32157760 32144916 32131142 32114624 
2779.143 32093216 32064606 32026940 31978856 31919834 31850052 31770762 
2782.518 31683966 31591840 31497174 31402096 31308786 31218698 31132866 
2785.893 31052176 30976734 30906390 30840576 30778222 30718186 30659122 
2789.269 30599780 30539630 30478100 30415798 30353362 30292214 30233456 
2792.644 30178044 30126972 30080664 30039296 30002620 29970278 29940988 
2796.019 29913548 29886288 29857504 29825704 29789968 29749974 29705870 
2799.394 29658544 29609094 29558266 29506522 29453860 29399966 29343952 
2802.770 29285782 29225104 29162202 29097324 29031076 28963986 28896376 
2806.145 28828566 28760762 28693396 28627244 28563014 28501234 28442434 
2809.520 28386896 28334408 28284966 28238428 28195292 28155942 28121474 
2812.895 28092558 28069794 28053394 28042896 28037736 28037240 28040528 
2816.271 28047598 28058800 28074850 28097082 28127130 28166406 28216646 
2819.646 28278776 28353470 28441230 28541394 28653046 28775208 28906432 
2823.021 29045458 29191154 29342570 29498648 29658686 29821374 29985756 
2826.396 30150094 30313142 30472982 30627868 30776372 30916778 31047906 
2829.771 31168714 31279088 31379014 31469062 31550080 31623058 31688672 
2833.147 31747804 31801100 31849838 31895194 31939842 31986062 32036390 
2836.522 32093362 32158508 32232910 32317064 32411058 32515604 32631856 
2839.897 32761752 32908198 33075004 33266414 33487074 33742400 34037836 
2843.272 34379660 34774988 35230964 35755308 36355140 37035252 37796560 
2846.648 38634024 39534436 40473484 41418100 42326684 43150504 43842520 
2850.023 44360744 44672712 44761444 44626112 44281668 43754380 43080612 
2853.398 42302176 41459328 40592176 39736480 38919832 38164260 37484220 
2856.773 36886216 36371356 35935196 35570456 35267548 35016460 34808156 
2860.149 34634048 34487336 34362520 34255700 34164284 34086648 34022392 
2863.524 33972192 33937008 33918452 33918092 33937688 33978928 34043212 
2866.899 34131232 34243440 34379376 34538136 34717664 34915400 35127632 
2870.274 35349780 35576360 35800856 36016508 36216892 36396428 36551784 
2873.650 36682352 36790532 36880660 36959376 37033628 37109916 37193400 
2877.025 37287800 37395552 37517924 37655248 37807912 37975776 38158616 
2880.400 38355752 38566448 38789312 39022620 39263996 39511100 39760588 
2883.775 40008628 40251608 40485012 40705008 40908584 41093204 41258372 
2887.151 41404728 41534828 41652756 41763784 41874144 41990520 42119780 
2890.526 42269232 42446724 42660476 42920820 43240464 43633244 44116264 
2893.901 44707636 45424508 46282908 47292800 48455192 49757572 51171400 
2897.276 52649724 54123944 55515748 56736636 57699596 58336868 58602800 
2900.652 58484504 58001640 57204224 56163244 54955128 53659964 52348500 
2904.027 51075308 49883812 48802928 47849744 47033848 46358740 45823948 
2907.402 45426240 45161708 45025992 45014856 45125200 45353592 45696564 
2910.777 46149200 46704684 47352652 48080388 48870928 49703292 50555196 
2914.153 51399636 52208840 52956780 53618948 54176228 54617544 54939148 
2917.528 55144880 55244096 55250304 55176520 55034104 54830676 54568924 
2920.903 54247968 53863852 53412812 52893112 52308172 51666612 50983860 
2924.278 50280232 49576884 48896292 48257088 47672992 47153164 46701732 
2927.654 46318592 46001168 45744200 45541364 45384376 45264036 45170128 
2931.029 45091344 45017612 44938820 44845864 44731180 44588400 44412124 
2934.404 44198760 43945972 43653428 43322720 42956956 42561060 42140444 
2937.779 41701844 41252396 40799300 40350388 39913488 39495568 39102884 
2941.155 38740152 38410044 38113432 37848580 37612540 37399308 37201704 
2944.530 37010680 36815632 36606684 36374920 36114548 35823924 35506308 
2947.905 35169344 34822948 34479088 34149048 33841180 33561380 33312168 
2951.280 33093240 32901872 32734350 32585994 32451722 32326740 32206788 
2954.656 32087796 31967018 31842456 31712764 31577408 31436254 31289592 
2958.031 31138242 30983422 30826738 30670146 30515530 30364412 30218182 
2961.406 30077326 29942514 29814312 29694058 29582880 29482938 29396066 
2964.781 29323640 29266854 29226132 29201538 29193210 29201358 29225990 
2968.156 29266820 29323144 29393266 29474996 29565750 29663192 29765802 
2971.532 29873332 29986536 30106944 30236086 30374008 30519084 30666518 
2974.907 30809166 30936810 31038084 31101686 31117062 31077588 30980220 
2978.282 30827130 30624278 30381504 30111312 29826696 29540354 29263914 
2981.657 29006348 28773756 28569738 28394570 28245820 28118894 28008330 
2985.033 27907902 27812266 27717886 27623036 27528060 27434838 27346080 
2988.408 27264152 27190066 27122804 27058830 26992962 26917902 26826924 
2991.783 26714788 26578762 26419750 26242632 26055138 25866038 25684366 
2995.158 25517002 25367580 25236892 25122848 25022418 24931696 24848114 
2998.534 24770128 24697170 24629942 24568822 24514058 24465646 24422918 
3001.909 24384994 24351070 24320686 24293494 24269598 24249066 24232002 
3005.284 24218830 24209580 24204464 24203764 24207514 24215782 24228780 
3008.659 24246438 24268440 24294404 24323768 24355448 24388534 24421866 
3012.035 24454570 24486362 24517108 24546804 24576010 24605254 24635026 
3015.410 24666342 24700326 24738068 24780862 24829662 24884464 24944610 
3018.785 25008518 25073912 25138400 25200162 25258278 25312468 25363716 
3022.160 25412862 25461344 25510078 25559346 25609708 25661200 25714000 
3025.536 25768424 25824860 25883622 25945136 26009616 26076742 26145814 
3028.911 26216060 26285964 26354084 26418906 26479474 26535368 26586864 
3032.286 26634880 26680822 26725570 26770006 26814484 26859350 26904682 
3035.661 26951006 26998920 27049238 27102560 27159096 27218782 27281368 
3039.037 27346434 27414050 27484006 27556620 27631720 27708846 27786904 
3042.412 27865012 27942318 28018722 28094680 28171180 28248966 28328820 
3045.787 28410560 28493732 28577700 28661860 28746356 28831396 28917378 
3049.162 29004294 29091834 29179318 29265898 29351220 29435316 29519040 
3052.538 29602888 29687530 29772792 29858106 29942728 30025946 30107758 
3055.913 30188700 30269336 30350448 30432464 30515386 30599354 30684548 
3059.288 30771642 30861278 30954352 31050860 31150274 31251240 31352088 
3062.663 31451822 31549830 31646862 31744026 31842704 31943514 32046270 
3066.039 32150264 32254286 32357472 32459866 32561530 32663182 32765538 
3069.414 32868668 32972754 33077616 33183218 33289880 33397858 33507620 
3072.789 33618372 33729904 33840788 33950120 34057800 34164248 34270900 
3076.164 34379340 34490496 34604908 34721900 34839892 34957200 35072344 
3079.540 35184400 35293352 35399456 35503612 35606420 35708828 35811292 
3082.915 35914428 36018740 36124628 36231948 36341020 36451776 36564404 
3086.290 36679328 36796988 36917780 37041856 37168352 37296216 37423976 
3089.665 37550328 37674692 37797392 37919728 38043116 38169032 38297884 
3093.041 38429700 38563372 38697772 38831956 38966004 39100060 39235384 
3096.416 39372528 39511972 39653236 39794832 39935464 40073628 40208352 
3099.791 40339804 40468900 40596832 40725384 40855976 40989156 41125332 
3103.166 41263948 41404216 41545624 41687440 41829340 41971540 42114336 
3106.542 42257836 42402408 42547904 42693668 42839408 42984280 43127628 
3109.917 43269308 43409124 43546792 43682924 43817964 43952128 44086336 
3113.292 44220912 44356084 44491480 44627068 44762072 44896344 45029924 
3116.667 45162700 45295296 45428520 45562188 45696380 45830648 45964072 
3120.042 46096032 46226004 46354388 46481668 46609132 46737596 46867536 
3123.418 46998844 47130600 47261176 47389420 47514604 47636236 47755904 
3126.793 47875568 47997780 48124804 48258012 48397148 48541000 48686676 
3130.168 48831256 48972504 49108900 49240740 49369908 49499044 49630964 
3133.543 49767716 49910092 50057712 50208736 50360700 50511828 50660180 
3136.919 50805640 50948688 51090740 51233624 51378900 51527544 51679680 
3140.294 51834176 51989328 52143528 52295236 52443828 52589732 52733932 
3143.669 52877956 53023000 53169548 53317764 53466924 53616364 53765288 
3147.044 53913368 54060672 54207048 54352908 54498260 54643168 54788388 
3150.420 54934976 55083980 55236196 55392228 55551252 55712336 55873740 
3153.795 56034036 56192508 56349300 56504752 56659696 56814164 56967628 
3157.170 57118844 57266784 57410956 57551468 57689984 57827708 57966312 
3160.545 58106740 58248992 58392808 58537848 58683504 58830084 58977392 
3163.921 59125092 59272656 59418976 59563104 59704432 59842948 59979036 
3167.296 60113420 60246128 60376940 60504816 60629340 60750056 60868244 
3170.671 60985708 61104684 61227020 61353316 61482896 61613692 61743544 
3174.046 61869992 61991236 62106632 62215860 62319156 62416964 62510312 
3177.422 62600592 62690036 62780692 62874584 62972672 63074528 63178680 
3180.797 63283124 63385784 63485408 63581908 63676080 63768940 63861588 
3184.172 63954368 64047396 64140104 64232364 64323960 64414724 64504704 
3187.547 64593048 64678832 64760940 64838908 64912932 64984232 65054432 
3190.923 65125136 65197556 65272100 65348276 65425232 65502048 65577760 
3194.298 65651992 65724300 65794072 65861164 65925560 65987348 66047832 
3197.673 66108444 66170328 66234312 66300468 66367520 66433960 66498524 
3201.048 66560200 66619292 66676432 66732368 66787356 66841692 66894716 
3204.424 66945972 66995264 67042628 67088524 67133688 67178008 67222224 
3207.799 67266704 67311976 67359016 67408968 67462264 67518312 67575680 
3211.174 67631696 67683624 67729744 67769672 67804680 67837264 67870296 
3214.549 67905904 67945152 67987464 68031520 68075472 68118224 68158536 
3217.925 68196872 68233864 68270776 68308616 68348944 68392536 68440208 
3221.300 68491688 68546152 68602224 68658224 68712672 68765264 68816160 
3224.675 68866480 68917272 68969504 69023224 69077800 69132384 69186272 
3228.050 69238960 69290880 69341680 69391712 69440584 69488288 69534912 
3231.426 69581616 69630544 69683920 69743904 69811024 69883952 69959888 
3234.801 70035528 70107632 70174888 70237632 70297536 70356720 70416992 
3238.176 70478720 70541856 70605592 70669216 70733088 70797784 70863824 
3241.551 70931504 70999856 71067520 71132928 71195584 71255664 71315240 
3244.927 71376752 71442672 71514424 71592096 71674624 71760488 71847504 
3248.302 71934192 72019368 72102408 72182376 72258984 72331576 72399608 
3251.677 72462752 72521368 72575640 72626824 72676256 72725064 72774704 
3255.052 72826224 72880176 72936104 72993328 73050208 73105216 73157016 
3258.427 73204624 73247928 73287184 73322648 73354928 73384312 73410800 
3261.803 73434696 73456232 73476176 73494456 73511488 73526480 73538688 
3265.178 73547208 73551480 73551560 73548424 73543008 73536496 73529424 
3268.553 73521304 73511488 73499128 73483312 73464040 73441128 73415080 
3271.928 73385928 73353832 73319192 73282240 73244240 73206472 73169800 
3275.304 73134624 73100360 73065576 73028496 72988080 72944296 72898560 
3278.679 72852600 72808232 72766080 72726120 72686752 72646568 72604536 
3282.054 72561072 72516864 72473552 72432448 72393928 72357568 72322696 
3285.429 72288256 72254128 72221064 72189488 72160616 72134640 72111600 
3288.805 72091104 72072400 72055192 72039504 72025472 72012952 72002312 
3292.180 71993792 71987920 71985464 71987688 71995080 72007864 72025272 
3295.555 72045648 72067512 72090048 72113048 72137616 72165504 72198056 
3298.930 72235776 72278080 72323712 72371664 72421568 72474144 72531040 
3302.306 72594008 72664032 72740696 72822616 72908008 72994904 73082480 
3305.681 73170312 73258584 73347952 73437712 73527736 73617504 73707368 
3309.056 73797920 73890920 73987440 74088616 74194032 74302728 74413376 
3312.431 74525200 74638072 74752424 74869096 74988480 75110016 75233016 
3315.807 75356192 75478976 75601176 75723320 75846008 75969248 76092216 
3319.182 76213584 76331840 76445928 76555584 76660808 76762168 76859536 
3322.557 76952560 77040272 77122136 77198520 77270992 77341464 77411712 
3325.932 77482632 77553456 77621912 77685504 77742048 77790160 77829960 
3329.308 77861984 77887360 77906424 77919352 77925928 77926288 77920576 
3332.683 77909080 77891680 77866624 77831816 77784536 77722632 77645920 
3336.058 77556072 77456616 77351168 77242456 77131592 77017080 76896632 
3339.433 76767824 76628592 76479280 76321328 76156248 75985704 75809952 
3342.809 75628064 75438776 75240536 75032072 74813312 74584400 74345976 
3346.184 74098952 73844768 73584920 73321232 73055896 72790408 72526144 
3349.559 72263720 72003288 71744512 71487672 71232584 70979176 70727472 
3352.934 70476504 70225360 69973272 69720440 69467952 69218600 68975296 
3356.310 68740936 68517216 68304160 68100352 67904424 67714448 67529456 
3359.685 67349656 67174992 67005472 66840568 66679052 66519068 66359832 
3363.060 66201316 66043512 65888232 65736712 65590480 65450272 65317116 
3366.435 65191544 65074564 64966188 64866380 64773904 64686484 64601504 
3369.811 64516468 64429680 64340024 64246968 64150356 64049160 63941924 
3373.186 63826732 63702248 63567676 63423784 63271312 63111312 62943748 
3376.561 62767020 62578044 62374120 62152432 61911560 61651992 61374760 
3379.936 61081880 60774520 60453324 60118024 59768532 59404084 59024456 
3383.312 58630144 58221296 57798752 57363764 56918292 56464712 56006216 
3386.687 55546172 55086984 54630544 54177016 53725652 53275092 52824480 
3390.062 52372688 51920652 51469912 51021796 50578384 50141452 49711724 
3393.437 49289396 48874004 48463604 48056624 47650916 47244364 46835944 
3396.813 46426024 46016196 45609076 45207444 44813460 44428200 44050800 
3400.188 43679772 43312612 42947704 42583460 42219600 41856084 41493232 
3403.563 41131084 40769824 40409148 40049064 39689864 39331972 38975900 
3406.938 38622108 38270596 37921432 37574568 37230076 36888416 36550344 
3410.313 36216460 35887688 35564128 35245984 34932960 34624824 34321460 
3413.689 34022716 33728616 33439476 33155140 32876212 32602816 32335128 
3417.064 32072634 31814824 31560198 31307038 31053600 30799278 30543824 
3420.439 30289266 30037840 29792630 29556068 29329914 29113834 28906824 
3423.814 28706494 28509902 28314920 28119174 27921012 27719654 27514964 
3427.190 27307266 27097940 26888538 26680998 26476974 26277656 26083180 
3430.565 25893118 25706512 25522448 25339934 25158658 24978512 24799490 
3433.940 24621980 24445806 24271138 24098468 23927722 23759842 23595212 
3437.315 23433964 23275610 23119654 22965082 22810810 22656626 22502114 
3440.691 22347586 22193324 22039394 21886112 21733512 21581450 21429686 
3444.066 21278150 21126110 20973046 20818158 20661554 20504032 20347540 
3447.441 20194646 20048364 19910802 19782368 19661948 19546966 19434304 
3450.816 19320942 19205186 19086380 18964836 18841770 18717458 18591972 
3454.192 18465518 18337928 18209132 18080580 17953446 17829218 17708646 
3457.567 17591972 17478090 17365516 17252726 17138554 17022104 16903066 
3460.942 16781478 16657719 16532792 16407728 16284112 16163694 16047608 
3464.317 15936606 15830269 15727052 15625061 15522820 15418989 15313535 
3467.693 15207181 15101161 14996641 14894788 14795940 14700200 14607669 
3471.068 14518137 14430988 14345773 14261466 14176592 14090812 14004055 
3474.443 13917112 13831724 13749876 13673139 13602021 13536043 13473322 
3477.818 13412113 13350606 13287774 13223347 13157597 13090935 13023976 
3481.194 12957027 12891078 12827051 12766650 12710965 12660610 12615172 
3484.569 12572536 12530655 12486901 12439709 12389283 12337703 12287118 
3487.944 12240867 12200722 12167361 12139794 12116625 12095978 12076593 
3491.319 12057958 12040346 12024199 12010539 11999571 11991771 11987309 
3494.695 11986423 11989352 11996506 12008428 12025834 12049441 12079864 
3498.070 12117579 12162965 12215409 12273962 12336919 12402477 12469374 
3501.445 12536691 12605178 12675791 12751056 12832716 12922993 13022883 
3504.820 13132460 13251358 13378453 13511740 13649169 13788831 13929087 
3508.196 14069592 14211272 14356561 14507928 14667983 14837561 15015643 
3511.571 15199014 15383595 15565815 15743338 15915707 16084122 16249988 
3514.946 16414542 16577264 16736226 16889114 17033714 17169334 17296306 
3518.321 17416108 17529456 17636312 17734256 17819344 17887424 17934694 
3521.697 17958452 17958696 17936732 17894572 17834704 17758728 17666922 
3525.072 17558850 17432766 17286480 17118632 16928386 16715704 16483231 
3528.447 16233651 15970532 15697198 15416517 15130357 14840099 14547328 
3531.822 14253351 13959949 13668659 13379581 13091891 12803811 12513398 
3535.198 12219567 11923279 11626885 11334844 11051053 10778521 10518278 
3538.573 10269353 10029828 9797246 9570175 9347962 9130938 8919468 8712969 
3542.430 8510454 8310126 8110060 7908839 7706563 7503336 7300676 7100805 
3546.288 6905706 6717592 6539012 6371399 6215951 6072587 5939650 5814812 
3550.145 5694946 5577160 5460043 5343328 5228085 5115857 5008383 4905796 
3554.002 4807454 4711780 4617634 4524011 4430844 4338667 4248015 4158954 
3557.860 4070882 3982259 3891982 3798983 3703364 3605963 3508783 3413695 
3561.717 3322435 3236635 3156092 3079769 3004793 2926895 2839806 2738163 
3565.575 2617342 2475894 2317337 2150013 1985017 1833227 1702080 1593685 
3569.432 1505267 1430895 1363716 1298540 1231780 1162338 1090982 1019172 
3573.290 947971 878243 810319 743700 678286 614275 551004 488139 425351 
3577.629 361709 296916 231569 166596 103721 44501 -9873 -59438 -103895 
3581.969 -144208 -180476 -213297 -242539 -269428 -295521 -323930 -358263 
3585.826 -402193 -457836 -524857 -600040 -677890 -751955 -817574 -871941 
3589.684 -915588 -950535 -980422 -1008753 -1037908 -1069937 -1105170 
3593.059 -1142878 -1181640 -1219540 -1254728 -1285816 -1312541 -1335301 
3596.434 -1355186 -1373881 -1392410 -1412061 -1433264 -1455984 -1479958 
3599.809 -1505054 -1530874 -1556825 -1582510 -1607138 -1629618 -1649160 
3603.185 -1665366 -1677909 -1687481 -1695699 -1704643 -1717020 -1735501 
3606.560 -1761803 -1796814 -1839181 -1885535 -1931290 -1971862 -2004416 
3609.935 -2028954 -2048576 -2068066 -2092534 -2125507 -2167182 -2213930 
3613.310 -2259025 -2295150 -2316803 -2322538 -2314925 -2300555 -2288096 
3616.686 -2284800 -2297259 -2327844 -2375200 -2434018 -2497078 -2556110 
3620.061 -2604067 -2637430 -2655279 -2659429 -2653172 -2640295 -2623993 
3623.436 -2606175 -2586874 -2565464 -2541319 -2514768 -2489105 -2470491 
3626.811 -2468086 -2491609 -2548270 -2637067 -2747018 -2858719 -2950876 
3630.187 -3009517 -3032221 -3026331 -3003429 -2976545 -2956141 -2947717 
3633.562 -2952324 -2966870 -2986022 -3003956 -3017579 -3025706 -3030082 
3636.937 -3033142 -3037387 -3044198 -3053838 -3065847 -3079435 -3093812 
3640.312 -3108616 -3123288 -3136841 -3147894 -3154309 -3154210 -3145986 
3643.688 -3129506 -3105853 -3077790 -3048639 -3022613 -3003890 -2995433 
3647.063 -2999941 -3018302 -3050449 -3094897 -3149013 -3208350 -3267187 
3650.438 -3318617 -3355970 -3374907 -3374513 -3357186 -3328778 -3297276 
3653.813 -3270837 -3256532 -3259163 -3278795 -3311153 -3348144 -3381121 
3657.188 -3403674 -3414194 -3414786 -3410315 -3406041 -3405055 -3408868 
3660.564 -3416561 -3425930 -3434083 -3439310 -3440263 -3436976 -3429711 
3663.939 -3418829 -3404562 -3386316 -3363663 -3336636 -3306056 -3273961 
3667.314 -3244002 -3220618 -3208350 -3209469 -3222296 -3239595 -3248310 
3670.689 -3235945 -3192103 -3114011 -3006983 -2882385 -2755875 -2645301 
3674.065 -2568297 -2539639 -2565168 -2639175 -2744220 -2860859 -2973056 
3677.440 -3074270 -3165229 -3248968 -3327528 -3400584 -3464128 -3514910 
3680.815 -3550274 -3571043 -3580048 -3581165 -3577419 -3569203 -3555663 
3684.190 -3534597 -3505313 -3469880 -3432867 -3400945 -3381647 -3380628 
3687.566 -3399729 -3436713 -3484934 -3535715 -3582184 -3619743 -3647147 
3690.941 -3665152 -3675009 -3677735 -3673957 -3664856 -3651779 -3637027 
3694.316 -3622668 -3610575 -3601342 -3594507 -3588263 -3580508 -3569860 
3697.691 -3555795 -3539889 -3524540 -3513431 -3509651 -3515535 -3531672 
3701.067 -3555860 -3584517 -3612547 -3635219 -3649512 -3653882 -3648789 
3704.442 -3635942 -3617279 -3594474 -3568940 -3541828 -3513793 -3486052 
3707.817 -3460742 -3439310 -3424122 -3417251 -3419651 -3431979 -3454004 
3711.192 -3483817 -3518821 -3555138 -3588066 -3613040 -3626709 -3627268 
3714.568 -3615274 -3593554 -3566081 -3537818 -3513431 -3495814 -3486479 
3717.943 -3484540 -3488156 -3495453 -3505017 -3516619 -3530850 -3547579 
3721.318 -3565818 -3583005 -3596018 -3601769 -3598680 -3588099 -3573048 
3724.693 -3557767 -3546198 -3540250 -3538442 -3537456 -3531771 -3516784 
3728.069 -3489865 -3451768 -3405515 -3356791 -3312041 -3276263 -3253769 
3731.444 -3245482 -3249922 -3263635 -3283136 -3306385 -3333776 -3366984 
3734.819 -3407751 -3454694 -3504130 -3548828 -3581987 -3599502 -3600619 
3738.194 -3587836 -3564536 -3533315 -3495255 -3450223 -3397921 -3340450 
3741.570 -3283202 -3235977 -3211673 -3222657 -3275606 -3364321 -3468500 
3744.945 -3558424 -3609820 -3614486 -3579127 -3518624 -3450223 -3389538 
3748.320 -3347388 -3329074 -3335157 -3361394 -3401767 -3450256 -3501895 
3751.695 -3552311 -3596215 -3628188 -3643500 -3640477 -3621057 -3590925 
3755.071 -3557307 -3526643 -3504130 -3492034 -3489306 -3493678 -3502125 
3758.446 -3512938 -3524902 -3537259 -3547940 -3553659 -3550734 -3536503 
3761.821 -3511394 -3478821 -3444832 -3415838 -3396902 -3389669 -3391313 
3765.196 -3396705 -3398842 -3393779 -3381581 -3366326 -3354556 -3352550 
3768.572 -3364288 -3389307 -3423399 -3458934 -3488419 -3506463 -3511295 
3771.947 -3504031 -3488517 -3468960 -3448613 -3430039 -3413800 -3399104 
3775.322 -3385034 -3370600 -3355641 -3341864 -3331967 -3329139 -3335420 
3778.697 -3350807 -3372179 -3393910 -3410052 -3415805 -3410315 -3395784 
3782.073 -3377176 -3360079 -3349492 -3346960 -3352156 -3362052 -3373066 
3785.448 -3381910 -3387401 -3389603 -3389669 -3388584 -3387138 -3385231 
3788.823 -3383028 -3380496 -3378359 -3377011 -3376716 -3375992 -3373428 
3792.198 -3367313 -3356561 -3342555 -3328317 -3318288 -3316381 -3324733 
3795.573 -3341272 -3360835 -3375696 -3378195 -3364748 -3336176 -3298164 
3798.949 -3259985 -3233116 -3226736 -3246403 -3290897 -3350248 -3408145 
3802.324 -3448415 -3460939 -3444372 -3405482 -3355739 -3309509 -3279289 
3805.699 -3273896 -3296060 -3340286 -3394272 -3442827 -3475008 -3486118 
3809.074 -3478624 -3458178 -3431617 -3403017 -3374053 -3342818 -3307339 
3812.450 -3266825 -3223348 -3182794 -3153223 -3143256 -3157861 -3195951 
3815.825 -3247488 -3297276 -3330981 -3339464 -3323385 -3290798 -3255611 
3819.200 -3231505 -3231143 -3260610 -3316743 -3386973 -3452820 -3497819 
3822.575 -3513596 -3502092 -3471984 -3436088 -3405647 -3387762 -3384836 
3825.951 -3393088 -3405482 -3413175 -3409625 -3393055 -3365504 -3332822 
3829.326 -3301190 -3275803 -3259525 -3251698 -3249593 -3249198 -3246173 
3832.701 -3237622 -3222559 -3201345 -3176117 -3150164 -3127334 -3112268 
3836.076 -3108682 -3119209 -3143848 -3179505 -3220520 -3259722 -3291423 
3839.452 -3312140 -3321544 -3322037 -3317532 -3311679 -3308029 -3308851 
3842.827 -3314902 -3325555 -3339168 -3352714 -3362644 -3366293 -3360934 
3846.202 -3346467 -3323451 -3293429 -3258374 -3219369 -3176216 -3128058 
3849.577 -3074599 -3016591 -2959235 -2911152 -2884262 -2892424 -2945182 
3852.953 -3041072 -3164275 -3288858 -3388781 -3448678 -3468105 -3455286 
3856.328 -3422577 -3381121 -3338445 -3299282 -3265115 -3236602 -3213284 
3859.703 -3195392 -3182432 -3174143 -3169637 -3167433 -3166348 -3166447 
3863.078 -3168387 -3173551 -3181906 -3191774 -3198780 -3197760 -3185064 
3866.454 -3160230 -3127795 -3096016 -3074697 -3072954 -3095095 -3138388 
3869.829 -3192366 -3241930 -3275409 -3287214 -3280900 -3264458 -3248277 
3873.204 -3239990 -3242522 -3252750 -3263570 -3266957 -3256433 -3230650 
3876.579 -3192662 -3149473 -3109241 -3079895 -3067229 -3073875 -3097529 
3879.955 -3131348 -3165986 -3190951 -3198780 -3187070 -3158947 -3122236 
3883.330 -3086936 -3063610 -3059892 -3078810 -3115656 -3159341 -3196411 
3886.705 -3214666 -3208811 -3180788 -3138552 -3092331 -3052654 -3028174 
3890.080 -3023403 -3037847 -3066933 -3102300 -3135723 -3160427 -3172959 
3893.456 -3172565 -3160657 -3139276 -3110623 -3077329 -3041335 -3005700 
3896.831 -2973122 -2946104 -2927246 -2917767 -2917274 -2924449 -2936955 
3900.206 -2952423 -2969042 -2986384 -3004976 -3026068 -3050219 -3076967 
3903.581 -3104405 -3128979 -3147072 -3155756 -3153651 -3141578 -3121512 
3906.957 -3096641 -3070190 -3044527 -3021790 -3003067 -2988720 -2979177 
3910.332 -2974175 -2973254 -2975459 -2979835 -2984574 -2988622 -2990859 
3913.707 -2991221 -2990366 -2989675 -2990168 -2993064 -2998099 -3004482 
3917.082 -3010734 -3015736 -3018336 -3018401 -3016098 -3011623 -3004680 
3920.458 -2994742 -2981382 -2964632 -2945479 -2925897 -2908453 -2895814 
3923.833 -2889495 -2889133 -2893149 -2898579 -2902463 -2902858 -2899567 
3927.208 -2893873 -2887586 -2883406 -2882748 -2886763 -2895551 -2908684 
3930.583 -2925271 -2944524 -2964994 -2984969 -3002409 -3015176 -3021593 
3933.958 -3021231 -3014815 -3004252 -2992143 -2980461 -2970029 -2960749 
3937.334 -2951007 -2938864 -2923330 -2903944 -2882287 -2861352 -2843709 
3940.709 -2831924 -2826888 -2827941 -2833076 -2839462 -2844400 -2846178 
3944.084 -2844762 -2840944 -2836204 -2832517 -2830805 -2831891 -2835479 
3947.459 -2840845 -2846441 -2851214 -2854045 -2854572 -2852629 -2848745 
3950.835 -2843445 -2837454 -2831068 -2824386 -2817900 -2811514 -2805555 
3954.210 -2800617 -2797062 -2795152 -2794658 -2794527 -2793309 -2789918 
3957.585 -2782708 -2771547 -2757192 -2740927 -2725090 -2711721 -2702765 
3960.960 -2698583 -2699406 -2704049 -2710733 -2717648 -2723048 -2725814 
3964.336 -2725617 -2722686 -2717484 -2711359 -2705333 -2700032 -2695751 
3967.711 -2692162 -2688506 -2683435 -2676619 -2667267 -2655773 -2643028 
3971.086 -2630217 -2618624 -2609370 -2602782 -2598863 -2597019 -2596656 
3974.461 -2596854 -2597084 -2596557 -2595273 -2592967 -2589575 -2585095 
3977.837 -2579891 -2574325 -2568824 -2563916 -2560029 -2556933 -2554726 
3981.212 -2552914 -2551366 -2549719 -2548171 -2546623 -2545437 -2544383 
3984.587 -2543230 -2541385 -2538520 -2534072 -2528571 -2522971 -2518392 
3987.962 -2516580 -2518392 -2524190 -2533216 -2543955 -2554133 -2561775 
3991.338 -2565794 -2565333 -2560952 -2553903 -2545404 -2536971 -2529856 
3994.713 -2524552 -2521522 -2520797 -2522049 -2524816 -2528571 -2532590 
3998.088 -2536279 -2539112 -2540858 -2541484 -2541221 -2540562 
##END=
