
##TITLE=Z189_3_b
##JCAMP-DX=5.01  $$ Nicolet v. 1
##DATATYPE=INFRARED SPECTRUM
##ORIGIN=UniL
##OWNER=Nicolet
##LONGDATE=2011/09/14
##TIME=16:59:20
##SPECTROMETER/DATA SYSTEM=Nicolet iS5
##DATA PROCESSING=
Ratio against background
%Transmittance->Absorbance
Truncated
ElementMultiply or ElementDivide
##COMMENTS=
Number of sample scans: 32
Collection length: 51.21 sec
Sample gain: 2.0
Background collected on: Mer Sep 14 16:54:19 2011 (GMT+02:00);
Number of background scans: 32
Background gain: 2.0
Sample spacing:  1.000
Number of scan points: 12415
Resolution points: 8192
Number of FFT points: 65536
Apodization: N-B fort;
Phase correction: Mertz;
Laser frequency: 15798.0 cm-1
Number of rejected sample scans: 0
Number of rejected background scans: 0
Bench serial number: ASB1000141;
##RESOLUTION=4.000
##XUNITS=1/CM
##YUNITS=ABSORBANCE
##FIRSTX=649.893372
##LASTX=4000.122314
##FIRSTY=0.104642
##MAXX=4000.122314
##MINX=649.893372
##MAXY=0.270573
##MINY=-0.003674
##XFACTOR=1.000000
##YFACTOR=1.000000E-009
##NPOINTS=6950
##DELTAX=0.482117
##ZPD=6100
##XYDATA=(X++(Y..Y))
649.893 104642432 103907920 103263328 102721040 102268152 101880080 
652.786 101539656 101248976 101028912 100910640 100916696 101048816 
655.679 101286968 101598136 101951936 102332944 102744584 103199448 
658.571 103706608 104259520 104835744 105407280 105956696 106486392 
661.464 107020680 107592224 108227688 108930744 109680848 110436896 
664.357 111156432 111805448 112359536 112802800 113122600 113309656 
667.250 113370048 113341832 113296880 113303984 113398224 113564792 
670.142 113755352 113907624 113966640 113900952 113705536 113405840 
673.035 113041568 112653320 112261744 111862024 111431536 110947968 
675.928 110404936 109817696 109216384 108629808 108072504 107538272 
678.820 107004952 106448584 105857792 105237360 104604272 103976240 
681.713 103360584 102749832 102129248 101484824 100814760 100132128 99460064 
685.088 98819912 98222280 97663176 97128872 96605744 96087576 95579896 
688.463 95095704 94648792 94245240 93882160 93551352 93246352 92969496 
691.838 92731800 92548440 92432160 92386376 92404416 92474104 92585584 
695.212 92737912 92941352 93212920 93566312 94008152 94531752 95121480 
698.587 95758560 96429632 97129992 97862880 98633832 99443736 100285456 
701.962 101145328 102006992 102856936 103688008 104497080 105280928 
704.855 106031976 106736488 107378840 107948304 108443776 108876376 
707.747 109263680 109623568 109966288 110292800 110598992 110884272 
710.640 111157928 111444048 111773808 112176584 112668656 113244456 
713.533 113875752 114514784 115108584 115605904 115965112 116162536 
716.425 116190896 116063232 115811080 115487872 115164392 114915360 
719.318 114815864 114922824 115263024 115830240 116584520 117459904 
722.211 118367024 119210168 119897368 120345160 120500064 120345896 
725.104 119914216 119279232 118547656 117837768 117243392 116823200 
727.996 116589632 116517824 116561728 116674976 116829312 117014640 
730.889 117234624 117495248 117794304 118118752 118451056 118775960 
733.782 119090152 119402704 119729624 120083696 120467480 120871528 
736.674 121280328 121680696 122068496 122450000 122837920 123242896 
739.567 123667240 124105576 124548816 124992464 125440720 125904592 
742.460 126392392 126902016 127411600 127884280 128273528 128539648 
745.352 128661992 128641728 128499480 128264624 127969208 127640216 
748.245 127300752 126975328 126688152 126463104 126317624 126255440 
751.138 126265112 126323072 126405344 126494888 126589384 126700264 
754.031 126844984 127036184 127274288 127545584 127827896 128099840 
756.923 128345920 128559128 128738328 128881232 128981112 129028288 
759.816 129015488 128944008 128827752 128690112 128555032 128439488 
762.709 128349216 128279088 128221032 128172352 128139496 128138392 
765.601 128187968 128301664 128483760 128728792 129025888 129362000 
768.494 129725008 130103248 130483104 130853816 131213216 131581056 
771.387 132003512 132551104 133300424 134295888 135518528 136855824 
774.279 138120544 139064528 139442000 139088176 137947536 136096336 
777.172 133700848 130978064 128125472 125272248 122477456 119731320 
780.065 116986224 114184744 111287800 108284528 105193072 102052800 98915272 
783.440 95839120 92877824 90079216 87481920 85109128 82972064 81069640 
786.815 79392608 77928152 76664640 75593992 74712320 74018168 73510504 
790.189 73187800 73048608 73093728 73328568 73763320 74410744 75281672 
793.564 76377936 77686224 79171136 80776904 82425240 84014472 85435216 
796.939 86568656 87298040 87532752 87213792 86332816 84934552 83116320 
800.314 81012576 78764376 76514648 74378808 72430144 70702632 69186080 
803.689 67838800 66597700 65400652 64201444 62980368 61750340 60549764 
807.063 59432124 58443448 57609616 56925508 56356996 55846760 55329712 
810.438 54752268 54078384 53296484 52415492 51458344 50452580 49423296 
813.813 48392744 47378632 46394976 45454936 44569604 43747160 42993756 
817.188 42312256 41703488 41166856 40700784 40302796 39968664 39693164 
820.563 39469080 39289496 39149984 39050208 38995040 38993840 39058076 
823.938 39198936 39423540 39734228 40126540 40589592 41104024 41642724 
827.312 42171732 42647316 43024524 43262096 43328100 43210340 42918624 
830.687 42486624 41962564 41405128 40875524 40423768 40088672 39891256 
834.062 39831328 39887880 40019052 40170772 40278256 40280220 40131952 
837.437 39810448 39322180 38698456 37991364 37258016 36550056 35908924 
840.812 35358336 34907248 34553420 34288220 34100588 33979216 33913828 
844.186 33895344 33915584 33968860 34051384 34161308 34297936 34459144 
847.561 34640144 34833216 35027880 35213608 35383208 35533312 35665624 
850.936 35785888 35901760 36020976 36150340 36296280 36464244 36659676 
854.311 36888132 37153876 37459948 37808596 38201016 38639492 39128264 
857.686 39673780 40284468 40970112 41739672 42602468 43567744 44644804 
861.060 45843944 47173368 48634640 50218036 51897200 53628584 55348188 
864.435 56983988 58461832 59713248 60690840 61372320 61766116 61911104 
867.810 61877208 61759548 61660436 61688964 61944920 62504076 63420868 
871.185 64718672 66389404 68390136 70643408 73040720 75432424 77645288 
874.560 79498680 80808992 81433432 81285736 80349112 78678872 76391096 
877.935 73647104 70615264 67465056 64348668 61380448 58647208 56203068 
881.309 54071968 52257828 50748396 49523032 48555044 47816488 47280900 
884.684 46920984 46711808 46629976 46653768 46766376 46957604 47225080 
888.059 47574640 48018360 48571532 49247572 50055480 50998392 52074976 
891.434 53281388 54614988 56076524 57670952 59407312 61295660 63344836 
894.809 65557884 67926048 70419368 72978992 75513952 77888192 79939456 
898.183 81496584 82392992 82512216 81803008 80293456 78084184 75335864 
901.558 72249832 69024112 65847664 62878988 60225804 57957108 56100768 
904.933 54652640 53586224 52862124 52438516 52272964 52330036 52583564 
908.308 53015284 53615800 54382880 55319812 56432944 57728544 59207752 
911.683 60861120 62661364 64556220 66473268 68319280 69989936 71394360 
915.058 72461536 73156696 73487552 73503288 73287144 72936416 72559424 
918.432 72252768 72085232 72096736 72286928 72620360 73028688 73428536 
921.807 73737368 73886920 73844768 73621464 73275456 72900328 72617656 
925.182 72560992 72844760 73558232 74746288 76400568 78454968 80784560 
928.557 83225432 85565568 87573248 89030256 89731536 89527808 88345344 
931.932 86192976 83170416 79452528 75282776 70922024 66620880 62604264 
935.306 59029504 55994756 53543716 51674564 50359216 49556976 49226860 
938.681 49326144 49806064 50608540 51650868 52824552 54008776 55066864 
942.056 55874116 56339300 56409360 56084292 55410332 54475120 53384524 
945.431 52244228 51151308 50174184 49353464 48705396 48226208 47900876 
948.806 47709080 47630948 47646808 47737524 47885188 48070724 48276268 
952.181 48487500 48694240 48892952 49085824 49279596 49482964 49704108 
955.555 49949900 50225176 50532528 50873508 51248500 51656688 52095672 
958.930 52561836 53051264 53560060 54086300 54630168 55193452 55778676 
962.305 56387404 57019540 57673560 58346908 59038464 59748420 60479188 
965.680 61233884 62015312 62824956 63662352 64526804 65417604 66335788 
969.055 67283456 68262784 69275104 70319584 71394240 72496888 73627312 
972.429 74788760 75986616 77228840 78522576 79872992 81283504 82756888 
975.804 84296528 85908472 87600928 89383072 91264416 93252464 95354056 
979.179 97576432 99929096 102424120 105076064 107898856 110902664 114092224 
982.554 117466064 121016072 124726200 128570352 132502672 136446624 
985.447 140296432 143903232 147087264 149669520 151477280 152382624 
988.339 152325216 151315328 149438672 146837776 143711280 140279776 
991.232 136762448 133374688 130289360 127632824 125487520 123885336 
994.125 122823144 122273768 122200792 122565376 123332320 124473168 
997.017 125960872 127768528 129870120 132236856 134837792 137641088 
999.910 140604528 143671376 146768224 149793040 152626752 155146416 
1002.803 157230032 158784736 159757008 160139136 159972416 159342960 
1005.695 158380112 157232272 156063952 155040768 154300000 153953088 
1008.588 154074640 154698992 155832320 157460224 159560176 162106256 
1011.481 165074416 168443568 172190224 176289728 180717552 185447760 
1014.374 190454576 195706800 201150240 206696880 212207888 217477696 
1017.266 222263616 226299376 229332144 231187248 231790112 231197664 
1020.159 229586048 227249296 224562272 221906416 219669232 218177536 
1023.052 217655072 218233872 219933776 222684672 226338048 230702976 
1025.945 235574240 240728912 245958304 251063968 255846496 260131392 
1028.838 263769632 266652464 268731616 270016960 270572992 270492672 
1031.731 269887616 268868864 267529808 265950912 264189280 262271280 
1034.624 260188992 257894608 255310112 252333200 248866368 244841952 
1037.517 240231616 235056944 229380448 223295264 216905408 210318560 
1040.410 203646384 196991328 190452160 184119376 178061920 172331072 
1043.303 166958688 161958736 157340304 153113056 149291328 145897952 
1046.196 142958544 140495040 138524272 137053184 136079152 135591392 
1049.089 135573184 136002272 136848416 138074880 139637808 141485344 
1051.982 143566880 145833280 148238304 150741424 153297408 155847600 
1054.875 158320896 160623200 162644272 164276928 165417616 165985472 
1057.768 165934288 165252816 163971744 162160896 159936304 157447520 
1060.661 154862992 152370576 150142864 148325200 147035856 146347536 
1063.554 146295936 146881504 148075280 149819200 152025424 154586816 
1066.448 157369776 160222032 162997712 165553424 167768288 169555600 
1069.341 170853280 171624432 171851216 171528480 170663728 169276144 
1072.234 167400272 165081872 162376048 159350272 156079296 152649168 
1075.127 149166544 145746432 142515664 139605968 137130368 135184176 
1078.020 133834752 133113232 133017672 133508440 134513616 135918400 
1080.913 137570000 139295168 140892976 142172576 142985616 143238464 
1083.806 142923136 142113376 140962576 139667616 138443136 137508640 
1086.699 137044304 137188208 138026016 139578272 141801216 144582368 
1089.592 147760976 151123264 154426176 157440224 159948992 161781728 
1092.485 162832512 163050416 162445008 161072320 159031920 156448288 
1095.378 153452304 150179104 146742672 143231008 139709584 136218416 
1098.271 132781848 129415352 126128328 122925992 119809032 116773384 
1101.164 113812024 110920712 108102376 105373744 102765872 100319936 
1104.057 98086616 96117136 94455848 93142656 92208152 91673728 91554864 
1107.433 91858976 92585176 93722936 95251064 97137624 99337016 101795424 
1110.808 104447096 107210776 109996464 112697520 115192648 117364768 
1113.701 119100096 120306208 120926600 120940160 120363120 119240424 
1116.594 117641928 115651912 113357488 110851384 108217392 105524120 
1119.487 102826872 100160168 97542880 94984848 92492264 90074448 87746728 
1122.862 85528648 83443448 81513848 79759104 78196328 76841456 75709392 
1126.238 74817448 74183576 73823408 73748632 73963752 74463720 75232776 
1129.613 76245136 77466000 78847608 80332800 81855216 83336696 84700856 
1132.988 85880128 86824488 87515760 87969912 88237904 88391720 88518368 
1136.363 88705160 89019440 89506600 90178464 91013024 91953472 92915000 
1139.739 93800280 94500904 94917560 94973384 94612784 93808992 92560248 
1143.114 90884088 88813568 86393128 83681304 80743296 77651592 74484360 
1146.489 71312824 68202416 65209680 62375876 59732104 57299072 55087624 
1149.864 53102036 51340448 49796924 48461644 47322800 46368768 45587216 
1153.240 44967960 44503120 44186136 44012116 43977060 44076984 44308452 
1156.615 44668304 45154688 45766804 46504492 47367880 48356480 49468072 
1159.990 50698684 52042852 53492820 55037300 56661128 58340584 60042952 
1163.365 61728528 63347176 64845024 66169948 67269344 68097872 68619344 
1166.740 68805680 68642784 68130472 67283848 66130856 64710020 63067408 
1170.116 61248232 59297836 57259640 55171368 53068824 50985092 48947320 
1173.491 46980496 45104984 43335712 41684524 40159284 38764640 37502752 
1176.866 36373732 35375768 34506172 33761456 33138260 32633536 32245326 
1180.241 31972758 31815574 31773758 31846556 32032040 32326988 32727238 
1183.617 33228710 33828072 34522528 35308840 36182460 37134780 38152392 
1186.992 39218012 40308792 41398856 42461960 43469404 44393884 45211120 
1190.367 45900396 46449216 46855688 47129932 47292576 47373680 47409376 
1193.742 47434584 47482372 47580076 47746104 47991416 48318408 48721632 
1197.118 49187932 49695860 50218444 50720096 51159808 51494680 51677476 
1200.493 51664112 51418136 50913220 50140936 49112612 47861844 46437492 
1203.868 44900056 43316092 41744592 40236628 38831452 37552096 36410480 
1207.243 35408372 34540648 33798092 33169948 32645360 32214172 31867560 
1210.619 31598896 31403698 31279620 31226460 31244760 31335316 31498026 
1213.994 31731692 32033608 32399956 32825284 33302936 33824348 34378264 
1217.369 34952712 35534604 36110984 36671864 37208600 37714844 38186040 
1220.744 38618816 39011240 39363788 39680896 39971572 40248808 40530260 
1224.120 40835228 41181976 41587516 42064180 42619028 43253200 43960816 
1227.495 44729308 45537608 46359696 47163872 47915676 48583724 49139804 
1230.870 49562548 49840216 49971164 49966108 49847204 49650800 49423964 
1234.245 49218732 49093136 49101740 49291104 49701620 50362304 51292604 
1237.621 52505032 54004536 55788848 57846220 60154672 62678360 65365484 
1240.996 68154616 70971296 73731440 76352024 78745072 80826264 82526240 
1244.371 83789264 84585448 84912680 84797104 84288128 83449792 82360432 
1247.746 81100984 79748872 78379280 77049880 75798392 74637320 73551640 
1251.122 72502096 71431856 70283784 69009504 67581640 66001660 64298564 
1254.497 62525584 60745328 59027420 57433988 56009384 54780044 53749012 
1257.872 52897492 52186456 51562840 50967576 50337336 49617960 48769264 
1261.247 47766780 46606108 45300152 43876724 42371612 40826456 39284344 
1264.623 37782356 36352944 35020696 33800600 32700442 31721104 30857472 
1267.998 30101296 29441982 28869746 28374976 27950022 27589104 27286378 
1271.373 27036720 26834854 26675432 26553718 26466302 26410278 26383730 
1274.748 26384292 26408940 26453696 26513918 26584222 26659788 26735402 
1278.124 26805706 26865626 26909864 26933554 26933660 26908102 26856390 
1281.499 26778324 26673634 26541108 26378660 26185088 25961036 25710872 
1284.874 25443672 25172142 24911520 24678618 24488642 24355238 24290304 
1288.249 24302990 24402028 24595050 24888254 25286126 25790118 26397742 
1291.625 27100620 27883524 28724052 29589336 30438898 31228382 31910456 
1295.000 32445584 32807526 32987088 32994312 32855734 32611604 32304682 
1298.375 31978216 31670884 31411358 31220336 31110228 31084102 31137850 
1301.750 31259678 31432442 31634178 31841386 32033574 32192122 32303826 
1305.125 32360434 32357544 32294902 32175672 32006678 31798210 31563084 
1308.501 31316478 31072890 30845378 30645254 30480624 30358266 30284114 
1311.876 30263510 30301274 30401122 30564300 30789816 31074778 31415950 
1315.251 31810582 32257248 32755784 33306122 33908132 34560308 35261008 
1318.626 36009020 36803728 37644916 38530820 39456012 40408092 41367916 
1322.002 42307620 43191636 43983260 44645244 45147628 45475464 45632812 
1325.377 45647240 45564988 45450704 45373968 45394716 45559172 45887028 
1328.752 46371272 46980312 47668112 48385408 49085900 49737920 50325952 
1332.127 50850564 51326168 51777472 52236044 52732736 53296448 53948632 
1335.503 54699800 55548164 56478748 57467720 58482304 59485052 60439540 
1338.878 61307600 62054912 62654480 63087216 63345796 63433944 63363628 
1342.253 63150860 62811480 62359508 61804812 61154536 60413836 59586896 
1345.628 58677284 57689416 56627796 55499780 54316560 53093796 51853664 
1349.004 50624736 49437480 48327776 47331520 46482184 45812532 45350244 
1352.379 45116708 45127812 45391440 45906692 46660928 47628952 48769304 
1355.754 50022020 51316624 52572980 53707428 54648128 55334416 55724692 
1359.129 55801660 55572680 55071000 54349604 53484424 52565576 51683896 
1362.505 50930396 50375476 50058272 49985028 50128256 50438216 50847732 
1365.880 51286864 51687888 51986788 52136356 52107288 51892460 51506392 
1369.255 50980472 50355496 49670152 48960372 48255828 47579776 46955092 
1372.630 46406112 45957884 45636604 45462660 45445260 45579856 45849244 
1376.006 46230424 46699332 47237644 47834504 48484908 49190012 49954472 
1379.381 50786904 51697852 52698428 53794732 54981076 56230824 57489396 
1382.756 58682060 59712524 60478612 60892072 60879264 60398756 59451160 
1386.131 58094164 56444792 54661208 52924924 51385576 50134020 49199696 
1389.507 48558712 48158156 47932548 47822040 47772400 47734120 47664336 
1392.882 47521996 47271408 46891084 46378828 45754912 45053004 44309632 
1396.257 43550052 42782952 42006432 41217348 40422024 39643756 38919216 
1399.632 38287460 37778960 37405232 37159904 37025760 36983328 37017572 
1403.008 37119696 37287440 37521640 37822624 38188136 38612548 39088092 
1406.383 39607132 40163244 40751588 41368572 42010448 42673160 43352996 
1409.758 44046804 44753364 45473292 46207536 46954688 47708788 48457012 
1413.133 49182180 49865712 50491844 51053880 51554856 52007296 52428684 
1416.509 52837988 53254004 53692696 54170036 54701640 55297604 55960648 
1419.884 56680724 57435612 58196292 58933556 59624184 60250848 60806840 
1423.259 61295884 61731472 62132512 62518084 62902348 63290024 63678152 
1426.634 64058072 64420184 64754596 65053388 65311028 65524824 65695392 
1430.010 65827312 65930844 66021100 66115884 66235200 66395664 66608056 
1433.385 66876860 67201648 67580048 68012608 68506352 69077016 69747400 
1436.760 70536176 71449824 72477944 73592224 74750688 75897976 76972856 
1440.135 77901672 78605640 79017448 79081400 78765256 78061184 76981392 
1443.510 75555192 73822584 71837272 69658472 67343544 64951828 62539780 
1446.886 60165784 57901224 55822232 53999884 52485964 51299132 50429320 
1450.261 49849880 49534060 49463320 49627656 50018080 50615132 51380580 
1453.636 52263924 53197412 54105480 54913656 55547824 55956540 56132360 
1457.011 56129308 56041428 55960268 55946776 56020316 56176556 56405628 
1460.387 56701184 57059968 57476232 57936928 58415132 58869388 59254652 
1463.762 59530648 59680176 59718608 59692300 59660064 59667480 59738228 
1467.137 59869416 60040856 60222300 60380744 60482804 60486384 60339968 
1470.512 59980180 59337304 58360856 57046136 55456220 53706044 51924460 
1473.888 50210036 48608516 47129196 45768168 44529548 43434320 42512932 
1477.263 41788260 41266648 40933048 40760468 40719820 40792060 40972408 
1480.638 41268324 41692328 42254296 42957616 43799492 44775700 45885700 
1484.013 47134624 48530480 50075636 51760784 53553388 55391248 57189712 
1487.389 58836152 60199808 61151484 61566844 61356216 60491488 59022292 
1490.764 57073876 54810304 52401356 49974768 47600852 45307912 43090928 
1494.139 40935668 38841920 36830708 34947612 33253606 31801850 30620828 
1497.514 29707398 29037700 28578798 28301268 28184296 28212226 28371120 
1500.890 28646216 29019740 29471982 29983624 30530244 31081968 31599254 
1504.265 32020268 32262564 32227200 31818248 30991606 29792450 28352162 
1507.640 26824174 25321074 23889842 22530556 21227176 19969774 18759872 
1511.015 17614366 16556233 15603594 14766664 14044710 13428517 12906062 
1514.391 12464429 12091822 11775635 11504349 11269413 11068217 10905405 
1517.766 10789798 10728830 10722309 10759772 10820845 10882132 10926131 
1521.141 10951140 10974383 11023966 11122672 11276112 11474478 11699076 
1524.516 11933666 12169371 12409057 12664636 12951531 13280259 13652042 
1527.892 14061207 14499534 14962242 15449373 15966132 16519265 17113394 
1531.267 17749476 18424310 19131184 19862344 20610510 21370236 22135894 
1534.642 22903010 23665570 24416432 25145352 25840084 26489334 27078156 
1538.017 27592704 28018828 28343674 28556220 28649896 28629404 28510398 
1541.393 28317996 28079126 27812232 27522766 27202414 26837640 26417074 
1544.768 25943870 25436716 24925168 24436270 23981292 23553268 23130312 
1548.143 22687732 22208354 21693974 21165804 20656896 20195374 19791836 
1551.518 19437698 19112314 18794712 18474060 18156060 17859494 17607466 
1554.894 17413556 17274998 17170920 17068486 16923218 16683955 16303789 
1558.269 15756255 15064523 14308651 13592961 12992361 12528813 12185523 
1561.644 11928149 11721269 11534018 11344163 11140587 10924840 10709608 
1565.019 10513797 10354552 10238311 10160089 10104840 10054785 9994769 
1568.395 9917200 9824834 9729811 9647987 9592870 9571665 9585790 9632471 
1572.252 9707278 9804262 9915945 10030642 10134549 10213921 10260091 
1575.627 10275969 10277768 10290626 10334939 10419675 10541736 10691507 
1579.002 10858996 11038274 11228574 11432804 11654896 11896886 12157410 
1582.378 12431832 12713832 12996185 13271376 13532146 13769576 13974354 
1585.753 14138048 14255200 14326047 14357314 14363581 14363787 14378890 
1589.128 14429755 14533007 14700269 14938510 15248085 15621867 16042691 
1592.503 16484367 16910196 17277516 17547672 17688456 17682898 17532424 
1595.879 17256036 16885566 16457006 16006799 15563961 15149021 14776537 
1599.254 14454588 14187342 13974969 13814108 13698819 13622603 13580483 
1602.629 13570740 13594534 13654640 13752441 13885774 14048339 14229624 
1606.004 14416259 14594510 14749491 14866603 14932509 14934566 14863414 
1609.380 14715316 14493607 14210348 13885602 13545683 13216276 12917600 
1612.755 12660951 12447176 12268372 12111378 11962581 11809886 11647034 
1616.130 11477029 11311241 11167274 11061181 11003405 10995079 11030355 
1619.505 11097619 11182777 11271657 11351237 11412836 11454746 11482473 
1622.881 11507037 11540518 11592105 11664391 11754766 11858202 11969632 
1626.256 12085825 12204845 12325466 12447040 12568989 12691996 12818826 
1629.631 12954057 13102136 13266593 13447586 13641886 13842465 14040398 
1633.006 14226370 14391084 14527217 14630766 14703662 14754804 14799609 
1636.382 14856179 14937927 15050356 15190984 15351910 15521377 15687166 
1639.757 15840750 15978198 16102208 16221061 16344557 16479755 16627628 
1643.132 16781822 16930178 17058700 17153030 17204012 17210252 17180158 
1646.507 17130076 17081824 17057494 17073448 17138314 17252828 17411108 
1649.883 17600184 17798562 17978068 18099162 18119268 18011742 17793246 
1653.258 17533768 17317686 17198256 17175124 17216250 17282688 17345030 
1656.633 17386690 17401002 17389586 17357274 17308134 17243176 17159510 
1660.008 17051668 16913916 16741322 16531760 16286589 16012264 15720079 
1663.384 15424722 15141713 14883163 14654035 14451266 14263725 14074725 
1666.759 13863572 13611150 13304003 12938866 12525028 12081907 11635427 
1670.134 11208208 10816531 10467260 10159580 9885810 9633555 9386355 9125998 
1673.991 8837222 8515015 8170931 7833126 7533812 7297610 7130041 7020149 
1677.849 6947924 6893452 6844843 6800044 6766927 6756393 6776788 6827341 
1681.706 6897087 6966543 7015030 7027894 7006949 6973244 6959742 6994456 
1685.564 7085582 7225676 7400056 7595783 7802494 8013319 8223437 8427237 
1689.421 8619980 8798708 8963777 9119670 9273149 9430237 9592531 9755394 
1693.279 9905911 10027319 10102194 10121424 10091648 10038780 9997888 
1696.654 9992632 10026200 10078557 10116913 10100634 9994769 9784131 9488551 
1700.511 9162882 8868333 8642795 8485923 8373187 8271085 8150674 7992225 
1704.369 7786571 7535936 7252898 6955500 6660087 6377586 6111465 5860182 
1708.226 5618746 5382073 5146233 4909650 4673195 4439915 4214122 3999647 
1712.083 3798148 3608903 3428857 3254428 3082872 2912885 2744798 2578343 
1715.941 2411318 2240061 2060649 1874455 1689905 1522058 1385387 1288504 
1719.798 1230451 1202673 1191509 1183103 1167355 1139149 1099984 1054776 
1723.656 1010138 970818 937578 908889 882427 856663 831797 808925 787879 
1727.995 767332 744397 716949 685520 653264 624727 602695 584546 560392 
1732.335 513516 427142 291014 113333 -79315 -250917 -375246 -446318 -475312 
1736.675 -481270 -482561 -493416 -520786 -564270 -617609 -672497 -721788 
1740.532 -762076 -793563 -818004 -837119 -851240 -859970 -863211 -861987 
1744.389 -857887 -852298 -846147 -838309 -828091 -814631 -798987 -783840 
1748.247 -772793 -769287 -775472 -791248 -814697 -842642 -871577 -897732 
1752.104 -918233 -930698 -934037 -928879 -918133 -907189 -902031 -908743 
1755.962 -930235 -964487 -1004257 -1040255 -1064682 -1074994 -1074168 
1759.337 -1069309 -1069210 -1080679 -1106558 -1144530 -1188084 -1229816 
1762.712 -1263350 -1286245 -1298567 -1302399 -1300417 -1295264 -1289648 
1766.087 -1286344 -1287732 -1295066 -1306892 -1319280 -1326712 -1325556 
1769.463 -1315151 -1300285 -1289218 -1291696 -1314523 -1357564 -1412424 
1772.838 -1465561 -1504823 -1524271 -1525525 -1515092 -1500926 -1487916 
1776.213 -1477647 -1468599 -1458230 -1445648 -1432735 -1423620 -1422365 
1779.588 -1430952 -1447101 -1465363 -1479298 -1484515 -1480982 -1472627 
1782.964 -1464900 -1462985 -1468929 -1481411 -1496535 -1509775 -1518393 
1786.339 -1521101 -1518261 -1510469 -1497756 -1480156 -1458098 -1434651 
1789.714 -1415000 -1406116 -1414472 -1443270 -1489931 -1546524 -1603044 
1793.089 -1650348 -1684378 -1705996 -1719462 -1728736 -1736623 -1743751 
1796.465 -1749362 -1753652 -1757711 -1764278 -1776323 -1795527 -1821232 
1799.840 -1850200 -1878211 -1901403 -1917699 -1927728 -1933038 -1935381 
1803.215 -1935117 -1931851 -1925122 -1915126 -1903580 -1893090 -1885832 
1806.590 -1883094 -1883621 -1885304 -1885799 -1884083 -1881312 -1880256 
1809.966 -1883654 -1892793 -1906384 -1921361 -1933863 -1941978 -1945573 
1813.341 -1946761 -1948146 -1950818 -1954216 -1954941 -1948509 -1931653 
1816.716 -1903316 -1865509 -1822584 -1779358 -1740088 -1706986 -1680582 
1820.091 -1660151 -1644769 -1633447 -1625096 -1619187 -1615490 -1613476 
1823.467 -1613311 -1615325 -1619286 -1624303 -1628034 -1628034 -1621993 
1826.842 -1610076 -1594758 -1581751 -1577888 -1588354 -1614862 -1653154 
1830.217 -1694346 -1727746 -1745501 -1745039 -1729528 -1705534 -1679559 
1833.592 -1656289 -1637045 -1620144 -1602186 -1580860 -1555405 -1526747 
1836.968 -1497096 -1467476 -1437392 -1404729 -1366383 -1319940 -1264639 
1840.343 -1201929 -1134352 -1065310 -998571 -936946 -882952 -837648 -800079 
1844.200 -767401 -734655 -696812 -650761 -596102 -535546 -474452 -419307 
1848.058 -374981 -344291 -326810 -320155 -320983 -327241 -338961 -357865 
1851.915 -385542 -422419 -466574 -514167 -561457 -606327 -649008 -691949 
1855.772 -738062 -788801 -843171 -897402 -947725 -991596 -1029049 -1062864 
1859.630 -1097205 -1134616 -1175924 -1218549 -1258461 -1292786 -1319478 
1863.005 -1339298 -1354261 -1366350 -1376127 -1383525 -1387588 -1388645 
1866.380 -1388513 -1390858 -1398916 -1414340 -1435839 -1458593 -1477118 
1869.756 -1487223 -1487454 -1480057 -1469028 -1457470 -1447728 -1439769 
1873.131 -1432999 -1426923 -1422167 -1419756 -1421540 -1427649 -1436995 
1876.506 -1446837 -1454630 -1458758 -1460508 -1462622 -1468368 -1480487 
1879.881 -1499738 -1524337 -1551939 -1580530 -1608920 -1637210 -1665564 
1883.257 -1693158 -1717812 -1736590 -1747052 -1748603 -1743652 -1736326 
1886.632 -1731409 -1731871 -1738636 -1749362 -1760978 -1770317 -1775828 
1890.007 -1777477 -1776487 -1773485 -1768073 -1759361 -1746128 -1728637 
1893.382 -1708934 -1689230 -1672430 -1659623 -1649721 -1640511 -1629981 
1896.758 -1616777 -1601988 -1587726 -1575908 -1566730 -1559202 -1550552 
1900.133 -1538831 -1523445 -1505813 -1488676 -1474642 -1464075 -1455984 
1903.508 -1448025 -1437920 -1425470 -1412887 -1403375 -1399874 -1403540 
1906.883 -1412623 -1423422 -1432900 -1438415 -1440529 -1441355 -1443501 
1910.259 -1447827 -1454333 -1460508 -1464273 -1465098 -1463348 -1460673 
1913.634 -1458758 -1458461 -1459154 -1460971 -1465065 -1473882 -1491945 
1917.009 -1522389 -1564815 -1614928 -1664013 -1703125 -1726921 -1735534 
1920.384 -1734478 -1732597 -1738339 -1755137 -1781635 -1811333 -1835716 
1923.760 -1848551 -1847264 -1833803 -1813346 -1790512 -1768601 -1749164 
1927.135 -1732927 -1720485 -1713488 -1713785 -1722234 -1737646 -1757051 
1930.510 -1776124 -1791964 -1803711 -1813544 -1825158 -1841391 -1862342 
1933.885 -1885172 -1905724 -1920074 -1927134 -1928783 -1928783 -1929740 
1937.260 -1932082 -1932082 -1925385 -1908100 -1880619 -1846901 -1814632 
1940.636 -1791271 -1780612 -1782427 -1791535 -1800972 -1804997 -1801170 
1944.011 -1789885 -1773848 -1755401 -1735072 -1712069 -1686259 -1658138 
1947.386 -1629618 -1603671 -1582477 -1565673 -1551675 -1538171 -1523808 
1950.761 -1510238 -1501058 -1499870 -1509214 -1527572 -1550684 -1573861 
1954.137 -1592876 -1608062 -1622950 -1643185 -1672001 -1710056 -1753124 
1957.512 -1793745 -1826445 -1847495 -1856898 -1857492 -1852081 -1839808 
1960.887 -1818031 -1783384 -1734511 -1675764 -1615325 -1562306 -1524799 
1964.262 -1505714 -1502874 -1511195 -1525624 -1543355 -1566135 -1596904 
1967.638 -1636880 -1683652 -1731112 -1771340 -1798101 -1809749 -1808825 
1971.013 -1801071 -1791535 -1781635 -1770911 -1756886 -1738702 -1717746 
1974.388 -1696524 -1675202 -1648796 -1607270 -1537544 -1430126 -1286014 
1977.763 -1119216 -954304 -816251 -724864 -686326 -694364 -732836 -784038 
1981.621 -834804 -878719 -917042 -954469 -994802 -1038966 -1084711 -1127775 
1985.478 -1165415 -1197534 -1226280 -1254067 -1281653 -1307189 -1327175 
1988.854 -1338307 -1339496 -1331766 -1318850 -1304514 -1290011 -1275640 
1992.229 -1260740 -1245444 -1231864 -1224430 -1227172 -1242470 -1269132 
1995.604 -1302994 -1337646 -1368464 -1392311 -1409518 -1422497 -1432867 
1998.979 -1440034 -1443006 -1438845 -1427220 -1411037 -1396076 -1388678 
2002.354 -1393731 -1411335 -1437094 -1464636 -1485737 -1494983 -1490855 
2005.730 -1475005 -1449842 -1418237 -1382501 -1344186 -1306264 -1272865 
2009.105 -1247459 -1233516 -1230311 -1233120 -1236159 -1232294 -1217921 
2012.480 -1193668 -1163994 -1133922 -1108177 -1088116 -1071325 -1055229 
2015.855 -1036850 -1015562 -992951 -971694 -951857 -932020 -909867 -882191 
2019.713 -849322 -814961 -784402 -764656 -760025 -771172 -794754 -825908 
2023.570 -858812 -889664 -916216 -937872 -953147 -961875 -963131 -958073 
2027.428 -949907 -944121 -945344 -956784 -975992 -997678 -1014538 -1019628 
2031.285 -1009943 -986538 -953213 -914166 -871015 -823064 -767831 -704884 
2035.143 -637163 -570888 -514631 -476570 -459127 -460848 -475676 -495005 
2039.000 -511917 -522209 -525055 -522011 -515822 -507780 -499142 -490570 
2042.857 -482031 -474816 -470414 -468891 -469785 -470811 -468196 -458035 
2046.715 -437215 -403683 -356442 -298501 -233995 -170441 -118073 -87597 
2050.572 -86968 -119729 -181669 -261017 -343331 -411793 -455089 -470149 
2054.430 -462503 -444034 -428476 -425630 -437910 -461312 -487327 -507283 
2058.287 -516782 -515954 -508607 -500565 -495435 -493880 -494045 -492787 
2062.145 -487095 -476669 -461444 -442677 -420863 -396301 -368890 -339789 
2066.002 -311513 -287177 -269196 -258567 -253600 -251116 -248500 -245023 
2069.859 -242804 -245520 -256911 -278071 -306845 -337637 -364520 -383257 
2073.717 -393023 -396598 -398353 -401763 -407721 -414507 -418579 -417553 
2077.574 -411495 -403517 -397989 -398816 -406827 -419506 -432184 -439929 
2081.432 -439896 -432184 -419936 -407059 -396665 -390607 -388521 -389614 
2085.289 -393288 -399644 -409575 -424107 -442941 -464721 -487988 -510725 
2089.146 -532501 -554376 -577605 -603514 -632002 -660984 -687384 -707828 
2093.004 -719538 -721060 -712691 -694894 -669189 -637990 -603713 -569631 
2096.861 -539385 -516318 -501227 -493582 -490173 -486069 -478456 -465019 
2100.719 -446251 -424670 -403285 -383522 -366043 -350449 -335716 -323003 
2104.576 -314195 -311182 -315652 -326181 -338829 -348330 -349489 -339590 
2108.434 -320089 -294958 -268932 -246016 -228101 -213827 -201143 -188458 
2112.291 -175939 -165804 -160769 -163220 -173289 -189452 -208495 -227571 
2116.148 -245486 -261944 -277773 -293799 -309163 -322175 -330849 -333531 
2120.006 -330121 -322407 -312109 -301249 -290918 -281614 -273534 -268600 
2123.863 -269759 -279991 -301944 -335451 -377563 -423445 -467865 -506919 
2127.721 -540510 -571550 -604077 -642258 -688344 -741205 -797598 -853092 
2131.578 -903320 -944749 -974769 -990934 -990769 -973711 -940517 -895253 
2135.436 -845552 -799087 -763895 -744347 -739716 -746332 -759099 -773388 
2139.293 -787478 -802295 -819393 -839302 -861458 -882654 -899121 -909603 
2143.150 -914794 -917142 -920250 -926003 -932483 -937442 -937211 -929441 
2147.008 -917042 -904544 -897766 -901965 -919125 -948254 -987199 -1033446 
2150.865 -1085273 -1142547 -1205068 -1271412 -1340487 -1410212 -1480487 
2154.240 -1553391 -1631005 -1711871 -1787872 -1841094 -1846340 -1776124 
2157.616 -1612453 -1353997 -1024388 -663896 -318864 -30449 178662 305636 
2161.473 362538 369435 347781 315384 283090 257395 240586 232298 230011 
2165.813 229149 223380 208264 180850 141936 96397 50002 6593 -33397 -73915 
2170.635 -121286 -180807 -252871 -331843 -406894 -465548 -498679 -503147 
2174.492 -482461 -446152 -406165 -371836 -349688 -342636 -349622 -367897 
2178.349 -393950 -423081 -450091 -470910 -481568 -481303 -473624 -463827 
2182.207 -458399 -462602 -476570 -496726 -517245 -531740 -536142 -530350 
2186.064 -516054 -495369 -470182 -439002 -400107 -352535 -298402 -242109 
2189.922 -190081 -147686 -117212 -97436 -84086 -72259 -59835 -46849 -35319 
2194.261 -28229 -25876 -25413 -22629 -12126 9111 39497 74359 107897 133815 
2199.083 148896 153238 149393 140908 131794 124436 120458 121420 127883 
2203.423 139284 155095 171966 186286 195369 197954 195203 190993 189435 
2207.762 193313 202860 215126 226032 231337 229911 222817 214397 208860 
2212.102 208131 213203 221756 230475 236674 238763 236774 231138 222419 
2216.441 210220 194871 177369 159470 144355 135075 132821 136036 141770 
2220.781 145383 143460 135174 122513 109422 99910 96198 97126 100407 102396 
2225.603 99744 92420 81219 68758 57126 48278 42745 40789 42546 48013 56961 
2230.907 68095 78567 85659 86687 80258 68062 54078 42413 37144 40657 51957 
2236.211 68924 88642 108229 126126 142267 155525 165933 173259 177568 180452 
2241.032 184927 193711 209689 233226 261904 291246 317208 335943 347184 
2245.372 353352 358326 365920 378124 394640 412714 430226 445085 457026 
2249.712 467010 476165 484690 492286 497693 500114 500612 501375 504957 
2254.051 513748 527449 543804 558601 567459 567293 557771 541217 520847 
2258.391 501242 485419 474606 469033 467275 467673 468403 467739 464522 
2262.730 458253 449397 439546 431088 426943 429098 438120 452747 470161 
2267.070 486746 499783 507678 510630 510000 507545 504825 502602 501209 
2271.410 500678 501508 504394 509635 517198 525989 534316 540620 544103 
2275.749 544899 544733 545762 549710 557606 569417 583982 600870 619982 
2280.089 641318 665908 694547 726839 761524 796676 829905 859053 882792 
2284.428 900356 911545 917057 916957 912442 904108 893284 880999 868449 
2288.768 856132 844977 835648 828976 826054 828411 836644 850787 869677 
2293.108 891225 912442 931103 945514 955376 961287 964442 965936 966667 
2297.447 967231 968061 969888 973209 978588 985861 994031 1001271 1005688 
2301.787 1006020 1001736 994263 985861 978721 974603 973806 975135 976596 
2306.126 975899 971615 963313 951989 939072 927151 918219 913969 915032 
2310.466 921340 931567 943688 955144 963910 968593 969655 968659 968394 
2314.806 971415 979253 991872 1007780 1024618 1040062 1053282 1064973 
2318.663 1076997 1092045 1112407 1138917 1171475 1207856 1244839 1278302 
2322.521 1303027 1313396 1304655 1273051 1217060 1138751 1043384 938640 
2326.378 833723 737493 656052 593040 548449 519521 502503 493778 490395 
2330.718 491058 495238 502569 513118 526620 542676 561122 581925 604288 
2335.057 627813 651041 672976 692888 711075 727835 744098 760495 776328 
2339.397 790103 800759 807232 810219 811879 814535 820543 830137 841956 
2343.736 852911 860846 865029 867486 872831 887042 914799 958763 1018308 
2348.076 1090350 1170212 1252149 1331077 1402606 1462910 1510188 1543871 
2351.933 1565352 1577257 1583775 1589029 1595913 1606090 1619293 1633594 
2355.791 1647330 1658772 1667786 1675602 1684250 1695427 1710063 1727993 
2359.648 1748286 1769545 1790838 1811998 1833526 1856087 1880246 1905238 
2363.506 1930798 1955360 1977627 1997266 2014176 2029056 2043171 2057386 
2367.363 2072834 2089680 2107859 2126072 2143586 2159203 2171724 2181514 
2371.220 2189440 2197033 2206358 2219246 2236864 2259579 2287458 2319602 
2375.078 2355713 2395292 2438340 2484992 2535447 2589775 2648211 2711188 
2378.935 2778810 2851479 2929430 3011966 3097855 3185297 3272055 3356259 
2382.793 3436639 3512324 3583177 3649632 3711485 3768400 3819875 3865438 
2386.650 3904653 3937921 3965606 3988244 4006068 4018742 4025765 4026936 
2390.508 4022321 4012857 3999949 3985369 3970421 3955675 3940963 3925482 
2394.365 3908431 3889241 3868079 3845781 3823351 3802025 3783173 3767999 
2398.222 3757471 3753060 3755700 3766061 3784276 3809847 3841736 3878977 
2402.080 3920768 3966910 4017572 4073390 4134702 4201475 4273278 4349410 
2405.937 4429137 4511791 4597140 4684717 4774287 4865384 4957439 5050685 
2409.795 5145327 5242203 5342153 5445817 5552727 5661712 5770253 5875564 
2413.652 5975089 6066707 6148934 6221665 6284927 6338718 6383840 6420862 
2417.510 6450254 6473089 6489939 6501576 6508067 6509480 6505511 6496262 
2421.367 6482170 6464446 6444301 6423250 6402132 6381419 6361648 6342719 
2425.224 6325606 6312057 6304056 6304123 6314478 6335894 6368945 6412960 
2429.082 6466598 6528517 6597880 6673378 6754206 6839660 6928868 7021866 
2432.939 7118589 7219814 7326488 7439761 7559773 7686529 7819395 7957161 
2436.797 8098921 8244542 8394266 8549212 8710231 8878512 9054437 9237845 
2440.654 9428307 9624848 9826901 10034236 10246793 10465393 10690997 
2444.029 10924636 11167206 11418823 11678585 11944973 12215853 12488982 
2447.405 12762317 13034662 13305403 13574261 13840652 14103989 14362862 
2450.780 14615927 14862042 15100817 15332173 15556749 15774740 15985761 
2454.155 16188147 16379101 16555406 16713636 16850602 16963802 17051566 
2457.530 17112360 17145034 17148654 17122112 17064834 16976378 16856906 
2460.906 16706957 16527697 16320543 16087802 15832057 15556509 15264524 
2464.281 14960322 14647489 14329677 14010250 13691843 13377155 13069184 
2467.656 12770097 12483628 12212955 11960946 11730018 11521702 11336340 
2471.031 11173801 11033142 10913118 10812115 10728355 10659552 10603084 
2474.406 10556843 10518176 10485250 10456840 10431961 10409630 10388996 
2477.782 10368839 10347799 10324929 10299448 10271559 10242179 10212461 
2481.157 10183493 10156188 10130513 10105857 10081745 10057430 10032676 
2484.532 10007720 9983241 9960017 9938591 9919471 9902250 9886827 9872354 
2488.390 9858693 9845475 9833002 9821580 9811413 9802635 9794535 9786741 
2492.247 9777930 9766746 9752514 9734792 9713546 9689659 9664079 9637687 
2496.104 9611196 9585147 9559370 9533832 9508498 9483336 9458547 9434131 
2499.962 9409921 9385204 9359371 9331610 9301211 9268207 9232837 9195946 
2503.819 9158416 9121565 9086545 9054539 9026357 9002880 8984545 8971286 
2507.677 8962356 8956437 8951904 8946526 8938442 8926300 8909321 8887643 
2511.534 8861873 8833333 8803408 8773958 8746133 8720946 8699075 8680044 
2515.392 8663447 8648371 8633770 8619337 8605075 8591455 8579525 8569860 
2519.249 8563203 8559418 8558302 8558775 8560026 8561242 8561647 8560871 
2523.106 8559181 8557187 8555870 8556781 8561174 8570164 8584223 8602642 
2526.964 8624069 8646782 8668720 8688325 8705261 8719494 8732103 8743632 
2530.821 8754788 8765979 8777204 8788463 8799959 8812436 8826130 8841313 
2534.679 8857884 8875164 8892344 8908780 8924406 8939897 8956572 8975852 
2538.536 8998719 9025511 9055892 9088270 9121565 9154118 9185049 9214052 
2542.394 9241129 9266650 9291021 9314548 9337027 9358423 9378602 9397664 
2546.251 9416049 9434673 9454753 9477206 9502707 9530851 9560319 9589246 
2550.108 9615363 9636706 9652696 9663943 9672109 9679529 9688405 9699993 
2553.966 9714461 9731234 9749193 9767052 9783894 9799382 9813040 9824528 
2557.823 9832900 9837408 9836900 9830324 9817886 9799957 9777353 9751328 
2561.681 9723406 9694741 9666756 9640940 9618344 9599578 9584571 9572376 
2565.538 9561470 9549920 9536677 9521368 9504942 9488788 9474801 9464134 
2569.396 9457056 9452756 9450249 9448489 9446728 9445272 9444493 9445001 
2573.253 9447304 9451029 9456007 9462136 9469552 9479203 9491734 9507956 
2577.110 9527735 9550563 9575358 9600865 9626745 9653136 9680443 9709582 
2580.968 9740552 9773355 9807006 9840831 9874048 9906928 9940117 9974358 
2584.825 10010365 10048410 10088018 10128444 10168772 10208561 10247641 
2588.200 10286589 10325947 10366430 10408781 10453140 10499438 10547372 
2591.576 10596158 10645052 10693307 10740344 10786232 10831274 10876390 
2594.951 10922835 10971325 11022096 11074539 11127193 11178085 11225310 
2598.326 11267848 11305460 11338857 11370012 11401339 11435287 11473729 
2601.701 11518095 11568863 11625830 11687877 11753643 11821394 11889905 
2605.077 11958290 12026584 12095671 12166508 12240322 12317830 12398862 
2608.452 12482605 12567420 12651502 12733143 12811217 12884969 12954398 
2611.827 13019913 13081783 13140657 13196602 13249479 13298638 13343465 
2615.202 13383033 13416726 13444271 13465974 13482823 13496120 13507227 
2618.578 13517448 13527498 13537650 13547905 13558024 13567732 13577304 
2621.953 13587047 13597577 13609782 13624381 13641921 13662915 13687261 
2625.328 13715062 13745875 13779460 13815409 13853583 13894293 13937879 
2628.703 13985166 14036292 14091394 14149480 14209560 14270025 14329814 
2632.079 14388378 14446025 14503611 14562506 14623672 14687588 14754153 
2635.454 14822681 14892559 14963133 15034371 15106306 15179009 15252650 
2638.829 15326853 15401103 15474816 15547614 15619428 15690293 15760722 
2642.204 15830887 15900996 15971012 16040800 16110152 16179068 16247306 
2645.580 16315073 16382094 16448783 16515376 16582428 16650869 16721349 
2648.955 16794666 16870822 16949746 17030718 17112600 17195086 17277862 
2652.330 17360962 17444942 17530456 17617576 17706332 17796698 17887908 
2655.705 17980348 18073670 18168396 18264730 18362952 18462720 18563338 
2659.081 18663738 18763504 18861598 18957880 19052242 19144966 19236530 
2662.456 19327248 19417568 19507838 19597920 19687916 19777792 19866888 
2665.831 19954960 20041838 20127554 20212764 20298480 20385772 20475966 
2669.206 20569688 20667114 20767722 20870686 20974610 21078318 21180658 
2672.582 21280864 21378798 21474178 21567382 21658868 21748942 21838096 
2675.957 21926606 22014402 22101762 22188302 22273988 22358784 22442620 
2679.332 22525808 22608456 22691430 22775750 22862776 22953904 23050888 
2682.707 23155056 23267396 23388260 23517448 23654444 23798448 23949358 
2686.083 24106768 24270962 24442160 24620508 24805490 24996516 25192436 
2689.458 25392204 25595192 25800736 26008982 26219826 26433764 26650698 
2692.833 26870948 27094590 27322262 27554822 27793156 28037842 28289350 
2696.208 28547444 28811640 29081062 29354800 29632010 29912058 30194704 
2699.583 30479522 30766200 31054348 31343364 31632860 31922188 32210748 
2702.959 32497964 32783120 33065174 33343260 33616292 33883200 34142668 
2706.334 34393004 34632608 34859172 35070480 35264276 35439076 35593692 
2709.709 35728036 35842344 35937392 36014276 36074112 36117752 36145836 
2713.084 36158908 36156640 36138636 36104068 36051752 35980764 35890496 
2716.460 35781176 35653576 35509472 35350892 35180444 35000116 34812248 
2719.835 34618292 34419508 34217160 34012504 33806976 33602584 33402010 
2723.210 33207894 33023160 32850374 32691262 32546744 32416948 32301254 
2726.585 32199006 32109558 32032608 31968798 31918444 31882464 31861174 
2729.961 31854544 31861674 31881642 31913236 31955284 32006998 32067426 
2733.336 32136102 32212316 32295364 32384426 32478574 32576852 32678366 
2736.711 32782476 32888006 32994632 33101500 33208250 33314280 33419150 
2740.086 33522580 33623600 33721632 33815748 33905516 33990752 34071880 
2743.462 34150340 34227124 34303672 34380700 34458640 34537168 34616140 
2746.837 34695128 34774340 34854288 34935152 35017320 35100544 35184184 
2750.212 35267440 35349420 35430016 35509436 35588440 35667928 35749156 
2753.587 35833168 35920692 36012732 36109832 36212856 36321672 36436392 
2756.963 36556040 36679508 36805388 36932212 37058996 37184700 37308308 
2760.338 37428200 37542668 37649144 37744908 37827684 37895648 37947788 
2763.713 37983988 38004276 38008904 37998308 37972524 37931844 37876744 
2767.088 37808780 37729296 37640540 37545232 37445968 37345720 37247112 
2770.464 37152720 37065096 36985856 36916300 36856424 36805932 36763124 
2773.839 36726452 36694072 36664544 36636748 36609928 36583868 36558384 
2777.214 36533004 36507092 36479200 36447452 36409292 36362060 36303192 
2780.589 36231116 36144940 36045168 35933648 35812732 35685588 35555032 
2783.965 35423508 35293028 35165176 35041204 34922332 34809340 34702840 
2787.340 34602720 34507856 34416816 34328060 34239852 34151200 34061668 
2790.715 33971940 33882484 33794548 33708992 33626356 33547170 33471900 
2794.090 33400684 33333634 33270850 33211648 33155464 33100750 33046224 
2797.466 32990556 32932754 32871920 32807846 32740600 32670294 32596960 
2800.841 32520532 32440834 32357614 32270916 32180916 32087758 31992234 
2804.216 31894908 31796608 31698328 31600502 31503872 31408436 31314768 
2807.591 31223112 31134042 31047692 30964956 30886324 30812118 30742620 
2810.967 30678216 30618766 30564442 30515636 30472556 30435486 30404426 
2814.342 30379124 30359474 30344800 30334710 30329414 30329414 30335560 
2817.717 30349276 30372374 30406344 30452722 30512826 30587622 30677648 
2821.092 30782880 30902868 31036838 31183380 31340942 31507824 31682502 
2824.468 31863100 32048520 32236654 32425872 32614034 32798700 32977760 
2827.843 33148918 33310522 33461198 33600044 33726612 33840572 33941988 
2831.218 34030920 34107576 34172492 34226228 34269612 34304284 34332108 
2834.593 34355632 34378156 34403012 34433316 34471808 34520452 34579684 
2837.969 34649836 34730764 34822552 34926532 35044544 35179904 35337020 
2841.344 35520616 35736096 35989872 36288244 36638804 37050300 37530964 
2844.719 38089956 38734752 39470276 40296576 41207076 42186668 43208508 
2848.094 44236472 45225540 46122376 46875620 47438392 47774140 47863100 
2851.469 47703496 47311492 46716268 45958548 45085096 44140876 43170372 
2854.845 42212956 41298856 40452568 39689900 39018452 38439328 37947612 
2858.220 37534864 37189572 36900212 36655928 36447308 36266848 36108860 
2861.595 35969248 35845404 35735484 35638936 35555968 35487612 35435588 
2864.970 35401324 35386948 35394136 35424620 35479556 35560032 35666380 
2868.346 35798700 35955820 36135792 36334932 36548400 36770228 36993324 
2871.721 37210548 37415092 37601268 37765440 37906680 38026300 38128012 
2875.096 38217300 38300452 38383692 38472492 38571264 38683100 38810108 
2878.471 38953280 39112928 39288772 39480000 39685616 39904588 40135404 
2881.847 40376896 40627176 40884372 41145872 41407860 41666468 41916764 
2885.222 42154392 42375556 42577872 42760392 42924256 43071904 43207264 
2888.597 43335128 43460980 43590784 43730924 43888524 44071960 44290112 
2891.972 44554112 44877312 45273712 45759776 46352876 47069036 47923296 
2895.348 48925144 50075820 51363608 52761996 54226004 55689960 57078408 
2898.723 58305492 59286024 59953516 60261928 60197068 59776288 59046700 
2902.098 58076172 56938840 55712712 54467232 53256404 52123576 51097488 
2905.473 50195348 49427268 48796660 48303892 47946308 47721028 47624588 
2908.849 47653984 47807280 48082460 48477236 48988300 49609940 50332800 
2912.224 51144600 52027912 52960408 53917456 54869024 55783648 56631988 
2915.599 57386148 58024704 58534852 58912228 59160592 59290016 59314360 
2918.974 59247364 59100720 58882140 58594344 58236604 57805564 57298392 
2922.350 56714816 56060272 55345104 54586204 53804780 53022288 52260560 
2925.725 51537920 50867436 50258172 49714844 49238104 48826764 48476868 
2929.100 48183592 47940168 47738744 47570944 47427336 47299116 47177432 
2932.475 47053380 46919068 46766596 46588808 46380492 46137964 45860292 
2935.851 45548908 45207300 44840316 44453120 44051168 43640096 43225236 
2939.226 42812676 42408764 42019464 41650824 41307236 40991560 40705260 
2942.601 40447588 40216456 40007608 39815388 39631816 39446872 39250540 
2945.976 39032736 38785908 38506776 38197184 37864272 37518428 37172716 
2949.352 36839724 36529148 36247832 35998260 35779776 35589052 35421348 
2952.727 35271608 35134528 35005540 34880640 34756428 34630096 34499572 
2956.102 34363020 34218952 34066364 33904944 33735064 33557908 33375640 
2959.477 33191118 33007610 32827858 32654502 32489252 32333236 32187160 
2962.853 32051730 31927608 31815254 31715616 31629152 31556598 31498526 
2966.228 31455562 31428524 31418268 31425282 31449470 31489868 31545054 
2969.603 31612508 31689812 31774860 31866346 31964094 32068462 32180558 
2972.978 32301254 32430302 32566066 32704230 32838222 32958884 33055160 
2976.354 33115912 33130110 33089702 32990344 32832216 32619748 32361150 
2979.729 32068246 31753256 31429488 31109800 30804684 30522852 30269940 
2983.104 30048138 29856120 29689906 29543760 29411030 29286030 29165108 
2986.479 29046698 28931862 28822828 28722318 28632376 28552928 28481278 
2989.854 28412188 28338368 28250946 28142012 28005328 27837948 27641184 
2993.230 27420826 27186186 26947692 26715844 26498844 26300854 26122940 
2996.605 25962970 25817684 25683662 25558398 25441038 25331682 25230816 
2999.980 25138822 25055482 24980090 24911588 24849098 24791914 24739716 
3003.355 24692014 24648702 24609076 24572398 24538670 24507818 24480614 
3006.731 24457864 24440548 24429156 24423864 24424178 24429298 24438166 
3010.106 24450186 24464558 24480858 24498352 24516618 24534918 24552868 
3013.481 24569946 24586354 24602660 24619702 24638742 24661432 24689034 
3016.856 24722740 24763218 24810014 24862396 24918642 24976582 25034352 
3020.232 25090198 25143176 25192928 25239632 25283670 25325396 25364910 
3023.607 25402288 25437700 25471744 25505230 25539806 25576882 25617932 
3026.982 25664048 25715336 25771202 25830028 25890128 25949218 26005428 
3030.357 26057284 26104046 26145956 26183504 26217890 26250378 26281776 
3033.733 26312788 26343662 26374716 26406406 26439434 26474720 26513214 
3037.108 26555656 26602258 26652952 26707214 26764474 26824386 26886458 
3040.483 26950406 27015456 27081224 27146718 27211728 27276322 27341282 
3043.858 27407768 27476910 27548678 27622822 27697686 27771856 27843990 
3047.234 27914086 27983346 28053252 28125752 28201692 28280546 28361216 
3050.609 28441726 28520694 28597800 28673680 28749364 28826122 28904168 
3053.984 28983324 29062038 29139098 29213514 29285144 29354198 29421418 
3057.359 29487620 29553228 29618812 29685224 29753416 29824638 29900202 
3060.735 29980678 30065786 30154320 30244646 30335278 30425216 30514532 
3064.110 30603728 30693756 30785050 30877146 30969794 31061858 31153014 
3067.485 31243622 31334460 31426710 31521112 31618140 31717292 31818140 
3070.860 31919978 32022264 32124754 32227234 32329202 32430232 32529566 
3074.236 32627248 32723914 32820888 32920354 33023984 33132612 33245950 
3077.611 33362470 33479736 33595244 33707060 33814496 33917804 34017772 
3080.986 34115680 34212572 34309088 34405416 34502152 34599420 34697636 
3084.361 34797064 34898056 35000728 35105504 35212388 35321600 35433540 
3087.737 35547696 35663720 35780744 35898128 36014924 36131652 36248656 
3091.112 36366920 36487596 36611116 36736980 36864320 36991736 37118504 
3094.487 37244264 37370308 37498052 37629668 37766056 37907256 38051832 
3097.862 38196928 38339428 38476652 38606680 38729720 38847028 38961472 
3101.238 39075620 39192228 39312892 39438236 39567572 39699628 39833256 
3104.613 39967360 40101284 40235176 40369404 40504364 40640272 40777248 
3107.988 40914880 41052924 41191044 41328992 41466512 41603452 41739196 
3111.363 41873596 42006324 42137304 42267040 42396160 42525540 42655764 
3114.739 42787008 42919172 43051892 43184612 43317080 43449552 43582468 
3118.114 43715900 43850108 43984616 44118576 44251036 44381148 44508480 
3121.489 44633160 44756084 44877936 44999348 45121048 45242744 45364368 
3124.864 45485324 45605508 45724872 45843976 45963964 46085936 46211256 
3128.240 46340856 46475176 46614004 46756012 46899316 47042116 47182600 
3131.615 47319952 47454172 47586320 47718400 47851964 47988420 48127952 
3134.990 48270048 48413300 48556712 48699056 48840336 48981144 49122776 
3138.365 49266756 49414012 49564924 49718820 49874260 50029308 50182216 
3141.740 50332092 50478740 50622728 50765604 50908412 51051944 51196488 
3145.116 51341456 51486252 51630156 51773212 51916020 52059700 52205180 
3148.491 52353284 52503908 52656312 52810000 52964152 53118284 53272432 
3151.866 53426864 53581500 53736116 53890412 54044008 54196764 54349156 
3155.241 54501640 54654928 54809324 54964380 55119336 55272996 55424600 
3158.617 55573700 55720848 55866580 56011720 56156984 56302144 56447356 
3161.992 56592428 56737392 56882712 57028760 57175572 57322816 57469688 
3165.367 57615140 57758140 57898160 58034968 58169128 58300600 58429804 
3168.742 58556464 58680656 58802536 58923008 59043016 59163784 59285796 
3172.118 59408796 59531752 59652960 59771080 59884744 59993684 60098464 
3175.493 60199540 60297748 60393616 60487872 60581188 60674952 60770292 
3178.868 60868628 60970076 61074252 61179524 61284056 61385828 61483732 
3182.243 61577880 61668872 61757672 61845232 61931736 62017260 62101280 
3185.619 62183896 62265460 62346504 62428172 62510848 62594576 62679164 
3188.994 62764152 62848656 62932372 63015148 63096180 63175232 63251576 
3192.369 63324980 63395716 63464472 63532232 63600392 63669636 63740044 
3195.744 63810848 63881240 63950376 64018136 64084956 64151512 64218388 
3199.120 64285500 64352432 64418032 64481720 64543032 64602352 64660296 
3202.495 64717636 64774556 64830908 64886464 64940640 64993628 65045728 
3205.870 65097080 65147856 65197596 65245956 65292700 65338144 65383672 
3209.245 65431124 65482056 65536804 65594488 65652684 65708032 65758416 
3212.621 65802328 65840924 65876164 65911100 65948048 65988272 66031552 
3215.996 66077076 66123372 66169484 66214940 66259748 66304168 66348180 
3219.371 66391952 66435544 66479444 66524400 66571204 66620612 66672564 
3222.746 66726572 66781788 66837324 66892744 66948248 67004040 67060640 
3226.122 67117792 67174992 67230808 67284856 67336272 67385296 67432696 
3229.497 67479408 67526128 67573512 67622248 67673128 67727576 67786744 
3232.872 67851672 67922600 67998384 68076672 68155080 68230952 68303032 
3236.247 68371360 68436832 68500800 68564352 68627800 68691136 68754408 
3239.623 68817792 68882520 68949856 69020736 69095160 69172240 69249800 
3242.998 69325672 69398712 69468496 69536192 69603664 69672904 69745032 
3246.373 69820592 69899440 69980832 70063952 70148328 70233032 70316944 
3249.748 70398528 70476424 70549424 70617288 70680488 70740696 70799424 
3253.124 70857736 70916248 70974064 71030568 71084848 71136832 71187144 
3256.499 71236888 71286816 71337584 71388808 71439240 71487672 71533216 
3259.874 71575176 71613744 71649496 71683024 71714912 71745088 71773624 
3263.249 71799848 71823504 71844112 71861424 71875544 71886416 71894312 
3266.625 71899512 71901896 71901344 71897600 71889776 71877848 71861544 
3270.000 71841016 71817368 71791496 71764752 71737624 71711008 71684824 
3273.375 71659192 71633904 71608904 71583656 71557440 71529504 71499080 
3276.750 71465448 71428768 71390216 71351280 71313520 71278032 71244616 
3280.125 71212488 71180512 71147528 71112944 71077864 71043712 71011952 
3283.501 70983784 70959360 70937856 70918192 70899592 70881640 70864832 
3286.876 70849656 70836792 70825864 70816424 70807072 70797160 70786048 
3290.251 70773800 70761288 70749072 70738160 70729384 70723496 70721472 
3293.626 70724632 70733712 70749424 70771728 70799928 70832968 70870136 
3297.002 70910744 70954720 71002784 71055072 71111656 71171808 71234504 
3300.377 71299312 71365616 71434040 71505408 71580728 71660552 71744304 
3303.752 71831408 71920664 72011704 72104592 72199736 72297416 72397576 
3307.127 72499088 72600816 72701400 72800952 72900288 73001640 73107416 
3310.503 73219760 73339672 73466912 73600352 73738856 73880832 74025632 
3313.878 74172216 74319824 74466904 74612296 74754632 74893312 75028488 
3317.253 75161072 75292312 75423160 75554048 75685056 75816136 75946720 
3320.628 76076936 76205928 76333184 76456872 76575344 76686936 76791200 
3324.004 76889192 76983496 77077224 77172792 77271160 77371400 77470232 
3327.379 77564504 77651152 77728456 77796112 77854928 77905872 77949360 
3330.754 77985480 78013912 78034688 78048136 78054720 78054992 78048296 
3334.129 78032832 78006656 77968160 77916888 77854096 77782440 77704680 
3337.505 77622584 77536304 77444336 77343680 77232400 77108840 76973648 
3340.880 76828488 76674912 76514408 76346928 76171328 75986344 75790264 
3344.255 75582440 75362736 75131568 74889368 74637088 74375744 74107088 
3347.630 73833496 73557880 73282832 73010736 72742224 72477160 72214416 
3351.006 71952768 71691120 71428960 71166104 70902360 70637560 70371640 
3354.381 70104752 69837872 69573144 69312960 69059888 68816160 68582088 
3357.756 68357288 68140472 67930080 67725360 67526240 67333056 67146800 
3361.131 66967816 66795512 66628716 66465856 66305564 66146216 65987504 
3364.507 65829388 65672920 65519192 65370344 65228240 65094880 64971304 
3367.882 64857528 64752096 64652412 64555720 64459384 64361812 64262180 
3371.257 64160384 64056196 63948988 63837020 63717716 63589460 63450128 
3374.632 63299992 63139208 62968836 62789268 62600092 62399632 62186344 
3378.008 61958448 61715164 61456596 61183720 60897368 60598028 60286064 
3381.383 59960436 59620800 59266352 58896860 58512556 58113972 57701904 
3384.758 57277372 56842072 56397740 55947076 55492400 55035832 54579104 
3388.133 54122968 53667688 53212920 52758924 52305632 51853928 51405156 
3391.509 50960276 50520652 50087236 49660460 49240408 48826360 48416852 
3394.884 48010216 47604880 47198892 46791840 46384324 45977704 45574112 
3398.259 45175824 44783632 44397812 44017324 43640348 43265612 42892324 
3401.634 42520496 42150772 41783736 41419160 41056564 40694780 40332280 
3405.010 39968336 39602668 39236180 38870292 38506376 38145628 37789188 
3408.385 37437664 37091512 36751220 36416968 36088656 35766104 35448636 
3411.760 35135212 34825424 34518800 34215760 33916516 33621952 33332522 
3415.135 33048690 32770290 32496930 32228590 31964626 31704318 31447298 
3418.510 31192388 30938162 30684156 30430014 30176516 29925548 29679582 
3421.886 29440812 29211142 28990906 28778996 28573488 28371296 28170048 
3425.261 27967760 27763274 27556726 27349150 27141954 26936692 26734910 
3428.636 26537234 26343978 26154612 25967964 25782664 25597372 25411316 
3432.011 25224180 25036774 24850362 24666482 24486924 24312416 24143618 
3435.387 23980102 23820952 23665116 23511502 23358784 23206328 23053716 
3438.762 22900460 22746560 22591912 22436584 22280858 22125122 21969856 
3442.137 21815726 21663742 21513830 21365988 21219520 21072822 20924818 
3445.512 20774222 20620864 20466066 20311568 20160074 20014082 19875038 
3448.888 19743288 19618130 19498100 19381256 19266108 19151544 19036490 
3452.263 18920292 18802670 18682626 18560122 18435440 18309242 18182526 
3455.638 18056712 17932002 17809020 17687006 17565096 17442770 17319858 
3459.013 17196568 17073484 16951228 16829660 16708920 16588418 16468363 
3462.389 16349340 16232481 16118921 16009893 15905086 15803363 15703278 
3465.764 15602942 15500946 15397189 15292564 15188205 15085414 14985117 
3469.139 14887416 14791930 14698247 14605990 14514814 14424137 14333582 
3472.514 14242394 14149685 14055286 13959880 13865077 13772927 13685996 
3475.890 13605748 13532727 13465974 13403501 13343225 13282923 13221297 
3479.265 13157392 13091106 13022508 12952145 12880838 12809988 12741195 
3482.640 12676576 12617355 12564078 12516331 12472614 12431082 12389794 
3486.015 12347623 12304502 12261078 12218102 12177004 12138500 12103338 
3489.391 12071755 12044195 12020793 12001513 11985640 11972629 11961219 
3492.766 11950864 11940886 11931690 11923994 11918715 11916808 11918919 
3496.141 11924879 11935199 11950422 11971335 11999503 12035917 12080682 
3499.516 12133116 12191351 12252898 12315989 12379429 12443528 12509817 
3502.892 12580278 12656653 12741025 12833911 12935487 13046101 13165076 
3506.267 13291532 13424245 13561442 13700734 13840960 13981642 14123910 
3509.642 14270094 14422800 14583751 14753056 14928737 15107336 15285597 
3513.017 15460601 15630901 15796594 15958432 16116960 16272038 16422801 
3516.393 16567592 16705647 16836584 16960668 17078688 17190154 17293998 
3519.768 17387690 17467708 17530906 17575066 17599080 17602702 17587384 
3523.143 17553434 17501892 17432732 17345374 17238936 17112256 16963940 
3526.518 16793290 16600674 16387220 16155750 15910242 15654396 15391558 
3529.894 15123838 14852030 14575835 14295296 14011105 13725013 13439077 
3533.269 13154659 12872135 12590272 12307126 12020894 11730971 11438928 
3536.644 11148473 10863582 10587772 10322961 10068621 9823308 9584638 
3540.019 9351246 9122106 8897383 8677644 8462306 8250857 8041806 7833631 
3543.877 7625995 7418931 7213211 7010585 6812430 6619983 6434549 6257329 
3547.734 6089253 5931488 5784524 5647479 5518900 5396029 5275909 5156291 
3551.592 5036372 4916218 4797738 4682707 4572495 4467600 4367650 4271705 
3555.449 4178926 4088876 4000550 3913613 3826761 3738521 3647159 3551841 
3559.306 3452269 3350215 3248185 3149484 3057144 2973032 2897641 2829500 
3563.164 2765605 2701586 2632809 2553545 2459533 2347751 2218380 2074732 
3567.021 1924075 1775699 1637286 1515441 1411648 1324463 1249723 1183070 
3570.879 1120347 1058729 996887 934025 870474 806435 742173 678651 615735 
3575.218 554354 494674 436428 378588 320292 260445 198717 135771 72967 12292 
3580.040 -44430 -95813 -141558 -181470 -216212 -245851 -271249 -292773 
3583.897 -312010 -331578 -354654 -385442 -427152 -482461 -550438 -628329 
3587.755 -710905 -791943 -866683 -931557 -985281 -1028851 -1064318 -1093767 
3591.612 -1120075 -1145654 -1172256 -1200475 -1230741 -1261467 -1291134 
3594.988 -1317760 -1340057 -1357663 -1371503 -1383261 -1394986 -1409221 
3598.363 -1427286 -1450337 -1478406 -1511063 -1546788 -1583864 -1620276 
3601.738 -1654177 -1684609 -1710683 -1732828 -1751276 -1767248 -1781536 
3605.113 -1795560 -1810211 -1827204 -1847594 -1873097 -1904174 -1940427 
3608.489 -1979449 -2018499 -2054776 -2086137 -2112945 -2137048 -2161182 
3611.864 -2187425 -2216864 -2247356 -2275604 -2297622 -2310376 -2313409 
3615.239 -2309091 -2301873 -2297259 -2300192 -2314760 -2342938 -2384230 
3618.614 -2436061 -2494146 -2552848 -2606438 -2650274 -2681361 -2698583 
3621.990 -2703292 -2697924 -2685938 -2670000 -2651789 -2631699 -2609633 
3625.365 -2586116 -2563257 -2546162 -2542571 -2561512 -2609666 -2686761 
3628.740 -2783696 -2883110 -2965817 -3019290 -3041269 -3038144 -3020310 
3632.115 -2998856 -2982501 -2975821 -2979078 -2989609 -3003298 -3016460 
3635.490 -3026923 -3034919 -3041993 -3049923 -3059826 -3072592 -3087331 
3638.866 -3103945 -3121775 -3140032 -3158486 -3176413 -3192234 -3204206 
3642.241 -3210094 -3207923 -3196674 -3176413 -3148421 -3115360 -3080356 
3645.616 -3047258 -3020211 -3002870 -2998000 -3007510 -3032023 -3070486 
3648.991 -3120821 -3179209 -3240351 -3297803 -3344823 -3376157 -3388880 
3652.367 -3383685 -3364222 -3336899 -3309312 -3288497 -3280473 -3287313 
3655.742 -3307108 -3333808 -3360408 -3380628 -3391872 -3395652 -3395192 
3659.117 -3394732 -3396705 -3401866 -3409164 -3416364 -3421032 -3421854 
3662.492 -3418632 -3411630 -3401932 -3389538 -3374513 -3355904 -3333052 
3665.868 -3305596 -3274422 -3241272 -3209995 -3184274 -3168716 -3164966 
3669.243 -3171644 -3181446 -3181807 -3160131 -3105754 -3015045 -2892227 
3672.618 -2747875 -2597941 -2460607 -2356779 -2304905 -2315617 -2386438 
3675.993 -2501558 -2639109 -2779975 -2913719 -3039065 -3157236 -3269653 
3679.369 -3374611 -3466856 -3541334 -3593948 -3624672 -3636632 -3634628 
3682.744 -3623226 -3604595 -3579357 -3546987 -3507285 -3463405 -3420473 
3686.119 -3385395 -3365669 -3366228 -3388025 -3426785 -3474416 -3521812 
3689.494 -3562630 -3593784 -3616852 -3634201 -3647870 -3658219 -3664692 
3692.870 -3666236 -3662392 -3654704 -3644880 -3635712 -3628779 -3624508 
3696.245 -3621222 -3616687 -3608111 -3594474 -3576564 -3556781 -3539691 
3699.620 -3530062 -3531672 -3546198 -3572029 -3604332 -3636304 -3661308 
3702.995 -3674351 -3673070 -3658219 -3632657 -3600159 -3564471 -3528123 
3706.371 -3492889 -3459460 -3427804 -3398578 -3372441 -3350807 -3335880 
3709.746 -3330027 -3335189 -3352681 -3381910 -3420440 -3463963 -3506759 
3713.121 -3543076 -3567987 -3579259 -3577024 -3563353 -3542353 -3519051 
3716.496 -3497721 -3481582 -3472346 -3469387 -3471261 -3476520 -3484211 
3719.872 -3494236 -3507417 -3523718 -3542090 -3559870 -3573508 -3579686 
3723.247 -3576564 -3565260 -3548926 -3532297 -3519544 -3512708 -3510243 
3726.622 -3508403 -3500481 -3481812 -3449599 -3405285 -3353273 -3300762 
3729.997 -3255249 -3222526 -3206015 -3204798 -3214600 -3229498 -3243903 
3733.373 -3256170 -3268601 -3285767 -3312436 -3350544 -3396573 -3443221 
3736.748 -3481352 -3503998 -3508961 -3497786 -3474186 -3441841 -3403378 
3740.123 -3359191 -3309805 -3256959 -3205062 -3162993 -3143026 -3156282 
3743.498 -3209863 -3298197 -3401734 -3491574 -3544161 -3550569 -3516685 
3746.874 -3457258 -3388025 -3324733 -3277908 -3253243 -3251698 -3270607 
3750.249 -3304741 -3348966 -3399170 -3450486 -3497162 -3533118 -3552706 
3753.624 -3553560 -3537456 -3510144 -3478722 -3450059 -3429514 -3419027 
3756.999 -3417383 -3421854 -3429119 -3437535 -3446476 -3455976 -3465213 
3760.375 -3471721 -3471951 -3462912 -3443945 -3417284 -3388222 -3362644 
3763.750 -3345514 -3338806 -3340121 -3344560 -3345054 -3337524 -3321544 
3767.125 -3301091 -3283498 -3275704 -3283136 -3306846 -3343640 -3385855 
3770.500 -3425503 -3455812 -3473627 -3479084 -3475139 -3465738 -3454365 
3773.875 -3443221 -3432735 -3422084 -3409625 -3394436 -3376189 -3356890 
3777.251 -3339661 -3328120 -3324931 -3330586 -3342653 -3355838 -3364682 
3780.626 -3364748 -3355147 -3337820 -3317466 -3299808 -3288793 -3286227 
3784.001 -3291357 -3301025 -3311581 -3319998 -3325128 -3327660 -3329337 
3787.376 -3331704 -3335814 -3341930 -3349131 -3356561 -3363466 -3368956 
3790.752 -3372244 -3371883 -3366589 -3355739 -3339661 -3320393 -3302012 
3794.127 -3289121 -3285570 -3292903 -3309410 -3329041 -3343870 -3346500 
3797.502 -3332592 -3302735 -3261827 -3218974 -3185162 -3169571 -3178321 
3800.877 -3210949 -3258834 -3307503 -3341470 -3351597 -3336176 -3301814 
3804.253 -3259327 -3222000 -3201805 -3206805 -3238543 -3290963 -3351597 
3807.628 -3405154 -3440953 -3455055 -3449763 -3430894 -3404956 -3376091 
3811.003 -3345415 -3311318 -3271791 -3226012 -3175854 -3126907 -3086936 
3814.378 -3064926 -3066571 -3092331 -3133749 -3177334 -3208581 -3217428 
3817.754 -3202430 -3169670 -3131644 -3102102 -3094700 -3118091 -3172038 
3821.129 -3246501 -3323024 -3383554 -3416002 -3418632 -3397757 -3365143 
3824.504 -3332625 -3309443 -3300631 -3304938 -3317368 -3329698 -3334170 
3827.879 -3327528 -3309969 -3285734 -3260741 -3240911 -3229827 -3228084 
3831.255 -3233149 -3240351 -3244035 -3239233 -3223282 -3196115 -3160493 
3834.630 -3120953 -3083811 -3055680 -3041960 -3046073 -3067953 -3103681 
3838.005 -3146151 -3187761 -3222000 -3245482 -3258702 -3264194 -3265937 
3841.380 -3267845 -3272482 -3281558 -3294975 -3311350 -3328515 -3343640 
3844.756 -3353536 -3355970 -3349262 -3333447 -3309443 -3278993 -3243114 
3848.131 -3202167 -3155296 -3100852 -3037979 -2967495 -2894432 -2827776 
3851.506 -2780502 -2767695 -2800453 -2880641 -2995005 -3119374 -3228183 
3854.881 -3303919 -3343640 -3353175 -3342850 -3321840 -3296915 -3271758 
3858.257 -3247554 -3224730 -3203516 -3184603 -3168552 -3156414 -3148256 
3861.632 -3143421 -3141480 -3142401 -3146710 -3154868 -3166249 -3177499 
3865.007 -3183616 -3178518 -3158059 -3122499 -3076869 -3030938 -2996091 
3868.382 -2983192 -2998296 -3039624 -3096707 -3153026 -3194339 -3213317 
3871.758 -3211771 -3197760 -3182597 -3174834 -3178617 -3191938 -3207627 
3875.133 -3217033 -3213120 -3193385 -3160328 -3120656 -3081935 -3052094 
3878.508 -3036860 -3038867 -3056306 -3083745 -3112893 -3134736 -3142697 
3881.883 -3133749 -3110327 -3078612 -3047159 -3025509 -3021757 -3039065 
3885.259 -3074335 -3117926 -3156513 -3178058 -3176248 -3151842 -3111709 
3888.634 -3065650 -3023962 -2995532 -2984837 -2991978 -3012709 -3039953 
3892.009 -3066735 -3087561 -3100128 -3104043 -3099799 -3088022 -3068643 
3895.384 -3041993 -3008892 -2971773 -2934190 -2900752 -2876329 -2863887 
3898.760 -2864249 -2875309 -2893050 -2912995 -2931195 -2945808 -2957589 
3902.135 -2968515 -2980987 -2996256 -3014354 -3032846 -3048672 -3059135 
3905.510 -3062096 -3057523 -3046534 -3031464 -3014815 -2998757 -2984870 
3908.885 -2974241 -2967100 -2963118 -2961538 -2961177 -2960518 -2958313 
3912.260 -2953410 -2945149 -2933861 -2920762 -2907992 -2897723 -2892128 
3915.636 -2892359 -2898448 -2909046 -2922112 -2935474 -2947289 -2956668 
3919.011 -2962822 -2965817 -2965126 -2960518 -2951732 -2939324 -2924416 
3922.386 -2909342 -2896933 -2889495 -2888475 -2893511 -2902496 -2912271 
3925.761 -2919512 -2922046 -2919117 -2911975 -2902134 -2892523 -2885414 
3929.137 -2882352 -2884854 -2893642 -2908354 -2928365 -2951863 -2975919 
3932.512 -2996717 -3010899 -3015637 -3010109 -2995795 -2975689 -2953772 
3935.887 -2933367 -2916188 -2902595 -2891338 -2880016 -2867080 -2851905 
3939.262 -2835545 -2820468 -2809341 -2804107 -2805819 -2813489 -2824517 
3942.638 -2836105 -2845091 -2849469 -2848449 -2842886 -2834360 -2824781 
3946.013 -2816419 -2810691 -2808189 -2808946 -2812172 -2816518 -2820929 
3949.388 -2825011 -2828073 -2830805 -2833570 -2836566 -2839561 -2841470 
3952.763 -2841470 -2838508 -2832187 -2823003 -2811777 -2800057 -2788996 
3956.139 -2779317 -2771086 -2763876 -2756797 -2749323 -2741257 -2732597 
3959.514 -2724069 -2716463 -2710338 -2705959 -2703687 -2703226 -2704049 
3962.889 -2705597 -2707045 -2707902 -2707770 -2706321 -2703983 -2701118 
3966.264 -2698451 -2696014 -2693907 -2691503 -2688210 -2683172 -2676125 
3969.640 -2667102 -2656728 -2645894 -2635717 -2626957 -2620008 -2614870 
3973.015 -2611181 -2608382 -2605878 -2603079 -2599653 -2595075 -2589608 
3976.390 -2583086 -2576235 -2569450 -2563257 -2557691 -2552914 -2548237 
3979.765 -2543230 -2537729 -2531437 -2524618 -2518326 -2513088 -2509432 
3983.141 -2507883 -2508180 -2509992 -2512462 -2514834 -2516514 -2516580 
3986.516 -2514834 -2511309 -2506961 -2503041 -2501426 -2504029 -2512034 
3989.891 -2525277 -2542275 -2560029 -2575082 -2584667 -2586676 -2581209 
3993.266 -2570043 -2555945 -2542011 -2530976 -2524289 -2522049 -2523366 
3996.642 -2527089 -2531931 -2537202 -2542308 -2547314 -2551696 -2555121 
4000.017 -2556966 -2556867 
##END=
