
##TITLE=Z189_2_d
##JCAMP-DX=5.01  $$ Nicolet v. 1
##DATATYPE=INFRARED SPECTRUM
##ORIGIN=UniL
##OWNER=Nicolet
##LONGDATE=2011/09/14
##TIME=16:47:08
##SPECTROMETER/DATA SYSTEM=Nicolet iS5
##DATA PROCESSING=
Ratio against background
%Transmittance->Absorbance
Truncated
ElementMultiply or ElementDivide
##COMMENTS=
Number of sample scans: 32
Collection length: 51.24 sec
Sample gain: 2.0
Background collected on: Mer Sep 14 16:41:24 2011 (GMT+02:00);
Number of background scans: 32
Background gain: 2.0
Sample spacing:  1.000
Number of scan points: 12415
Resolution points: 8192
Number of FFT points: 65536
Apodization: N-B fort;
Phase correction: Mertz;
Laser frequency: 15798.0 cm-1
Number of rejected sample scans: 0
Number of rejected background scans: 0
Bench serial number: ASB1000141;
##RESOLUTION=4.000
##XUNITS=1/CM
##YUNITS=ABSORBANCE
##FIRSTX=649.893372
##LASTX=4000.122314
##FIRSTY=0.105220
##MAXX=4000.122314
##MINX=649.893372
##MAXY=0.270787
##MINY=-0.005156
##XFACTOR=1.000000
##YFACTOR=1.000000E-009
##NPOINTS=6950
##DELTAX=0.482117
##ZPD=6100
##XYDATA=(X++(Y..Y))
649.893 105220128 104491560 103768880 103097640 102516792 102047688 
652.786 101694440 101445520 101282160 101185984 101149096 101172056 
655.679 101263504 101432504 101683464 102011064 102400504 102829392 
658.571 103274248 103717888 104155480 104595000 105054496 105554664 
661.464 106110104 106722888 107383000 108073224 108778080 109487752 
664.357 110198032 110905528 111591824 112218408 112723896 113036576 
667.250 113117824 113010960 112853848 112801816 112946968 113272840 
670.142 113686256 114065160 114304104 114346736 114190688 113888720 
673.035 113517880 113150496 112817152 112499816 112148224 111715656 
675.928 111186688 110589288 109978880 109407432 108898168 108431224 
678.820 107956632 107420344 106797632 106104400 105392664 104720184 
681.713 104126424 103611160 103138768 102653592 102109600 101491552 
684.606 100816848 100126032 99458192 98837136 98261080 97712224 97168288 
687.981 96620512 96077616 95563712 95104488 94716208 94398768 94138312 
691.355 93915512 93716968 93541744 93402848 93320856 93315264 93398496 
694.730 93572976 93832072 94165472 94563888 95022744 95541456 96122880 
698.105 96769792 97482952 98261040 99099008 99989152 100922760 101889584 
701.480 102879528 103883720 104894584 105904464 106904800 107882200 
704.373 108818136 109691848 110483808 111181856 111787096 112312720 
707.265 112780120 113208464 113608984 113981024 114317816 114614424 
710.158 114877800 115129968 115405232 115735080 116137776 116608056 
713.051 117118368 117627848 118092576 118481440 118777792 118978720 
715.943 119086928 119107240 119046264 118916576 118747824 118589968 
718.836 118503648 118554616 118791200 119228568 119845408 120587184 
721.729 121382768 122153160 122830400 123361816 123708776 123850648 
724.621 123785832 123537000 123150792 122697512 122260288 121911192 
727.514 121700960 121646104 121730512 121915536 122157376 122425184 
730.407 122704280 122997144 123312872 123657720 124029648 124420120 
733.300 124819336 125224840 125642808 126086024 126566056 127087144 
736.192 127643856 128224376 128817048 129415352 130019784 130635096 
739.085 131262928 131899400 132534952 133160632 133774520 134384928 
741.978 135005952 135646896 136300160 136934032 137497360 137927136 
744.870 138170464 138200080 138019104 137658928 137165792 136592496 
747.763 135984512 135380320 134814688 134317344 133913640 133620304 
750.656 133438392 133353072 133336264 133359728 133402440 133461816 
753.548 133551480 133695888 133916736 134221952 134601520 135028512 
756.441 135468800 135885232 136246896 136530480 136717264 136794576 
759.334 136757632 136612704 136380128 136093952 135795984 135521760 
762.227 135295024 135121184 134991344 134890400 134807472 134742528 
765.119 134705936 134712608 134772944 134888960 135053024 135252048 
768.012 135472864 135706128 135946080 136189984 136437824 136697120 
770.905 136990064 137356192 137848672 138519296 139389600 140425344 
773.797 141517392 142501136 143171200 143336352 142880016 141779312 
776.690 140114720 138028112 135687920 133231280 130731704 128201720 
779.583 125604136 122884656 119994456 116913096 113652464 110253544 
782.475 106773944 103280304 99842808 96522728 93373152 90434968 87732176 
785.850 85275272 83063088 81086568 79334416 77796624 76466192 75338264 
789.225 74408776 73672696 73123880 72756680 72568312 72560448 72739048 
792.600 73111296 73682040 74447200 75390048 76476040 77654872 78858736 
795.975 80001080 80987624 81715616 82082272 82007792 81441272 80378296 
799.350 78863856 76990896 74885280 72677392 70497000 68446880 66591636 
802.724 64960180 63543016 62303668 61186468 60135412 59106264 58074356 
806.099 57041720 56032680 55085972 54237568 53510660 52905724 52399564 
809.474 51950040 51506504 51024924 50473572 49838544 49122480 48339072 
812.849 47507212 46644732 45769676 44898364 44045480 43226152 42453300 
816.224 41736132 41079548 40483668 39945600 39460948 39026536 38640760 
819.598 38303672 38015560 37775884 37583056 37435240 37331564 37274336 
822.973 37268200 37319720 37435712 37619980 37871644 38184012 38544436 
826.348 38933748 39327292 39696980 40009680 40233104 40339444 40309012 
829.723 40136644 39833508 39427384 38955856 38463408 37995272 37587356 
833.098 37267332 37049468 36932824 36901728 36925968 36967024 36978784 
836.473 36918032 36753892 36470836 36075480 35591964 35059376 34519624 
839.847 34009168 33555904 33173594 32864526 32623570 32442190 32312460 
843.222 32227450 32182592 32173566 32196582 32248114 32324814 32424662 
846.597 32546316 32688082 32847300 33020016 33200312 33381828 33559840 
849.972 33731160 33895524 34054428 34210524 34366680 34525900 34692144 
853.347 34869764 35064732 35283864 35533024 35816904 36138812 36499884 
856.721 36901908 37347920 37843048 38394880 39012796 39705404 40481776 
860.096 41350204 42317844 43392208 44578012 45876276 47278388 48764148 
863.471 50299460 51834140 53311244 54671312 55859236 56837388 57588352 
866.846 58122156 58475024 58710320 58913976 59178172 59600728 60271104 
870.221 61257120 62606828 64339408 66444076 68875568 71553032 74363432 
873.596 77148888 79725424 81898584 83468904 84278024 84226536 83288280 
876.970 81516656 79031880 76007176 72628040 69084976 65553568 62168528 
880.345 59034208 56217472 53748340 51633588 49860172 48405776 47241964 
883.720 46339568 45671240 45208072 44922504 44787268 44774928 44862504 
887.095 45033344 45279516 45602524 46011852 46521420 47144888 47892956 
890.470 48772304 49786108 50936916 52229468 53671884 55276156 57056452 
893.844 59026580 61197108 63571200 66139692 68871104 71703664 74541088 
897.219 77236792 79611896 81473120 82626944 82929920 82309600 80781408 
900.594 78445368 75473384 72088440 68513176 64962796 61618580 58604204 
903.969 55999356 53837860 52117152 50811488 49881320 49283756 48974764 
907.344 48916316 49079704 49443608 49996296 50734060 51659004 52776360 
910.719 54090132 55597948 57285384 59118904 61038936 62966308 64800292 
914.093 66429176 67755104 68699864 69223456 69330880 69071928 68534672 
917.468 67824824 67062036 66355400 65785936 65406048 65227816 65227628 
920.843 65350892 65526588 65683172 65758416 65719016 65565704 65338032 
924.218 65105504 64962724 65018216 65369920 66100532 67260712 68857792 
927.593 70849232 73136232 75576640 77973352 80098568 81728568 82644496 
930.967 82680368 81748688 79849048 77079040 73616208 69709472 65623388 
934.342 61609228 57887900 54609464 51862888 49681672 48055184 46947196 
937.717 46309892 46096880 46260980 46751580 47512168 48465900 49516088 
941.092 50556984 51471884 52156380 52536820 52573728 52273900 51683336 
944.467 50882336 49964360 49020648 48132544 47354648 46717452 46230500 
947.841 45887948 45675876 45577280 45575956 45656112 45800936 45993840 
951.216 46216380 46451100 46684280 46907400 47118632 47321504 47523772 
954.591 47734120 47959408 48205620 48476608 48775048 49103708 49464956 
957.966 49859764 50287636 50745788 51229896 51735736 52261044 52805920 
961.341 53373060 53966116 54587936 55239092 55917872 56621116 57346260 
964.716 58092876 58863128 59660712 60489660 61352360 62248980 63177684 
968.090 64136148 65122596 66136376 67177856 68246888 69343080 70464728 
971.465 71610576 72780536 73977264 75205672 76471888 77782000 79140200 
974.840 80549248 82011552 83530152 85111152 86763184 88496064 90320728 
978.215 92247448 94286368 96449528 98751488 101210240 103846936 106682352 
981.590 109733608 113013064 116525320 120267536 124224952 128370104 
984.482 132650200 136976624 141227056 145231568 148785152 151683824 
987.375 153729936 154775312 154747008 153651424 151580080 148690000 
990.268 145202144 141362832 137417440 133606728 130123136 127107888 
993.160 124652952 122794832 121531384 120833584 120661240 120970808 
996.053 121721176 122879112 124413328 126294840 128497424 130993696 
998.946 133755712 136753856 139945984 143272432 146652512 149971552 
1001.839 153094208 155879184 158184896 159901680 160963856 161357440 
1004.731 161124176 160357200 159199232 157814912 156386960 155100432 
1007.624 154108320 153536096 153468688 153946720 154979824 156555280 
1010.517 158650880 161241376 164304832 167822944 171776656 176146448 
1013.409 180912640 186053072 191543888 197352512 203417824 209638112 
1016.302 215852624 221820480 227256144 231842176 235273472 237333888 
1019.195 237923728 237098992 235058992 232142992 228785040 225425312 
1022.087 222507504 220402576 219361200 219530368 220931872 223489024 
1024.980 227039664 231375072 236271280 241483904 246783808 251953808 
1027.873 256776512 261063696 264656400 267440832 269369248 270458848 
1030.766 270786624 270462496 269617472 268382992 266868352 265164768 
1033.659 263332896 261394624 259330032 257075104 254534816 251589984 
1036.552 248129952 244077984 239400320 234117040 228291728 222021456 
1039.446 215415280 208588208 201659520 194739280 187932240 181334096 
1042.339 175016768 169035280 163426400 158211424 153409088 149040240 
1045.232 145128928 141705024 138797120 136425664 134602656 133327976 
1048.125 132592144 132378088 132663608 133422672 134621536 136221344 
1051.018 138176672 140435152 142947216 145665968 148547840 151553728 
1053.911 154637632 157736816 160771712 163635264 166200832 168343712 
1056.804 169941872 170897936 171152784 170686112 169526080 167746208 
1059.697 165473584 162875904 160143744 157491520 155117760 153190992 
1062.590 151849616 151180528 151228528 151998528 153460752 155552448 
1065.483 158176224 161212912 164512208 167902832 171220064 174301616 
1068.376 177010112 179246608 180938688 182042016 182532352 182397984 
1071.269 181640160 180273664 178328896 175851472 172898704 169544064 
1074.162 165871568 161980720 157995312 154050064 150293696 146881776 
1077.055 143949376 141613776 139961936 139040704 138859200 139383040 
1079.948 140537120 142193520 144175456 146278064 148259856 149887504 
1082.842 150975680 151401824 151143680 150277712 148974784 147459440 
1085.735 145978544 144784672 144084832 144035936 144733904 146200544 
1088.628 148386560 151168512 154373184 157774464 161117584 164165104 
1091.521 166693280 168525568 169549840 169707936 169000480 167475840 
1094.414 165226256 162372048 159043664 155379168 151498368 147496384 
1097.307 143447392 139400384 135388736 131438736 127570736 123802224 
1100.200 120147352 116614592 113209752 109938936 106812840 103851648 
1103.093 101086656 98555128 96301224 94368504 92793712 91609360 90840392 
1106.468 90503776 90611888 91170808 92179560 93628176 95497280 97756584 
1109.844 100361720 103258904 106380936 109642200 112946144 116175480 
1112.737 119194472 121868720 124064128 125666800 126601976 126833408 
1115.630 126369120 125253232 123562016 121392448 118847696 116038904 
1118.523 113066960 110014736 106948584 103910952 100925144 98004400 95156872 
1121.898 92393672 89732264 87194344 84806088 82594808 80584832 78799896 
1125.273 77263272 75996048 75020608 74357768 74023624 74029088 74375976 
1128.648 75056568 76052024 77332592 78859608 80579360 82426840 84326824 
1132.024 86189504 87926496 89458792 90725968 91703064 92403760 92881600 
1135.399 93215832 93504584 93849256 94330624 95005840 95894440 96976120 
1138.774 98189088 99437072 100607104 101571264 102210584 102430920 102161904 
1142.149 101367344 100040048 98197272 95875936 93127960 90023528 86641736 
1145.525 83069904 79401728 75721624 72106824 68623296 65319464 62232572 
1148.900 59388168 56800492 54476436 52415188 50610552 49051140 47722508 
1152.275 46609320 45695568 44966968 44412200 44021868 43789304 43709856 
1155.650 43779556 43995504 44355904 44859456 45506332 46297360 47233796 
1159.026 48316332 49544720 50916980 52429360 54074820 55841976 57714164 
1162.401 59664476 61655128 63640020 65560544 67352440 68952928 70297384 
1165.776 71329568 72004664 72288648 72165232 71635552 70719440 69451544 
1169.151 67877272 66049956 64020828 61840952 59559116 57217832 54858160 
1172.527 52517448 50226256 48011916 45896088 43894316 42018916 40278256 
1175.902 38677160 37218272 35901508 34724736 33684140 32775008 31993054 
1179.277 31334176 30795472 30374826 30070508 29880432 29801784 29830636 
1182.652 29962394 30192678 30517342 30933466 31439032 32031860 32708946 
1186.028 33464312 34288616 35169592 36090640 37032364 37974116 38891928 
1189.403 39761860 40561364 41270328 41875856 42374172 42772528 43087820 
1192.778 43345124 43574996 43807080 44069464 44385920 44772872 45240648 
1196.153 45792320 46423996 47122952 47867872 48630380 49371580 50045704 
1199.529 50603404 50989376 51150972 51043372 50632408 49904700 48869816 
1202.904 47563512 46040620 44370140 42629260 40887500 39205972 37632668 
1206.279 36197804 34918344 33800060 32839686 32028970 31355794 30807778 
1209.654 30371306 30033688 29784326 29614946 29520174 29497620 29546420 
1213.030 29666350 29856688 30115252 30438542 30821722 31258256 31741030 
1216.405 32260674 32805808 33364258 33922676 34467428 34987472 35472904 
1219.780 35916192 36311800 36655532 36944980 37180552 37366808 37512648 
1223.155 37631620 37742200 37865356 38022140 38233652 38517168 38885188 
1226.531 39344632 39895252 40529168 41229484 41973072 42729716 43464824 
1229.906 44145312 44739700 45221968 45575624 45793572 45881172 45855172 
1233.281 45746300 45595972 45450444 45362416 45382136 45552548 45911848 
1236.656 46488308 47301740 48366260 49689100 51272136 53109524 55187356 
1240.031 57480432 59949404 62545440 65205520 67854528 70413880 72795464 
1243.407 74910672 76682544 78046112 78962088 79420976 79443488 79077032 
1246.782 78385512 77449176 76351152 75170528 73982496 72843968 71790352 
1250.157 70831560 69950040 69105344 68240184 67298544 66233428 65019524 
1253.532 63659428 62182752 60641804 59097760 57617448 56259824 55066224 
1256.908 54059956 53241308 52589732 52063772 51608436 51162640 50660628 
1260.283 50045816 49275552 48323296 47183564 45869132 44409996 42845844 
1263.658 41224016 39594500 38001020 36481904 35065916 33770084 32603316 
1267.033 31566080 30654072 29858710 29169998 28577664 28071420 27641642 
1270.409 27280098 26978364 26729446 26526880 26365174 26239958 26147610 
1273.784 26085046 26049192 26037126 26045746 26072414 26115130 26172208 
1277.159 26241754 26320850 26404996 26487926 26562384 26621318 26659366 
1280.534 26673210 26661620 26623572 26558086 26462746 26334756 26172208 
1283.910 25976442 25752884 25512574 25269516 25039616 24839098 24681176 
1287.285 24577238 24537092 24569524 24683948 24890502 25198758 25616702 
1290.660 26148770 26794394 27545994 28387708 29295600 30233812 31156966 
1294.035 32015026 32753068 33324190 33695672 33853972 33808196 33587692 
1297.411 33238478 32810918 32355938 31919050 31533084 31221262 30996198 
1300.786 30861314 30812688 30839650 30926778 31053850 31198584 31340230 
1304.161 31459160 31540460 31574308 31555284 31482778 31359818 31193206 
1307.536 30992390 30768832 30535932 30306818 30093554 29907302 29756788 
1310.912 29649144 29590258 29584974 29637116 29749586 29923630 30159752 
1314.287 30457308 30815924 31235432 31716224 32259210 32864918 33533208 
1317.662 34263800 35056252 35910112 36824936 37799020 38827572 39900736 
1321.037 41001648 42106928 43185492 44199160 45108656 45873400 46459208 
1324.413 46846536 47035804 47053120 46946860 46787004 46651076 46607364 
1327.788 46709920 46984040 47425640 48003884 48672220 49380192 50080284 
1331.163 50740092 51343136 51889284 52391936 52875560 53372196 53914008 
1334.538 54531768 55249100 56077316 57013456 58039472 59126648 60235624 
1337.914 61322560 62345088 63260048 64029656 64624576 65024524 65222464 
1341.289 65222816 65040036 64693296 64202672 63587928 62864660 62046080 
1344.664 61143020 60162968 59111920 57994220 56814540 55579420 54300608 
1348.039 52994848 51687180 50409372 49195948 48086012 47118816 46329576 
1351.415 45751896 45412960 45332076 45521932 45986396 46720436 47707084 
1354.790 48916576 50303072 51800392 53331472 54807712 56135792 57234236 
1358.165 58033072 58483064 58562832 58278888 57668032 56789656 55729812 
1361.540 54590712 53476180 52491012 51718416 51207152 50968844 50976412 
1364.916 51175612 51490536 51841380 52150404 52345808 52376460 52213924 
1368.291 51857216 51329748 50673472 49939268 49172828 48414408 47694992 
1371.666 47036468 46458656 45981496 45625268 45410496 45352560 45455816 
1375.041 45711584 46099716 46594488 47169380 47803356 48482164 49197208 
1378.417 49945476 50728584 51552356 52425208 53356648 54351260 55402728 
1381.792 56486452 57554456 58543080 59372440 59960320 60237264 60147020 
1385.167 59660752 58784440 57572160 56128480 54591840 53119520 51839924 
1388.542 50829292 50109140 49654328 49413608 49324252 49327964 49371468 
1391.917 49404992 49385392 49271248 49027212 48633048 48088564 47416732 
1395.293 46653808 45838456 44996588 44137132 43258072 42357440 41444056 
1398.668 40545940 39705620 38967276 38365088 37911452 37599460 37410144 
1402.043 37322644 37321020 37396020 37544836 37767464 38062720 38426768 
1405.418 38852284 39330556 39853448 40414604 41009152 41633320 42283072 
1408.794 42953956 43642108 44344452 45059476 45787460 46528208 47279388 
1412.169 48034604 48782240 49508476 50199512 50844824 51441448 51993140 
1415.544 52509408 53001472 53480752 53958164 54444584 54954640 55506672 
1418.919 56116000 56791428 57525972 58297608 59074108 59822372 60515256 
1422.295 61132336 61664676 62114964 62496348 62828972 63134148 63429072 
1425.670 63721284 64009808 64286768 64542300 64765788 64949064 65087304 
1429.045 65179460 65228664 65241984 65230584 65209532 65195360 65205680 
1432.420 65255196 65352700 65500320 65694228 65928340 66197960 66506056 
1435.796 66867276 67308256 67856896 68530792 69328112 70224504 71177624 
1439.171 72130880 73023280 73784608 74343064 74639448 74625632 74274024 
1442.546 73577184 72543960 71197848 69572360 67714600 65678084 63515896 
1445.921 61283140 59032276 56817600 54705588 52767680 51071548 49667476 
1449.297 48575312 47787860 47281824 47032960 47023584 47242628 47678756 
1452.672 48309004 49091280 49971164 50875256 51720472 52423600 52901532 
1456.047 53099748 53017532 52727760 52348392 51988056 51713196 51538516 
1459.422 51451296 51434284 51477072 51576908 51732676 51937868 52175436 
1462.798 52417284 52633160 52798324 52906960 52975644 53040704 53140788 
1466.173 53299292 53519544 53783668 54062884 54321332 54523464 54634000 
1469.548 54610852 54404920 53959776 53219920 52155148 50785116 49194612 
1472.923 47509024 45853332 44311320 42910980 41643712 40491816 39449084 
1476.299 38528936 37756836 37153764 36726920 36464136 36341736 36334100 
1479.674 36424352 36609276 36897400 37302676 37837336 38507140 39311476 
1483.049 40247100 41312740 42511912 43850988 45332480 46949816 48677412 
1486.424 50463260 52234324 53890072 55309688 56369448 56945948 56944544 
1489.800 56326628 55126144 53450732 51448424 49276704 47056888 44857948 
1493.175 42710336 40613168 38557072 36546128 34604012 32777690 31127064 
1496.550 29703814 28534952 27617138 26928018 26436618 26115200 25943624 
1499.925 25905426 25984990 26166086 26430314 26758802 27134514 27536850 
1503.301 27939844 28308518 28587218 28701610 28564570 28095986 27265810 
1506.676 26125334 24798228 23418858 22077810 20805504 19592546 18419332 
1510.051 17275654 16165104 15106753 14126169 13243125 12468760 11802020 
1513.426 11233198 10749277 10337654 9987310 9687423 9428442 9203121 9008292 
1517.284 8846656 8724057 8645194 8608793 8605109 8616702 8624711 8617073 
1521.141 8596558 8581418 8597201 8661520 8775108 8924609 9090436 9256834 
1524.999 9416591 9574816 9744890 9942930 10178778 10452224 10755730 11079944 
1528.856 11419095 11773354 12147631 12548423 12979217 13440102 13927239 
1532.231 14435646 14961727 15505788 16070163 16655345 17258310 17871026 
1535.606 18483048 19082122 19656506 20197180 20694810 21141382 21529638 
1538.982 21853182 22106154 22285986 22397298 22451656 22465160 22453366 
1542.357 22424476 22377134 22301158 22184466 22018480 21806390 21562680 
1545.732 21309052 21063502 20832166 20606862 20368756 20098332 19782682 
1549.107 19424430 19041476 18660522 18303056 17976342 17671408 17369964 
1552.483 17054564 16718183 16368676 16026532 15715783 15450849 15230344 
1555.858 15034989 14833516 14586183 14249858 13790782 13201315 12521583 
1559.233 11834775 11231124 10761232 10425921 10195297 10030303 9896318 
1562.608 9765019 9618378 9449369 9263468 9076294 8907360 8773046 8678320 
1566.466 8616431 8571752 8527552 8470820 8397003 8311544 8227522 8159959 
1570.323 8118973 8108170 8125320 8166035 8224990 8296752 8374640 8448994 
1574.181 8508088 8541744 8545731 8527585 8506973 8509439 8553199 8643031 
1578.038 8771389 8925522 9093616 9268512 9449098 9638196 9840628 10059295 
1581.896 10294528 10543501 10801449 11062337 11319301 11565018 11790104 
1585.271 11984550 12139590 12249388 12313943 12340294 12342202 12337635 
1588.646 12345884 12386146 12473023 12617253 12825174 13098175 13431217 
1592.021 13810757 14215107 14612946 14967214 15243761 15413255 15459399 
1595.396 15381398 15193695 14922255 14597114 14249242 13903734 13578022 
1598.772 13284153 13028005 12811387 12632467 12487004 12369782 12275904 
1602.147 12203141 12152367 12127324 12132230 12169848 12239232 12335248 
1605.522 12449427 12570831 12688380 12789581 12862272 12894765 12875481 
1608.897 12796440 12653753 12450757 12198268 11913845 11620317 11339366 
1612.273 11087932 10875133 10701152 10558914 10437154 10323776 10208052 
1615.648 10083881 9953372 9826426 9718765 9644904 9614177 9627051 9677157 
1619.505 9752853 9840424 9927607 10003957 10064891 10112267 10154424 
1622.881 10203100 10268743 10357199 10467871 10595920 10734774 10879652 
1626.256 11026888 11174481 11321342 11466721 11611231 11757285 11909759 
1629.631 12074923 12257772 12460849 12682819 12918727 13160466 13399401 
1633.006 13628381 13841371 14035676 14211649 14374233 14532424 14698487 
1636.382 14885495 15101641 15349576 15626127 15923750 16232172 16540365 
1639.757 16840716 17129454 17408486 17683658 17961838 18246414 18535052 
1643.132 18818794 19084614 19319348 19513002 19661844 19771132 19853742 
1646.507 19927070 20008042 20111174 20244668 20411400 20610058 20834670 
1649.883 21073482 21306790 21507982 21641244 21671580 21584410 21410264 
1653.258 21226166 21110248 21099848 21179162 21306824 21440410 21551086 
1656.633 21624910 21658624 21655906 21622542 21562194 21474282 21354156 
1660.008 21195756 20993772 20745930 20453458 20121342 19758892 19378554 
1663.384 18995194 18623202 18273300 17948820 17645146 17348892 17040848 
1666.759 16697831 16298629 15829513 15289132 14690878 14060967 13431489 
1670.134 12830600 12277301 11778767 11332327 10927422 10547609 10173148 
1673.509 9783182 9361944 8907530 8437710 7988512 7597604 7290770 7070528 
1677.367 6920788 6816637 6735158 6664057 6602186 6558353 6543889 6565855 
1681.224 6621800 6700162 6783351 6856692 6914492 6967620 7040354 7160288 
1685.082 7342899 7585296 7874692 8197267 8543907 8909017 9288212 9676648 
1688.939 10066044 10446760 10811096 11154933 11479274 11788436 12086677 
1692.314 12374588 12647954 12895891 13105243 13263553 13366631 13423528 
1695.689 13458181 13499298 13563391 13647391 13728024 13772004 13739993 
1699.065 13599662 13340594 12990210 12611249 12268542 11999367 11798888 
1702.440 11637163 11476179 11283729 11038817 10732159 10368160 9962390 
1705.815 9537083 9112260 8700799 8307492 7929995 7562402 7197479 6829225 
1709.673 6454088 6072251 5687325 5305391 4932806 4573801 4229679 3898568 
1713.530 3576963 3262140 2953215 2651644 2359411 2076829 1802316 1533397 
1717.387 1271124 1023323 802883 622338 488703 399017 342741 304277 268733 
1721.727 225436 170574 107500 44103 -10867 -52911 -82562 -105254 -126785 
1726.067 -151098 -178986 -208594 -238665 -269329 -302706 -341874 -388223 
1729.924 -440062 -493714 -546268 -599047 -660058 -743586 -864037 -1028686 
1733.781 -1227437 -1432273 -1608788 -1733587 -1804470 -1835947 -1848980 
1737.157 -1862441 -1890153 -1937426 -2001283 -2072913 -2141894 -2200414 
1740.532 -2245708 -2279164 -2303851 -2321516 -2332458 -2336182 -2332689 
1743.907 -2323659 -2311959 -2300192 -2289513 -2279230 -2267331 -2252597 
1747.282 -2235225 -2218084 -2205062 -2199755 -2203513 -2215447 -2231566 
1750.658 -2247224 -2258893 -2263771 -2261464 -2252168 -2236742 -2216633 
1754.033 -2194282 -2173875 -2160292 -2158445 -2170545 -2194447 -2223457 
1757.408 -2249202 -2264595 -2267825 -2262123 -2254146 -2252168 -2261727 
1760.783 -2283746 -2314463 -2346695 -2373157 -2389634 -2395895 -2394610 
1764.159 -2389008 -2382121 -2375266 -2369335 -2365051 -2363304 -2365117 
1767.534 -2369598 -2374443 -2375892 -2371081 -2359745 -2345542 -2335457 
1770.909 -2337369 -2356812 -2393193 -2438335 -2480177 -2508641 -2519446 
1774.284 -2515131 -2502975 -2490390 -2481429 -2476520 -2473193 -2468020 
1777.660 -2460212 -2452074 -2448417 -2454084 -2471117 -2496979 -2525112 
1781.035 -2547908 -2560787 -2563620 -2561248 -2559601 -2564081 -2576070 
1784.410 -2593066 -2609567 -2620699 -2623993 -2620139 -2611938 -2601893 
1787.785 -2591617 -2581209 -2570010 -2558975 -2551564 -2552816 -2567935 
1791.161 -2599489 -2644840 -2695718 -2742639 -2777045 -2795580 -2800716 
1794.536 -2798444 -2794296 -2792222 -2793671 -2797885 -2804206 -2812337 
1797.911 -2823365 -2838837 -2859805 -2885216 -2912732 -2939127 -2961440 
1801.286 -2978717 -2991715 -3001850 -3009649 -3014913 -3015933 -3011755 
1804.662 -3002607 -2990135 -2977466 -2967758 -2962723 -2961900 -2963480 
1808.037 -2965553 -2967199 -2969140 -2972629 -2979013 -2987931 -2996618 
1811.412 -3001653 -3000567 -2993196 -2982863 -2974504 -2972596 -2979276 
1814.787 -2992899 -3008464 -3019685 -3021066 -3010734 -2989806 -2962197 
1818.163 -2932578 -2904142 -2878139 -2854308 -2831726 -2810296 -2790675 
1821.538 -2774477 -2762954 -2757521 -2757982 -2764304 -2775827 -2791103 
1824.913 -2808650 -2825011 -2837026 -2841767 -2838047 -2827414 -2814181 
1828.288 -2804831 -2804765 -2817374 -2841207 -2870371 -2896571 -2913357 
1831.664 -2917833 -2911284 -2897723 -2881464 -2865434 -2850259 -2835018 
1835.039 -2818295 -2799695 -2779876 -2760287 -2741520 -2722060 -2698352 
1838.414 -2666707 -2624092 -2570471 -2509530 -2446605 -2388184 -2339115 
1841.789 -2301939 -2276560 -2261002 -2251509 -2243466 -2232555 -2214589 
1845.165 -2186831 -2148324 -2101041 -2048180 -1995148 -1947387 -1908759 
1848.540 -1880718 -1861814 -1848881 -1838983 -1831130 -1827006 -1830668 
1851.915 -1845977 -1874285 -1913312 -1958009 -2002404 -2041948 -2075749 
1855.290 -2106185 -2137509 -2173018 -2213238 -2255629 -2296336 -2331865 
1858.666 -2361063 -2386174 -2410525 -2437610 -2468910 -2503436 -2538816 
1862.041 -2572842 -2604989 -2635717 -2666740 -2698352 -2728942 -2755381 
1865.416 -2774477 -2784453 -2786790 -2785802 -2786823 -2793309 -2805555 
1868.791 -2819283 -2828961 -2829323 -2818723 -2799695 -2777111 -2755546 
1872.167 -2738260 -2725913 -2718010 -2713269 -2711754 -2714092 -2721435 
1875.542 -2733684 -2749027 -2763612 -2774115 -2778428 -2777605 -2775300 
1878.917 -2775959 -2783235 -2798082 -2818263 -2839594 -2858719 -2873597 
1882.292 -2885183 -2895551 -2907334 -2920927 -2935408 -2948210 -2956964 
1885.667 -2961242 -2962460 -2963019 -2965586 -2971115 -2978815 -2987305 
1889.043 -2994446 -2999086 -3001422 -3002047 -3001290 -2998559 -2992965 
1892.418 -2983685 -2971609 -2958873 -2948440 -2942451 -2941727 -2944063 
1895.793 -2946301 -2944820 -2937778 -2925963 -2912337 -2899994 -2890680 
1899.168 -2884854 -2880378 -2875243 -2868133 -2859246 -2850358 -2843149 
1902.544 -2837816 -2833274 -2827118 -2817242 -2803251 -2786790 -2770987 
1905.919 -2758740 -2751398 -2748138 -2746492 -2744483 -2740993 -2737240 
1909.294 -2736219 -2739972 -2749027 -2762592 -2777868 -2792091 -2804930 
1912.669 -2817077 -2830508 -2846276 -2864611 -2883011 -2899665 -2913884 
1916.045 -2926193 -2941233 -2962822 -2992801 -3030280 -3070420 -3107859 
1919.420 -3139210 -3165262 -3190458 -3220816 -3260610 -3308785 -3359290 
1922.795 -3402951 -3431059 -3439080 -3429119 -3407323 -3381746 -3358567 
1926.170 -3339661 -3324010 -3309772 -3295961 -3284583 -3279388 -3283367 
1929.546 -3296816 -3316710 -3337064 -3351958 -3359027 -3359849 -3359816 
1932.921 -3364584 -3377833 -3398842 -3424944 -3451242 -3474975 -3496997 
1936.296 -3520432 -3548400 -3581954 -3618133 -3651549 -3676783 -3690943 
1939.671 -3695641 -3696068 -3698631 -3706351 -3718243 -3729018 -3730398 
1943.047 -3717258 -3687395 -3644222 -3593652 -3542846 -3495913 -3456370 
1946.422 -3425141 -3403378 -3391707 -3391247 -3401373 -3419454 -3441841 
1949.797 -3463109 -3478887 -3488484 -3492527 -3493973 -3495715 -3498246 
1953.172 -3501007 -3503834 -3506858 -3513168 -3527498 -3553330 -3591188 
1956.548 -3637191 -3683682 -3721824 -3746692 -3757861 -3761014 -3763773 
1959.923 -3771985 -3785223 -3798887 -3804470 -3795339 -3771624 -3738512 
1963.298 -3705825 -3683452 -3677998 -3689661 -3714794 -3747086 -3781117 
1966.673 -3812780 -3840336 -3860566 -3870155 -3865886 -3846280 -3815703 
1970.049 -3784467 -3764857 -3768897 -3802401 -3860730 -3931792 -4000576 
1973.424 -4052839 -4081364 -4085467 -4067676 -4029663 -3969321 -3880828 
1976.799 -3758944 -3607552 -3439211 -3275606 -3139769 -3048804 -3007049 
1980.174 -3008135 -3036104 -3073217 -3107136 -3132006 -3149276 -3164637 
1983.550 -3183616 -3208449 -3239003 -3273172 -3308391 -3343409 -3377340 
1986.925 -3408145 -3432867 -3448152 -3451242 -3443452 -3430039 -3417712 
1990.300 -3413635 -3420013 -3432899 -3443550 -3441578 -3420572 -3380003 
1993.675 -3326739 -3270213 -3220717 -3183880 -3160427 -3147894 -3143223 
1997.051 -3144605 -3152829 -3170295 -3197891 -3234300 -3276362 -3318091 
2000.426 -3356101 -3389866 -3421920 -3455746 -3493809 -3534630 -3572851 
2003.801 -3602262 -3616917 -3615110 -3598220 -3571273 -3537982 -3502355 
2007.176 -3465969 -3430697 -3400288 -3380036 -3374085 -3385034 -3409033 
2010.552 -3437830 -3460085 -3466330 -3452426 -3422413 -3386151 -3352977 
2013.927 -3329665 -3316874 -3309114 -3299381 -3283498 -3262649 -3242884 
2017.302 -3233116 -3237326 -3255085 -3280078 -3302176 -3313225 -3310298 
2020.677 -3295435 -3274915 -3255348 -3241174 -3232853 -3230880 -3234333 
2024.052 -3244397 -3263372 -3291127 -3323549 -3353602 -3370765 -3365504 
2027.428 -3336274 -3287609 -3230748 -3179308 -3144079 -3128157 -3129243 
2030.803 -3138190 -3145888 -3145690 -3134999 -3113189 -3082198 -3043244 
2034.178 -2995302 -2940048 -2880378 -2821291 -2769802 -2731938 -2709614 
2037.553 -2701645 -2703423 -2708988 -2714224 -2717846 -2720118 -2722357 
2040.929 -2724991 -2726473 -2724168 -2716825 -2704872 -2691536 -2680801 
2044.304 -2675071 -2674116 -2673556 -2666838 -2646124 -2607328 -2548962 
2047.679 -2473917 -2387986 -2299138 -2215974 -2147631 -2102492 -2087456 
2051.054 -2104701 -2151786 -2218347 -2291227 -2353484 -2390853 -2397048 
2054.430 -2373882 -2331173 -2283350 -2244290 -2222105 -2218710 -2230511 
2057.805 -2251048 -2274582 -2297852 -2318913 -2336841 -2349925 -2355033 
2061.180 -2349101 -2330612 -2301049 -2265024 -2229061 -2197183 -2171270 
2064.555 -2149642 -2128244 -2103778 -2075782 -2046235 -2019621 -1999898 
2067.931 -1988651 -1984165 -1983571 -1983571 -1982846 -1983209 -1987200 
2071.306 -1997259 -2014212 -2035517 -2056953 -2075453 -2088874 -2097909 
2074.681 -2104800 -2111395 -2117363 -2120528 -2117462 -2105625 -2085378 
2078.056 -2060283 -2035253 -2015498 -2003559 -1998710 -1998084 -1998051 
2081.432 -1996303 -1992872 -1989838 -1988816 -1991454 -1996863 -2002734 
2084.807 -2006659 -2007582 -2005604 -2002899 -2001547 -2002404 -2005340 
2088.182 -2009495 -2014014 -2019719 -2028921 -2044223 -2067703 -2099294 
2091.557 -2135597 -2171633 -2202128 -2222567 -2230907 -2227709 -2214952 
2094.933 -2194941 -2170941 -2144697 -2118913 -2095798 -2077233 -2063911 
2098.308 -2055337 -2049170 -2042047 -2032318 -2019423 -2004845 -1991949 
2101.683 -1983670 -1981329 -1983242 -1986177 -1986606 -1982417 -1973709 
2105.058 -1962429 -1950884 -1939999 -1928321 -1912586 -1889857 -1859142 
2108.434 -1822782 -1786387 -1755401 -1734478 -1725336 -1725534 -1731178 
2111.809 -1738801 -1746689 -1755929 -1769162 -1788334 -1813247 -1841490 
2115.184 -1868511 -1890252 -1904636 -1911926 -1914499 -1915357 -1915984 
2118.559 -1916182 -1914961 -1910409 -1902063 -1891440 -1880982 -1872338 
2121.935 -1866928 -1863761 -1861550 -1859175 -1857591 -1858680 -1866202 
2125.310 -1883456 -1911234 -1949400 -1995511 -2046993 -2102789 -2163226 
2128.685 -2228962 -2301412 -2379946 -2461497 -2542406 -2617702 -2683468 
2132.060 -2737075 -2777374 -2802922 -2813061 -2807959 -2788667 -2759760 
2135.436 -2728481 -2703028 -2691306 -2697924 -2721336 -2755908 -2794230 
2138.811 -2828632 -2854835 -2872313 -2883208 -2890153 -2894926 -2897098 
2142.186 -2895814 -2891239 -2885743 -2883669 -2890614 -2910362 -2942977 
2145.561 -2985430 -3032188 -3076638 -3116117 -3149243 -3177564 -3203154 
2148.937 -3227130 -3249198 -3269292 -3288793 -3309969 -3338116 -3378754 
2152.312 -3435365 -3510309 -3603313 -3713151 -3838135 -3976577 -4121211 
2155.687 -4260219 -4372843 -4431620 -4408301 -4283842 -4056745 -3750207 
2159.062 -3406206 -3073151 -2793967 -2594153 -2476850 -2428549 -2428944 
2162.438 -2454611 -2487590 -2518425 -2541748 -2556142 -2561973 -2559700 
2165.813 -2550510 -2538618 -2527649 -2521884 -2524091 -2534072 -2549324 
2169.188 -2566617 -2583679 -2599950 -2617966 -2639999 -2666904 -2697760 
2172.563 -2728909 -2755151 -2772930 -2780667 -2778922 -2771547 -2762493 
2175.938 -2755513 -2753900 -2761374 -2779712 -2811711 -2856678 -2910988 
2179.314 -2965948 -3010109 -3031925 -3023172 -2982633 -2916122 -2836862 
2182.689 -2759365 -2694730 -2649714 -2625080 -2615759 -2615792 -2619678 
2186.064 -2622906 -2622906 -2617570 -2604726 -2582856 -2551794 -2513121 
2189.439 -2470656 -2428845 -2391545 -2359514 -2331865 -2305433 -2276890 
2192.815 -2246037 -2214688 -2186370 -2164611 -2151324 -2144994 -2142719 
2196.190 -2140905 -2137147 -2131508 -2126760 -2125474 -2129794 -2139520 
2199.565 -2152874 -2166919 -2179875 -2189535 -2196656 -2201304 -2202952 
2202.940 -2200315 -2191909 -2176249 -2153797 -2126497 -2096623 -2065856 
2206.316 -2035352 -2003691 -1969554 -1933632 -1896850 -1863101 -1836640 
2209.691 -1820209 -1813346 -1814434 -1818163 -1820374 -1818955 -1813544 
2213.066 -1806284 -1800048 -1796385 -1795923 -1798398 -1803777 -1812224 
2216.441 -1825356 -1845120 -1870788 -1900842 -1930927 -1956129 -1973083 
2219.817 -1981329 -1982879 -1982780 -1985616 -1994324 -2009133 -2028195 
2223.192 -2047917 -2065790 -2080399 -2091050 -2098041 -2101470 -2099821 
2226.567 -2092435 -2078486 -2059063 -2037100 -2016685 -2000722 -1992147 
2229.942 -1991191 -1997259 -2009232 -2026018 -2046729 -2070341 -2095106 
2233.318 -2117363 -2132629 -2137048 -2128211 -2106086 -2073903 -2035978 
2236.693 -1996863 -1959757 -1925880 -1894607 -1865509 -1838059 -1812422 
2240.068 -1789258 -1768964 -1750253 -1731772 -1711508 -1688009 -1661703 
2243.443 -1634669 -1609647 -1589641 -1576502 -1570097 -1569767 -1574059 
2246.819 -1580761 -1588651 -1596046 -1600998 -1601922 -1597729 -1588057 
2250.194 -1574059 -1558575 -1544246 -1532756 -1524139 -1515917 -1504426 
2253.569 -1486761 -1461664 -1430985 -1399676 -1372890 -1355615 -1350859 
2256.944 -1358225 -1375004 -1398586 -1424974 -1451427 -1476293 -1498087 
2260.320 -1515785 -1528398 -1535959 -1538666 -1538402 -1536652 -1534242 
2263.695 -1531237 -1526516 -1518096 -1505351 -1488841 -1470514 -1454168 
2267.070 -1442510 -1436896 -1436731 -1439571 -1442709 -1444294 -1443997 
2270.445 -1443072 -1443138 -1445483 -1449875 -1454993 -1459220 -1460673 
2273.821 -1459154 -1455258 -1449412 -1442246 -1433429 -1421176 -1404795 
2277.196 -1383823 -1358918 -1331337 -1303456 -1275541 -1247525 -1218549 
2280.571 -1187324 -1153387 -1117398 -1080679 -1044585 -1010604 -978934 
2283.946 -950304 -925474 -905933 -893765 -890458 -896178 -908677 -924482 
2287.804 -938401 -946072 -945939 -938633 -927391 -916282 -908942 -906627 
2291.661 -908842 -913339 -917241 -918563 -916117 -909669 -899485 -885829 
2295.519 -868964 -849156 -827462 -805238 -784203 -765847 -750566 -737798 
2299.376 -726617 -715867 -705711 -697672 -693703 -695655 -704156 -717686 
2303.233 -733134 -747258 -756916 -761117 -760952 -758835 -757644 -759562 
2307.091 -765284 -774347 -785758 -798690 -812018 -825544 -838772 -850777 
2310.948 -860102 -865658 -866121 -862020 -854381 -845287 -836557 -829215 
2314.806 -823362 -818202 -812514 -805437 -796540 -786287 -774843 -763002 
2318.663 -751029 -738327 -724136 -708027 -689005 -666840 -642391 -617411 
2322.521 -595805 -582503 -583131 -602919 -645170 -709614 -792571 -887647 
2326.378 -986571 -1081208 -1165779 -1236919 -1293975 -1338868 -1373551 
2329.753 -1399577 -1418006 -1429036 -1433363 -1432240 -1427847 -1422167 
2333.128 -1416388 -1410344 -1402450 -1390527 -1373055 -1349504 -1321493 
2336.504 -1291134 -1260972 -1232856 -1207513 -1184515 -1163994 -1146017 
2339.879 -1131179 -1120670 -1114985 -1113267 -1113895 -1114424 -1112275 
2343.254 -1105566 -1093305 -1074399 -1047891 -1012455 -965975 -907090 
2346.629 -835895 -754072 -665318 -574495 -486532 -406463 -338001 -283667 
2350.487 -244758 -221279 -211708 -213297 -223133 -237605 -254163 -270951 
2354.344 -287541 -303832 -320453 -337173 -353131 -366903 -376471 -380609 
2358.202 -379483 -374352 -367334 -360713 -355945 -353032 -351244 -348761 
2362.059 -344060 -336809 -326876 -314725 -301017 -285687 -267773 -246579 
2365.917 -221378 -191571 -157888 -121187 -82727 -43734 -5334 31412 65477 
2370.256 95966 122513 145350 165668 185225 206242 230740 260014 294761 
2374.596 335313 381142 432117 487841 547918 611986 679049 748679 820178 
2378.935 893416 969024 1047901 1130944 1218389 1310072 1404468 1499482 
2382.793 1593120 1683219 1767781 1845971 1916820 1979824 2035115 2082788 
2386.650 2123408 2157638 2186043 2208989 2226073 2236831 2240294 2236498 
2390.508 2226007 2210321 2191838 2172989 2155307 2139391 2124873 2110256 
2394.365 2094541 2077162 2058185 2038843 2020701 2005055 1993372 1986348 
2398.222 1984751 1988945 1998997 2014942 2036114 2061881 2091112 2123275 
2402.080 2158471 2197432 2241294 2291521 2348517 2411951 2480526 2552278 
2405.937 2625576 2699152 2772608 2846309 2920623 2996252 3073328 3152354 
2409.795 3233063 3315858 3400838 3487639 3575527 3663399 3749617 3832610 
2413.652 3911340 3985402 4054728 4119381 4178892 4232323 4278197 4315308 
2417.510 4342884 4361324 4372034 4376620 4376955 4374578 4369859 4363098 
2421.367 4354798 4345159 4335454 4326151 4318387 4312162 4307443 4303762 
2425.224 4301487 4301387 4304967 4314371 4331438 4357308 4392652 4437037 
2429.082 4489896 4550262 4617467 4690645 4769061 4852082 4939039 5029668 
2432.939 5124607 5224765 5331386 5445717 5567930 5697363 5832779 5972469 
2436.797 6114858 6259884 6407647 6559228 6715775 6878337 7047358 7222644 
2440.654 7404235 7591534 7784480 7982843 8186159 8394232 8606461 8822715 
2444.511 9042765 9266887 9494748 9725914 9959339 10193636 10427176 10658465 
2448.369 10886820 11112474 11336442 11559096 11781457 12002842 12222327 
2451.744 12438209 12648704 12852102 13047023 13232433 13407568 13571288 
2455.119 13722654 13860117 13981916 14085883 14169438 14229794 14264205 
2458.495 14270334 14246366 14191827 14106762 13992284 13849649 13680491 
2461.870 13486105 13267891 13027458 12766991 12489357 12198370 11897737 
2465.245 11591356 11282947 10974960 10670011 10370705 10079608 9800399 
2468.620 9536305 9290514 9065162 8861197 8677677 8513427 8366904 8237180 
2472.478 8123666 8026482 7945147 7878875 7825467 7782388 7746396 7714927 
2476.335 7685989 7658470 7632673 7608798 7587218 7568303 7551613 7536408 
2480.193 7521507 7505999 7488301 7467974 7444446 7417886 7389204 7359715 
2484.050 7330700 7303170 7277764 7253875 7231504 7209640 7187641 7165948 
2487.907 7145063 7126033 7110135 7098515 7091880 7090297 7093732 7101142 
2491.765 7111280 7122732 7133544 7142301 7147927 7149880 7148499 7144356 
2495.622 7138327 7130883 7122193 7111819 7099559 7084976 7068036 7049412 
2499.480 7029544 7008834 6987621 6965499 6942032 6916580 6889042 6859755 
2503.337 6829394 6799404 6771100 6746095 6725669 6710997 6702214 6699354 
2507.195 6700801 6704031 6706319 6704435 6696561 6681958 6661971 6639025 
2511.052 6616484 6597073 6582271 6572280 6566057 6561213 6555831 6547959 
2514.909 6536523 6521286 6502652 6481396 6458560 6435558 6413464 6393423 
2518.767 6376140 6361547 6349544 6339357 6330750 6323353 6318109 6315453 
2522.624 6316528 6321403 6329943 6340971 6353612 6366456 6378696 6390061 
2526.482 6400753 6410572 6419954 6429337 6438652 6448976 6461184 6475443 
2530.339 6492360 6511061 6530300 6549002 6565922 6580892 6594953 6609588 
2534.197 6626174 6645283 6666985 6689562 6712175 6734182 6755888 6778672 
2538.054 6804318 6834207 6868642 6906312 6944928 6981728 7014794 7042509 
2541.911 7064735 7082619 7097168 7110303 7123675 7138529 7156348 7177839 
2545.769 7202869 7230797 7259839 7287872 7312841 7333531 7349774 7362580 
2549.626 7373532 7384250 7396012 7409157 7423447 7438312 7453581 7468783 
2553.484 7484020 7499392 7514663 7529463 7543387 7556064 7567764 7578384 
2557.341 7588230 7596659 7602897 7605460 7603133 7595210 7582363 7565572 
2561.198 7547062 7528621 7511022 7494065 7477042 7458671 7438244 7415964 
2565.056 7392574 7369623 7348156 7328880 7311897 7296801 7283290 7271160 
2568.913 7260715 7252528 7247204 7245419 7247238 7252797 7261759 7274091 
2572.771 7288849 7305461 7322882 7339394 7353986 7366118 7375723 7384081 
2576.628 7392877 7403629 7417684 7435817 7457188 7480986 7505932 7530980 
2580.486 7555895 7580980 7607450 7636382 7669059 7705922 7746733 7790686 
2584.343 7835926 7880293 7922032 7959760 7993473 8024322 8054024 8085114 
2588.200 8119682 8158608 8202096 8248999 8297697 8346570 8394300 8440379 
2592.058 8484808 8528125 8571009 8613694 8656585 8699650 8742617 8785555 
2595.915 8828159 8870463 8912366 8953866 8995268 9036845 9078526 9120618 
2599.773 9162950 9205489 9248271 9291495 9335808 9381987 9431016 9483539 
2603.630 9539488 9598494 9659404 9721408 9783962 9847102 9911573 9978427 
2607.488 10048037 10120576 10195332 10271253 10346985 10421644 10494822 
2610.863 10566248 10635918 10703529 10768671 10830527 10888247 10941286 
2614.238 10989437 11032904 11071820 11106253 11136168 11161426 11182301 
2617.613 11199096 11212798 11224393 11235035 11245338 11255573 11265910 
2620.989 11276486 11287980 11301344 11317635 11338040 11363175 11392903 
2624.364 11426306 11462570 11500573 11539905 11580569 11623108 11668067 
2627.739 11715856 11766410 11819317 11874445 11931282 11989829 12050054 
2631.114 12111992 12175436 12240220 12306240 12373054 12441038 12510057 
2634.490 12580756 12653071 12727172 12802753 12879610 12957539 13036472 
2637.865 13116000 13195782 13275202 13353579 13429679 13503195 13573646 
2641.240 13642023 13708941 13775937 13844312 13914614 13986707 14060145 
2644.615 14133871 14206788 14278449 14348786 14418245 14487749 14558018 
2647.990 14630252 14705000 14782708 14863277 14946501 15031730 15118452 
2651.366 15206048 15293766 15381535 15469390 15557539 15646186 15735608 
2654.741 15825940 15917081 16008897 16101418 16194200 16287759 16381716 
2658.116 16476210 16571207 16666705 16762432 16858146 16953398 17048086 
2661.491 17141588 17233558 17323480 17410900 17495856 17578342 17658948 
2664.867 17738362 17817168 17896126 17975480 18055502 18136264 18217908 
2668.242 18300704 18385110 18471674 18560952 18653224 18748350 18845646 
2671.617 18944450 19043242 19140846 19236078 19327732 19415420 19499036 
2674.992 19578716 19655326 19729522 19802170 19873824 19945004 20015780 
2678.368 20086082 20155804 20225192 20294834 20365562 20438942 20516364 
2681.743 20599184 20688796 20785796 20890572 21003196 21123536 21251218 
2685.118 21386246 21528246 21677256 21832940 21995266 22163440 22337018 
2688.493 22515236 22697576 22883346 23072550 23264984 23460648 23659832 
2691.869 23862676 24069328 24280212 24495338 24715094 24939768 25169544 
2695.244 25404360 25644506 25889530 26139268 26393340 26651580 26913496 
2698.619 27178992 27447580 27718946 27992994 28269546 28548894 28831148 
2701.994 29116598 29405320 29696894 29990334 30284044 30576102 30864266 
2705.370 31146216 31419832 31683218 31934134 32171104 32392494 32596496 
2708.745 32782476 32949306 33096888 33225562 33335778 33427988 33502642 
2712.120 33560236 33600792 33624064 33629896 33617800 33587404 33538222 
2715.495 33469896 33381828 33273962 33146452 32999850 32835684 32656002 
2718.871 32463544 32261104 32051552 31837360 31620458 31402736 31185482 
2722.246 30970328 30759442 30554808 30358586 30172964 29999460 29839118 
2725.621 29692604 29560216 29442410 29339698 29252500 29181302 29126166 
2728.996 29086908 29063064 29053924 29058850 29077094 29107846 29150296 
2732.372 29202778 29263914 29331686 29404542 29481486 29561776 29645632 
2735.747 29733156 29824498 29919372 30017142 30116780 30217650 30319252 
2739.122 30421662 30524984 30629220 30733800 30838050 30940440 31039436 
2742.497 31134184 31224538 31310956 31394080 31475120 31554748 31633214 
2745.873 31710554 31786840 31862210 31937168 32012350 32088294 32165180 
2749.248 32242722 32320530 32398134 32475396 32552924 32631606 32712374 
2752.623 32796412 32884322 32976794 33073574 33175026 33281330 33392884 
2755.998 33510302 33634196 33764532 33901180 34043392 34189912 34339068 
2759.374 34488772 34637132 34781700 34920784 35052520 35175416 35288104 
2762.749 35389068 35476644 35548988 35604228 35640556 35657028 35654148 
2766.124 35633072 35596244 35547012 35487936 35421744 35350464 35275528 
2769.499 35198196 35119908 35042104 34966356 34894752 34828332 34767952 
2772.875 34713788 34665588 34622956 34585392 34552380 34523676 34498996 
2776.250 34478048 34460540 34445908 34433284 34420836 34406812 34388448 
2779.625 34362628 34326980 34278932 34217300 34142204 34054608 33956388 
2783.000 33850136 33738428 33623884 33508942 33395928 33287090 33183608 
2786.375 33086482 32995596 32909666 32827392 32746568 32666362 32586102 
2789.751 32505498 32425552 32346800 32269738 32194190 32120116 32047126 
2793.126 31975434 31905536 31838286 31774432 31714260 31657412 31602782 
2796.501 31548690 31493646 31435970 31374634 31308856 31238424 31163196 
2799.876 31083320 30999222 30910980 30819410 30725194 30628864 30530814 
2803.252 30431078 30329912 30227026 30122676 30017068 29910852 29804482 
2806.627 29698740 29594020 29490706 29389332 29290106 29193812 29101114 
2810.002 29013046 28930624 28854980 28786642 28726316 28673966 28629580 
2813.377 28592492 28562306 28538420 28520198 28507850 28501446 28501870 
2816.753 28510008 28526920 28553530 28590474 28638252 28697292 28768020 
2820.128 28850766 28945640 29052366 29170386 29298400 29434926 29578128 
2823.503 29726770 29879650 30036490 30196764 30360256 30526264 30693722 
2826.878 30860852 31025698 31186336 31340658 31487018 31623878 31749942 
2830.254 31863850 31964804 32052406 32126576 32188016 32237760 32277272 
2833.629 32308392 32332986 32352976 32370504 32387816 32406810 32429374 
2837.004 32456938 32490500 32530640 32578636 32635212 32702372 32782048 
2840.379 32877068 32990128 33123922 33281580 33466638 33682784 33935468 
2843.755 34231392 34577784 34982408 35452340 35991672 36600480 37273000 
2847.130 37996392 38748952 39502060 40221364 40866680 41400464 41789064 
2850.505 42006508 42040052 41889032 41566732 41095280 40505600 39833216 
2853.880 39112312 38376784 37656548 36974492 36348836 35791036 35306072 
2857.256 34894504 34552128 34272480 34046904 33866364 33722492 33607524 
2860.631 33514846 33439904 33378966 33329948 33292062 33265126 33249672 
2864.006 33246454 33256826 33281938 33323724 33384334 33465992 33571008 
2867.381 33701224 33857156 34038088 34241896 34464812 34701872 34947504 
2870.757 35195824 35440620 35676092 35897296 36100144 36282336 36443524 
2874.132 36585632 36712244 36828292 36939532 37050984 37166904 37290764 
2877.507 37424444 37569400 37726188 37895688 38078056 38273564 38482484 
2880.882 38704652 38939508 39186532 39444076 39710192 39981708 40254516 
2884.258 40523352 40782852 41026884 41250140 41448688 41619936 41763744 
2887.633 41882356 41980992 42066076 42146468 42231728 42331064 42454180 
2891.008 42610436 42808948 43060596 43378368 43777064 44275508 44893844 
2894.383 45652392 46570256 47660344 48925660 50354376 51917144 53563356 
2897.759 55218208 56794604 58192576 59311700 60071564 60414940 60321276 
2901.134 59807696 58927068 57758292 56387740 54907712 53399400 51925356 
2904.509 50535056 49260668 48120584 47125504 46279332 45582100 45031100 
2907.884 44622144 44350068 44209360 44195196 44302916 44528120 44866288 
2911.260 45311476 45855284 46487016 47191540 47949936 48740500 49537108 
2914.635 50311556 51036736 51686024 52238284 52679388 53002892 53210672 
2918.010 53310420 53314876 53237116 53088628 52878364 52610792 52287316 
2921.385 51907284 51470804 50979876 50441228 49865080 49266868 48664660 
2924.760 48076280 47518892 47006564 46548644 46150932 45815260 45540628 
2928.136 45324204 45161340 45046612 44973180 44933384 44918612 44918868 
2931.511 44924272 44924344 44908324 44866472 44789916 44671316 44505652 
2934.886 44290808 44027440 43719092 43371044 42990392 42584160 42160012 
2938.261 41725920 41289600 40859692 40444932 40053100 39691352 39364584 
2941.637 39074896 38821632 38601684 38409576 38237960 38078492 37921540 
2945.012 37756512 37573664 37363628 37120092 36840480 36526664 36185776 
2948.387 35827592 35464492 35109128 34771112 34457636 34172168 33914440 
2951.762 33681600 33469432 33273354 33088308 32910592 32737098 32565742 
2955.138 32395314 32225274 32055334 31885636 31716294 31547230 31378516 
2958.513 31210296 31043136 30877572 30714632 30555590 30401476 30253634 
2961.888 30113192 29981316 29859172 29748202 29649640 29565146 29496026 
2965.263 29443472 29408618 29391990 29393834 29413510 29450104 29502052 
2968.639 29567488 29644674 29732412 29830104 29938290 30057654 30189588 
2972.014 30334816 30493490 30664242 30844524 31029756 31213288 31386994 
2975.389 31540244 31661048 31737466 31757642 31713088 31599216 31417232 
2978.764 31173414 30879280 30550436 30202944 29853352 29516522 29203522 
2982.140 28922478 28677292 28468472 28293312 28146184 28020700 27909280 
2985.515 27805202 27703478 27601214 27498090 27395380 27295798 27201496 
2988.890 27113494 27030618 26949418 26864038 26767506 26653236 26515960 
2992.265 26353592 26167174 25962022 25746414 25529440 25320512 25127378 
2995.641 24954262 24802788 24671674 24558058 24458390 24369678 24289814 
2999.016 24217288 24151112 24090624 24034762 23982658 23933744 23887636 
3002.391 23844718 23805690 23771568 23743010 23720438 23703850 23692724 
3005.766 23686564 23684674 23686844 23692374 23701262 23713018 23727402 
3009.142 23744584 23764532 23787598 23814198 23844474 23878324 23915118 
3012.517 23954366 23995054 24036514 24078330 24120570 24163234 24206672 
3015.892 24251624 24298504 24347846 24399958 24455094 24513182 24573802 
3019.267 24636568 24700784 24765742 24830818 24895484 24959208 25021330 
3022.643 25081072 25137630 25190540 25239982 25286408 25331610 25377626 
3026.018 25426562 25480424 25540300 25606158 25677020 25750986 25825704 
3029.393 25898920 25968774 26034206 26095074 26152114 26206628 26260126 
3032.768 26314126 26369330 26425912 26483138 26540262 26596340 26650944 
3036.144 26704464 26757814 26812370 26869292 26929534 26993384 27060840 
3039.519 27131374 27204742 27280416 27358572 27438966 27521672 27606438 
3042.894 27692954 27780934 27870062 27959810 28049930 28139892 28228916 
3046.269 28316582 28402778 28487718 28572286 28657718 28745362 28835824 
3049.645 28929488 29025656 29123154 29220604 29316656 29410460 29501592 
3053.020 29589654 29674616 29756576 29835498 29912058 29986962 30061844 
3056.395 30138088 30217364 30300566 30388256 30480020 30575214 30673132 
3059.770 30772920 30874086 30976270 31079334 31182846 31286634 31390556 
3063.146 31494536 31598826 31704138 31810760 31919442 32030254 32143060 
3066.521 32257534 32373108 32488786 32604102 32718272 32830502 32940726 
3069.896 33049046 33156000 33262658 33370234 33479772 33592132 33707308 
3073.271 33825172 33944928 34065900 34187620 34309912 34432852 34556504 
3076.646 34680628 34805140 34929368 35053272 35176492 35299284 35422068 
3080.022 35545284 35669224 35794096 35920044 36047036 36175328 36305392 
3083.397 36436968 36570132 36703660 36836588 36967204 37094432 37217804 
3086.772 37338208 37456916 37576480 37699232 37826964 37960448 38099612 
3090.147 38243312 38389632 38536864 38682992 38826776 38967528 39105316 
3093.523 39240676 39374528 39508520 39643832 39782196 39924528 40071376 
3096.898 40222964 40378348 40536372 40695328 40853284 41008676 41160044 
3100.273 41307456 41451780 41594592 41738104 41884324 42034572 42189260 
3103.648 42347980 42509608 42672796 42836408 42999612 43162104 43323560 
3107.024 43483756 43642696 43800080 43955940 44110616 44264572 44418404 
3110.399 44572212 44725744 44878304 45028600 45175936 45320120 45461556 
3113.774 45601864 45742728 45885444 46031156 46179568 46329796 46480412 
3117.149 46630528 46779220 46926484 47072764 47218504 47364332 47510388 
3120.525 47656460 47802064 47946976 48090528 48233016 48374444 48514768 
3123.900 48654136 48792584 48929776 49065940 49201216 49336276 49472232 
3127.275 49610160 49750920 49895148 50042840 50193224 50345448 50498540 
3130.650 50651988 50805976 50960836 51117092 51275344 51435256 51596384 
3134.026 51757648 51918148 52077368 52235784 52394404 52554396 52717024 
3137.401 52882784 53051676 53223068 53396176 53569768 53743016 53915320 
3140.776 54085740 54253748 54418816 54580456 54739152 54895716 55051444 
3144.151 55208200 55366932 55528548 55692820 55859156 56026612 56194468 
3147.527 56362088 56529624 56696880 56864092 57031140 57197836 57364064 
3150.902 57530284 57697172 57865676 58036784 58211176 58388788 58569204 
3154.277 58751248 58933520 59114272 59292064 59465332 59633536 59796216 
3157.652 59954312 60109348 60263488 60418900 60577456 60739804 60905564 
3161.028 61073528 61241936 61409528 61575508 61739952 61903232 62065844 
3164.403 62227524 62388080 62546744 62703052 62856696 63008220 63158028 
3167.778 63306660 63453540 63598088 63738780 63874944 64006544 64134188 
3171.153 64259568 64384632 64510888 64639224 64769364 64900540 65031528 
3174.529 65160864 65288000 65411940 65532720 65650984 65767280 65883144 
3177.904 65999576 66117780 66237824 66358796 66479064 66596352 66708572 
3181.279 66814712 66914820 67010224 67103176 67195256 67287904 67381768 
3184.654 67476352 67571456 67666392 67761616 67856896 67952472 68047720 
3188.030 68141984 68234440 68324048 68410808 68494752 68576656 68657056 
3191.405 68736424 68814840 68892224 68968800 69044464 69119560 69194152 
3194.780 69267640 69338960 69407176 69471448 69532112 69590208 69648240 
3198.155 69707952 69771024 69837168 69905200 69973120 70039024 70102032 
3201.531 70162544 70221384 70279896 70338680 70397352 70455184 70510600 
3204.906 70562832 70611440 70656824 70699440 70739680 70777976 70814360 
3208.281 70849424 70884184 70919880 70957760 70998368 71041528 71085904 
3211.656 71129648 71171176 71210184 71247152 71283456 71320632 71359408 
3215.031 71399208 71438536 71475448 71508136 71536192 71560328 71582016 
3218.407 71603736 71627376 71654384 71685840 71721960 71762992 71808648 
3221.782 71858376 71911552 71967240 72023984 72080888 72137256 72192192 
3225.157 72245640 72297056 72345864 72391392 72433472 72471832 72507272 
3228.532 72540824 72573760 72607400 72642528 72679896 72719736 72763144 
3231.908 72810944 72864312 72924312 72990592 73061976 73136664 73212000 
3235.283 73285808 73357288 73426096 73493120 73559528 73626104 73693040 
3238.658 73760216 73827528 73895160 73963552 74033256 74104144 74175944 
3242.033 74246936 74315584 74380656 74442320 74501992 74562216 74625320 
3245.409 74693512 74767144 74845280 74925904 75007464 75088080 75167768 
3248.784 75246760 75325808 75405272 75484736 75563240 75639304 75711560 
3252.159 75779024 75841472 75899440 75953736 76005680 76056840 76108000 
3255.534 76159880 76212520 76265480 76317888 76368888 76417480 76463360 
3258.910 76506656 76547440 76586376 76623256 76657560 76688680 76715600 
3262.285 76737536 76754464 76766720 76774624 76779136 76780680 76779696 
3265.660 76776608 76772016 76766128 76760472 76755328 76751536 76749120 
3269.035 76747344 76745128 76741016 76732952 76718840 76696504 76664480 
3272.411 76621712 76568864 76508048 76442688 76377112 76315128 76259088 
3275.786 76209440 76164736 76121704 76077288 76029200 75976704 75920744 
3279.161 75863536 75807304 75754080 75704656 75659064 75617104 75578064 
3282.536 75541352 75506464 75472952 75440192 75407360 75374008 75339992 
3285.912 75305592 75271744 75239200 75208464 75179704 75152480 75126168 
3289.287 75099936 75073584 75047472 75022072 74998128 74976664 74958352 
3292.662 74943792 74933984 74928712 74928544 74932448 74939928 74950048 
3296.037 74962488 74977928 74997768 75024120 75058808 75102616 75154768 
3299.413 75212760 75273240 75333296 75390760 75445664 75499520 75555032 
3302.788 75614976 75681352 75754952 75835472 75921776 76012192 76105040 
3306.163 76198816 76292216 76384696 76476120 76567560 76660960 76758616 
3309.538 76862344 76973288 77090912 77213440 77338256 77463424 77587368 
3312.914 77710464 77834040 77959352 78087040 78216912 78347176 78476128 
3316.289 78602264 78725136 78845664 78964912 79084032 79203416 79322848 
3319.664 79440872 79556016 79667416 79774392 79877088 79975584 80070120 
3323.039 80160896 80248168 80332320 80413936 80493568 80571312 80646544 
3326.415 80717768 80783048 80841392 80891768 80934848 80971528 81003232 
3329.790 81030664 81053864 81072112 81084376 81089968 81088728 81080136 
3333.165 81064208 81039768 81005112 80958920 80899832 80828344 80746296 
3336.540 80656480 80561736 80463984 80363176 80257736 80145424 80023504 
3339.916 79890432 79745688 79590008 79424480 79250464 79068648 78879792 
3343.291 78684104 78481880 78273408 78058336 77835824 77604912 77364552 
3346.666 77114504 76855696 76590680 76322872 76055576 75791448 75531616 
3350.041 75275920 75023096 74771632 74520440 74269312 74018048 73767048 
3353.417 73516752 73267224 73018888 72772896 72530528 72293856 72064736 
3356.792 71843560 71630544 71424744 71225056 71030720 70842208 70660912 
3360.167 70488504 70326256 70173752 70029800 69891616 69756392 69621952 
3363.542 69487160 69352408 69219144 69088904 68963096 68842608 68727816 
3366.917 68618872 68515816 68418840 68328120 68243320 68164152 68089112 
3370.293 68016256 67943168 67867048 67785472 67696128 67597352 67488312 
3373.668 67368464 67237928 67096836 66945084 66782176 66607400 66419564 
3377.043 66217600 66001080 65769552 65522896 65260700 64981616 64683944 
3380.418 64365840 64025664 63662352 63276372 62868916 62442368 61999304 
3383.794 61542484 61074100 60596656 60111556 59620532 59124792 58625136 
3387.169 58122228 57616612 57108640 56599524 56090436 55582772 55077544 
3390.544 54575272 54075832 53578876 53084512 52593436 52107104 51627284 
3393.919 51155260 50691088 50233436 49779348 49326624 48873484 48420148 
3397.295 47968952 47523072 47085396 46657276 46237940 45824684 45413660 
3400.670 45001516 44585904 44166808 43744924 43322352 42900704 42481544 
3404.045 42065892 41654360 41247772 40847096 40452896 40065128 39682460 
3407.420 39303640 38926428 38549392 38172436 37796236 37422060 37052248 
3410.796 36687692 36328948 35975580 35627532 35284044 34945780 34613196 
3414.171 34287864 33970184 33660832 33358786 33062920 32771900 32483894 
3417.546 32197688 31912562 31627546 31342760 31058760 30776514 30497578 
3420.921 30224292 29958632 29702360 29456450 29220674 28993456 28772622 
3424.297 28555370 28339040 28121014 27899812 27674872 27446662 27216278 
3427.672 26985910 26757708 26533324 26314514 26101512 25893892 25690974 
3431.047 25491384 25294276 25099292 24906430 24716216 24528818 24344130 
3434.422 24161726 23981116 23801212 23621626 23442358 23263514 23085690 
3437.798 22909856 22736364 22565664 22397474 22231684 22067490 21904196 
3441.173 21741244 21578386 21415730 21253410 21091882 20930798 20769774 
3444.548 20607800 20443560 20276224 20106418 19935674 19767006 19604160 
3447.923 19450416 19307328 19174366 19048850 18927074 18804642 18678336 
3451.299 18546636 18409618 18268806 18126176 17983870 17843266 17704952 
3454.674 17569510 17436976 17307512 17181710 17059698 16941306 16826044 
3458.049 16712775 16600261 16487429 16373184 16256491 16136803 16013848 
3461.424 15887523 15758488 15627706 15496963 15368284 15243555 15124078 
3464.800 15010533 14902126 14797792 14695779 14594545 14492922 14390364 
3468.175 14287009 14183336 14080031 13977981 13878248 13781718 13688697 
3471.550 13599423 13513346 13429610 13346745 13263416 13178909 13093188 
3474.925 13006803 12921014 12837050 12756482 12679475 12606202 12536146 
3478.301 12468249 12401284 12334396 12266804 12198370 12129300 12060751 
3481.676 11994326 11931929 11875194 11824867 11781185 11742852 11708437 
3485.051 11675998 11644345 11612762 11581521 11551100 11522212 11495537 
3488.426 11470634 11447398 11425150 11403413 11382189 11361985 11342802 
3491.802 11325423 11310391 11297842 11288660 11283423 11282913 11287946 
3495.177 11299373 11317057 11340898 11370590 11406407 11448724 11498906 
3498.552 11557668 11625898 11703365 11788572 11879110 11972254 12065623 
3501.927 12158228 12250614 12345101 12445130 12553846 12673710 12805483 
3505.302 12948152 13099199 13255593 13414232 13573031 13731820 13891829 
3508.678 14055970 14227877 14410298 14604653 14810648 15025796 15246232 
3512.053 15468257 15688678 15905773 16118784 16328042 16533859 16735950 
3515.428 16933622 17125698 17311376 17490268 17662574 17828732 17988740 
3518.803 18141136 18283356 18411624 18521774 18610646 18675810 18716800 
3522.179 18733786 18727974 18700230 18651564 18581944 18491036 18377748 
3525.554 18240300 18077402 17887772 17671270 17429696 17166748 16887426 
3528.929 16596921 16299179 15996452 15688576 15374463 15052586 14723165 
3532.304 14387830 14049468 13710992 13374695 13041150 12709771 12379225 
3535.680 12048828 11719091 11392291 11071106 10757802 10453650 10158630 
3539.055 9871506 9591379 9317832 9051392 8793433 8544548 8304824 8072590 
3542.912 7845541 7620263 7394192 7165476 6933918 6700700 6468313 6240354 
3546.770 6020442 5812025 5617907 5439576 5276143 5124808 4981000 4839216 
3550.627 4694765 4544201 4387330 4226802 4067437 3914382 3772378 3643317 
3554.485 3526921 3420575 3320565 3222982 3124854 3024145 2919790 2812058 
3558.342 2701119 2587776 2472762 2357212 2242859 2131333 2025062 1925939 
3562.199 1835323 1752578 1675769 1600603 1521726 1432790 1329116 1208521 
3566.057 1072912 928081 783166 647855 529207 430093 349141 281432 220927 
3570.396 162586 102926 39994 -26307 -95349 -166201 -237870 -309692 -380808 
3574.736 -450654 -518602 -584819 -649835 -714907 -781359 -850248 -921175 
3578.594 -993249 -1064483 -1132468 -1195485 -1252415 -1303357 -1348480 
3581.969 -1388645 -1423884 -1454927 -1482633 -1509214 -1538369 -1574323 
3585.344 -1622125 -1684741 -1762760 -1852213 -1945969 -2034824 -2110076 
3588.719 -2166688 -2203414 -2223457 -2232555 -2237203 -2243829 -2256882 
3592.094 -2279856 -2314101 -2359284 -2413161 -2472106 -2531767 -2587236 
3595.470 -2634894 -2672568 -2700097 -2719064 -2732827 -2745372 -2759826 
3598.845 -2779053 -2803745 -2833274 -2865368 -2896736 -2924712 -2947091 
3602.220 -2962559 -2971872 -2976512 -2978618 -2980856 -2986121 -2996388 
3605.595 -3013729 -3039525 -3074039 -3116643 -3165229 -3216442 -3266760 
3608.971 -3312896 -3353076 -3387960 -3419947 -3452261 -3488156 -3528747 
3612.346 -3573212 -3618396 -3659501 -3692158 -3713677 -3724058 -3725701 
3615.721 -3723270 -3722087 -3727179 -3742619 -3770540 -3810514 -3859679 
3619.096 -3912747 -3963575 -4005895 -4035769 -4051657 -4055203 -4049556 
3622.472 -4038789 -4026577 -4014825 -4004352 -3994831 -3985507 -3977398 
3625.847 -3973589 -3978678 -3999197 -4040430 -4103815 -4183599 -4267044 
3629.222 -4337973 -4382979 -4397575 -4385996 -4358443 -4326590 -4300148 
3632.597 -4285384 -4284465 -4295522 -4314287 -4335349 -4354211 -4368481 
3635.973 -4378124 -4384717 -4390457 -4397018 -4405119 -4414533 -4424733 
3639.348 -4434572 -4443657 -4451922 -4459399 -4466220 -4472156 -4476157 
3642.723 -4477076 -4473796 -4466089 -4455037 -4443263 -4434638 -4433884 
3646.098 -4445199 -4471599 -4514165 -4571546 -4639639 -4713130 -4785134 
3649.474 -4848770 -4897655 -4926124 -4930678 -4911316 -4871706 -4818559 
3652.849 -4760293 -4706968 -4666814 -4645966 -4646851 -4666683 -4698478 
3656.224 -4731911 -4757572 -4770157 -4769600 -4759146 -4744529 -4730796 
3659.599 -4720635 -4715326 -4714146 -4715588 -4718309 -4721225 -4723585 
3662.975 -4724700 -4723618 -4719226 -4710770 -4697692 -4680647 -4661438 
3666.350 -4642589 -4627181 -4618691 -4620264 -4633574 -4658127 -4689301 
3669.725 -4718767 -4734630 -4726502 -4687629 -4618625 -4525248 -4418600 
3673.100 -4311892 -4218023 -4149305 -4115007 -4117666 -4151865 -4206997 
3676.476 -4271046 -4336497 -4401544 -4468057 -4538200 -4611708 -4685531 
3679.851 -4753836 -4811350 -4854504 -4883435 -4900374 -4908761 -4911316 
3683.226 -4908564 -4899653 -4883567 -4861352 -4836581 -4815642 -4806172 
3686.601 -4815347 -4846247 -4897458 -4960554 -5023870 -5075813 -5108659 
3689.977 -5121201 -5117108 -5102437 -5082723 -5061371 -5039591 -5017614 
3693.352 -4995309 -4973296 -4953249 -4937262 -4926616 -4921767 -4921112 
3696.727 -4921308 -4919310 -4912692 -4901225 -4887433 -4875736 -4870920 
3700.102 -4877243 -4895721 -4923765 -4956230 -4985351 -5004742 -5010965 
3703.478 -5003595 -4985285 -4960095 -4932709 -4905452 -4880388 -4858272 
3706.853 -4839235 -4823998 -4813840 -4810301 -4814921 -4828324 -4850048 
3710.228 -4877898 -4908859 -4938868 -4963895 -4981256 -4988462 -4985023 
3713.603 -4971560 -4949777 -4922848 -4894084 -4866824 -4844773 -4829405 
3716.979 -4821541 -4820295 -4824227 -4831666 -4841430 -4853816 -4869085 
3720.354 -4887433 -4907876 -4928254 -4945092 -4955149 -4956558 -4949547 
3723.729 -4936509 -4921341 -4907647 -4897556 -4891004 -4885434 -4877439 
3727.104 -4862958 -4839956 -4808728 -4772123 -4734630 -4701297 -4677206 
3730.479 -4665503 -4667339 -4680746 -4701920 -4725912 -4748658 -4769305 
3733.855 -4789427 -4812529 -4841037 -4875277 -4911480 -4943618 -4964714 
3737.230 -4971200 -4962552 -4941521 -4912791 -4879635 -4844314 -4807647 
3740.605 -4770583 -4735647 -4707984 -4696217 -4710573 -4759047 -4842479 
3743.980 -4948499 -5053314 -5128372 -5155680 -5134725 -5078629 -5007231 
3747.356 -4938704 -4888350 -4864596 -4869707 -4899129 -4943782 -4993540 
3750.731 -5039755 -5076632 -5101553 -5111901 -5105745 -5082330 -5043161 
3754.106 -4992393 -4936771 -4883730 -4840054 -4810301 -4796440 -4796996 
3757.481 -4808728 -4827832 -4850048 -4872460 -4892445 -4906959 -4912921 
3760.857 -4907418 -4889726 -4861680 -4828225 -4795817 -4771304 -4759113 
3764.232 -4760784 -4773336 -4791065 -4806107 -4812857 -4809252 -4796996 
3767.607 -4780677 -4765503 -4756393 -4755311 -4762029 -4773237 -4785363 
3770.982 -4794244 -4797357 -4793916 -4784970 -4772385 -4758457 -4745381 
3774.358 -4734794 -4726994 -4721455 -4717358 -4713753 -4710672 -4708869 
3777.733 -4709492 -4713589 -4720898 -4729780 -4736794 -4738629 -4733254 
3781.108 -4720767 -4703330 -4684384 -4667732 -4655866 -4649572 -4648064 
3784.483 -4649768 -4653112 -4657079 -4662094 -4668552 -4676616 -4685662 
3787.859 -4694414 -4700871 -4704247 -4704313 -4702215 -4698741 -4695037 
3791.234 -4690678 -4684253 -4673895 -4658783 -4640098 -4621018 -4605708 
3794.609 -4598660 -4602495 -4616199 -4636000 -4655046 -4667142 -4668617 
3797.984 -4660062 -4646031 -4634295 -4633541 -4650424 -4687858 -4741710 
3801.360 -4801519 -4852604 -4882158 -4884156 -4860959 -4821475 -4777236 
3804.735 -4740825 -4721783 -4724274 -4746659 -4780087 -4811644 -4828455 
3808.110 -4823834 -4798013 -4757507 -4710147 -4663536 -4622264 -4587644 
3811.485 -4558332 -4532494 -4509639 -4491406 -4482552 -4488390 -4513541 
3814.861 -4557972 -4616101 -4675271 -4721815 -4745217 -4743185 -4720996 
3818.236 -4690022 -4664093 -4655079 -4671273 -4713687 -4775499 -4842119 
3821.611 -4895656 -4923208 -4919932 -4890349 -4843790 -4792540 -4746921 
3824.986 -4713982 -4696282 -4692284 -4696643 -4702314 -4703133 -4695824 
3828.362 -4680024 -4658717 -4635836 -4615642 -4601414 -4594234 -4593217 
3831.737 -4596234 -4600233 -4602135 -4600233 -4594299 -4585578 -4577087 
3835.112 -4572660 -4576562 -4592135 -4620723 -4660586 -4707066 -4752656 
3838.487 -4790082 -4814004 -4822131 -4816134 -4799880 -4778219 -4755868 
3841.863 -4736106 -4720865 -4710147 -4703297 -4698282 -4693005 -4685465 
3845.238 -4674452 -4659406 -4640786 -4619609 -4596496 -4571939 -4546200 
3848.613 -4518165 -4487931 -4456612 -4427423 -4406825 -4404594 -4430538 
3851.988 -4493243 -4593938 -4721979 -4854176 -4962913 -5027408 -5041229 
3855.364 -5011784 -4953642 -4882158 -4808630 -4740989 -4683269 -4636394 
3858.739 -4599709 -4572004 -4551775 -4537413 -4527805 -4521739 -4518624 
3862.114 -4518624 -4522624 -4531904 -4547053 -4566791 -4587742 -4604626 
3865.489 -4612364 -4608134 -4592955 -4572365 -4554889 -4549217 -4561906 
3868.865 -4594955 -4642753 -4694021 -4735090 -4755639 -4753378 -4732894 
3872.240 -4702772 -4672977 -4650326 -4637574 -4632918 -4631115 -4626001 
3875.615 -4612790 -4589742 -4558824 -4524362 -4491833 -4466516 -4452578 
3878.990 -4452020 -4463597 -4482946 -4503605 -4518525 -4522657 -4514361 
3882.365 -4496588 -4475206 -4458120 -4452873 -4464450 -4493145 -4533314 
3885.741 -4574267 -4604954 -4616166 -4605675 -4576988 -4538233 -4498490 
3889.116 -4466417 -4448052 -4445658 -4457792 -4478846 -4501802 -4519542 
3892.491 -4526822 -4521969 -4505147 -4478978 -4446051 -4409973 -4374024 
3895.866 -4340860 -4313270 -4293324 -4282464 -4281348 -4289419 -4305069 
3899.242 -4325868 -4349422 -4373204 -4396001 -4417681 -4438836 -4460711 
3902.617 -4484257 -4508787 -4532363 -4552135 -4564726 -4567972 -4561152 
3905.992 -4545610 -4523477 -4497670 -4470156 -4442476 -4414696 -4386718 
3909.367 -4358475 -4330592 -4304773 -4282398 -4265698 -4255691 -4251852 
3912.743 -4253197 -4257561 -4264058 -4272195 -4282858 -4297228 -4315928 
3916.118 -4338695 -4363593 -4387013 -4405480 -4416533 -4418895 -4413122 
3919.493 -4400724 -4383372 -4363101 -4340860 -4317896 -4296309 -4278100 
3922.868 -4265895 -4261958 -4266912 -4279347 -4296046 -4311991 -4322226 
3926.244 -4323834 -4315534 -4299065 -4277477 -4255199 -4236102 -4223863 
3929.619 -4220516 -4227309 -4243551 -4267503 -4295390 -4323211 -4345814 
3932.994 -4358836 -4360181 -4349717 -4329673 -4304609 -4279478 -4257922 
3936.369 -4242534 -4233641 -4229507 -4227702 -4225799 -4222157 -4216742 
3939.745 -4210836 -4206275 -4205159 -4208703 -4217005 -4228949 -4242731 
3943.120 -4255691 -4265534 -4270620 -4269996 -4264254 -4254576 -4242829 
3946.495 -4231181 -4221402 -4214380 -4210639 -4209556 -4209983 -4210803 
3949.870 -4211000 -4210114 -4208014 -4204634 -4200171 -4194691 -4188292 
3953.246 -4180908 -4173000 -4164992 -4157247 -4150322 -4144185 -4138540 
3956.621 -4133321 -4128169 -4123147 -4118553 -4114810 -4112644 -4112119 
3959.996 -4113563 -4116321 -4119767 -4122950 -4124854 -4125018 -4122852 
3963.371 -4118487 -4112349 -4105194 -4097448 -4089833 -4082447 -4075521 
3966.747 -4068267 -4060389 -4051559 -4041875 -4031567 -4021817 -4012789 
3970.122 -4005304 -3999394 -3994995 -3991482 -3988725 -3986623 -3984653 
3973.497 -3982684 -3980090 -3976150 -3970207 -3961736 -3951164 -3939377 
3976.872 -3928246 -3919117 -3913469 -3911565 -3912221 -3914422 -3916556 
3980.248 -3917245 -3916884 -3915669 -3914651 -3914553 -3915374 -3916556 
3983.623 -3916884 -3915505 -3911630 -3905391 -3897346 -3888742 -3880303 
3986.998 -3873374 -3868349 -3865590 -3865590 -3868152 -3873176 -3879909 
3990.373 -3887297 -3894226 -3899448 -3902436 -3903191 -3902370 -3900925 
3993.749 -3899809 -3899645 -3900269 -3901451 -3902239 -3902337 -3901615 
3997.124 -3900367 -3899513 -3899776 -3901549 -3905096 -3910284 -3916392 
4000.499 -3923057 
##END=
