
##TITLE=Z189_2_b
##JCAMP-DX=5.01  $$ Nicolet v. 1
##DATATYPE=INFRARED SPECTRUM
##ORIGIN=UniL
##OWNER=Nicolet
##LONGDATE=2011/09/14
##TIME=16:44:06
##SPECTROMETER/DATA SYSTEM=Nicolet iS5
##DATA PROCESSING=
Ratio against background
%Transmittance->Absorbance
Truncated
ElementMultiply or ElementDivide
##COMMENTS=
Number of sample scans: 32
Collection length: 51.23 sec
Sample gain: 2.0
Background collected on: Mer Sep 14 16:41:24 2011 (GMT+02:00);
Number of background scans: 32
Background gain: 2.0
Sample spacing:  1.000
Number of scan points: 12415
Resolution points: 8192
Number of FFT points: 65536
Apodization: N-B fort;
Phase correction: Mertz;
Laser frequency: 15798.0 cm-1
Number of rejected sample scans: 0
Number of rejected background scans: 0
Bench serial number: ASB1000141;
##RESOLUTION=4.000
##XUNITS=1/CM
##YUNITS=ABSORBANCE
##FIRSTX=649.893372
##LASTX=4000.122314
##FIRSTY=0.094205
##MAXX=4000.122314
##MINX=649.893372
##MAXY=0.244241
##MINY=-0.004984
##XFACTOR=1.000000
##YFACTOR=1.000000E-009
##NPOINTS=6950
##DELTAX=0.482117
##ZPD=6100
##XYDATA=(X++(Y..Y))
649.893 94205064 93417064 92675280 92025336 91504592 91129816 90895368 
653.268 90774760 90730296 90727760 90749160 90795096 90883440 91037824 
656.643 91276032 91601912 92003720 92456312 92931536 93410080 93884048 
660.018 94359976 94852800 95376136 95935304 96525208 97132320 97744136 
663.393 98357440 98978312 99617576 100279824 100947384 101574944 102087888 
666.767 102397072 102447360 102273144 102017384 101849416 101879200 
669.660 102101296 102426008 102730688 102907408 102896992 102693968 
672.553 102349216 101938696 101536096 101176736 100848192 100506864 
675.446 100109928 99641832 99124576 98604432 98124456 97700360 97309960 
678.820 96904008 96430288 95864776 95220856 94544816 93888992 93289352 
682.195 92746736 92231592 91697992 91110480 90462960 89778712 89099488 
685.570 88463688 87891168 87375752 86894496 86420088 85937752 85453048 
688.945 84988712 84571480 84221784 83944848 83729872 83558784 83415224 
692.320 83292704 83197944 83146664 83155528 83237872 83398240 83632928 
695.694 83934080 84294360 84709512 85180368 85710368 86303016 86959104 
699.069 87675528 88444352 89255200 90097808 90963096 91844848 92739600 
702.444 93644288 94553136 95456416 96337008 97172592 97942120 98629216 
705.819 99229704 99753624 100221600 100657776 101078424 101487160 101873376 
709.194 102221992 102521744 102776576 103008288 103251520 103539536 
712.086 103892016 104306872 104761672 105221272 105649064 106019120 
714.979 106317448 106539240 106682184 106743184 106720096 106617840 
717.872 106460144 106293496 106177712 106180584 106354608 106720816 
720.765 107264680 107938112 108674488 109396696 110036888 110540432 
723.657 110866864 110994936 110923280 110674952 110296680 109855800 
726.550 109430752 109088280 108874544 108804552 108864712 109021832 
729.443 109238456 109488096 109756776 110042528 110347472 110669696 
732.335 111000752 111330008 111650176 111963680 112284016 112630480 
735.228 113018784 113455320 113934240 114441728 114963320 115489904 
738.121 116019600 116556136 117101400 117651792 118199312 118735064 
741.013 119256432 119770312 120290392 120826272 121375312 121914304 
743.906 122403000 122790704 123033696 123107720 123012576 122769776 
746.799 122412104 121977616 121499608 121007848 120532120 120100784 
749.692 119740008 119469192 119293408 119202096 119172496 119180952 
752.584 119210032 119258432 119339024 119472936 119677416 119957280 
755.477 120300088 120679872 121065944 121426808 121738408 121983848 
758.370 122150000 122227400 122212032 122108480 121932944 121713944 
761.262 121487368 121284096 121124224 121011520 120936136 120882912 
764.155 120840632 120808776 120797528 120823128 120897576 121027152 
767.048 121208624 121433512 121691136 121972432 122269336 122572840 
769.940 122875680 123176144 123487512 123842368 124290328 124885816 
772.833 125659320 126591904 127594736 128522944 129187720 129405576 
775.726 129057944 128110080 126624864 124728672 122578160 120306912 
778.619 117991912 115653768 113263512 110772360 108132680 105321672 
781.511 102346408 99242776 96063968 92873712 89739400 86719896 83865136 
784.886 81212704 78782176 76580528 74602384 72835432 71266360 69884304 
788.261 68682944 67660312 66816108 66149144 65656572 65334292 65178648 
791.636 65189660 65371344 65730348 66273680 67002380 67906448 68959640 
795.010 70118888 71322080 72486592 73521144 74324432 74795568 74855592 
798.385 74453104 73580368 72277304 70628600 68751376 66767880 64800756 
801.760 62948196 61272076 59799292 58519308 57394656 56368844 55385488 
805.135 54400980 53392956 52366592 51350372 50388240 49520248 48773528 
808.510 48151124 47631244 47172072 46722024 46235988 45680808 45042348 
811.885 44323388 43539648 42712828 41863596 41012064 40174984 39365096 
815.259 38593900 37869620 37197044 36577916 36011144 35493940 35023784 
818.634 34599776 34221964 33891512 33609172 33373706 33182322 33032886 
822.009 32923746 32856662 32836970 32871672 32968856 33133648 33366800 
825.384 33662732 34010172 34390240 34778328 35146456 35461508 35691200 
828.759 35808232 35793516 35642280 35366280 34993256 34560632 34112560 
832.133 33693056 33336888 33069354 32902266 32831934 32840400 32895974 
835.508 32959886 32986876 32935362 32775506 32492500 32092114 31597044 
838.883 31044454 30475256 29926328 29427624 28996998 28640872 28357856 
842.258 28141978 27985042 27878436 27814244 27784854 27783478 27805024 
845.633 27846534 27907196 27988256 28090648 28213854 28354956 28508026 
849.008 28665860 28822474 28973302 29117698 29257426 29396138 29537766 
852.382 29686464 29846004 30020124 30213422 30430902 30676972 30955312 
855.757 31268690 31618000 32004502 32430336 32899156 33416860 33991364 
859.132 34630312 35342664 36137304 37022516 38007532 39099188 40300612 
862.507 41605824 42997196 44443136 45895424 47298300 48592060 49720380 
865.882 50643388 51341344 51821672 52118456 52292660 52427600 52612848 
869.256 52942440 53502376 54357564 55554644 57113024 59024608 61248764 
872.631 63711420 66307844 68890208 71285688 73311776 74781240 75546280 
876.006 75515328 74666128 73050256 70781952 68023312 64946100 61725548 
879.381 58521124 55454076 52617072 50068536 47833988 45917852 44307796 
882.756 42982892 41917676 41086068 40463956 40026324 39749336 39609708 
886.131 39583904 39652256 39800716 40022980 40321228 40704244 41185252 
889.505 41776404 42486660 43320740 44280020 45364772 46577780 47925292 
892.880 49417764 51068228 52889704 54892032 57078332 59439380 61945112 
896.255 64537108 67124912 69572480 71714488 73373992 74374880 74588296 
899.630 73951920 72484128 70280904 67503128 64357696 61049692 57775548 
903.005 54700060 51934136 49548176 47570868 45998292 44805860 43956788 
906.379 43411724 43130556 43079000 43231388 43569428 44083584 44771988 
909.754 45637820 46686604 47922296 49342552 50933636 52664392 54479816 
913.129 56307236 58053824 59616428 60904156 61843704 62396076 62564344 
916.504 62392940 61962800 61372320 60733860 60150180 59698156 59426424 
919.879 59344636 59427144 59617268 59842036 60028760 60114676 60067224 
923.254 59889460 59623916 59343380 59144836 59137700 59418484 60066960 
926.628 61129404 62609732 64463920 66595772 68870168 71102608 73082480 
930.003 74603720 75465536 75514656 74668480 72922624 70361472 67143008 
933.378 63492084 59651060 55853276 52307348 49158656 46496788 44359680 
936.753 42742292 41614176 40932176 40653664 40735540 41132180 41794024 
940.128 42652836 43621484 44602464 45484956 46166704 46572244 46656684 
943.502 46419204 45898112 45166044 44310656 43419784 42572828 41824160 
946.877 41205144 40727024 40385548 40168844 40061308 40048016 40113820 
950.252 40242156 40416312 40617644 40828420 41035224 41229552 41410268 
953.627 41581464 41751528 41929392 42122040 42334792 42570820 42831912 
957.002 43120312 43437904 43786152 44165120 44573240 45007104 45462916 
960.377 45938032 46431664 46944980 47480560 48040228 48624336 49231760 
963.751 49859952 50507324 51174308 51863632 52579300 53325368 54103868 
967.126 54914180 55753660 56618808 57506760 58416572 59349116 60305628 
970.501 61287872 62296512 63331692 64393856 65484792 66607596 67766184 
973.876 68965112 70207328 71495680 72833080 74223392 75673224 77191512 
977.251 78787696 80472160 82254264 84142512 86146712 88278544 90552008 
980.625 92984152 95592040 98389648 101387096 104588336 107990064 111578760 
984.000 115328952 119192904 123090744 126913320 130508792 133694632 
986.893 136289104 138115456 139040336 138997712 137992048 136104880 
989.786 133477224 130309208 126824440 123246152 119793352 116640904 
992.678 113916584 111703400 110033560 108904472 108288944 108149896 
995.571 108447176 109143056 110207040 111610672 113327936 115335432 
998.464 117608696 120122840 122851016 125755000 128780544 131854144 
1001.356 134872320 137712784 140248064 142350368 143920816 144899568 
1004.249 145273440 145080128 144403280 143372224 142136304 140861536 
1007.142 139716432 138840496 138348080 138316832 138784256 139759120 
1010.035 141229280 143173824 145568304 148390864 151622976 155245840 
1012.927 159239744 163585776 168262432 173246576 178507440 183988576 
1015.820 189597648 195190448 200552592 205430672 209544336 212624336 
1018.713 214480112 215023184 214302688 212493936 209897360 206898480 
1021.605 203890016 201269184 199369216 198416192 198542800 199770560 
1024.498 202031552 205182320 209037648 213398048 218045616 222775376 
1027.391 227391984 231700160 235531072 238742528 241233152 242960880 
1030.284 243940800 244240752 243956768 243203600 242096160 240730960 
1033.177 239189424 237527376 235767056 233894544 231856256 229570624 
1036.070 226933136 223845024 220236704 216074896 211373872 206186448 
1038.963 200595920 194696992 188591072 182384576 176176224 170061600 
1041.856 164128512 158443280 153057472 148005072 143305344 138974400 
1044.750 135029424 131490264 128382432 125730784 123553864 121863768 
1047.643 120662328 119943224 119693480 119895352 120526736 121558600 
1050.536 122956504 124679616 126680432 128913704 131336000 133906632 
1053.429 136589312 139341600 142106976 144814176 147367920 149655344 
1056.322 151565104 152987584 153834336 154050960 153617408 152557440 
1059.215 150936368 148868560 146505312 144019312 141604928 139441856 
1062.108 137683264 136454336 135833584 135861040 136540688 137844896 
1065.001 139716752 142068528 144793184 147756448 150805520 153793056 
1067.894 156573808 159024160 161054496 162598640 163616064 164084416 
1070.787 163993152 163343760 162149104 160435792 158243376 155621232 
1073.680 152633584 149354368 145872304 142298672 138755248 135377056 
1076.573 132305328 129663184 127557304 126067384 125236336 125073600 
1079.466 125548480 126593720 128093880 129889232 131794408 133590784 
1082.359 135066816 136054480 136441984 136208336 135422672 134239968 
1085.252 132865120 131524536 130450312 129833296 129818424 130494568 
1088.146 131881488 133934200 136539264 139537600 142721440 145855904 
1091.039 148721440 151109584 152854560 153850176 154040768 153426608 
1093.932 152053328 150008928 147407056 144369920 141025600 137484352 
1096.825 133832992 130139008 126447144 122788984 119189632 115669120 
1099.718 112244496 108928528 105728264 102647552 99689928 96863384 94184488 
1103.093 91680152 89383480 87334504 85572960 84133256 83046280 82335960 
1106.468 82019352 82108408 82608504 83518144 84827112 86516120 88556512 
1109.844 90907008 93518480 96329856 99263464 102231424 105127352 107828136 
1113.219 110212416 112160144 113570256 114377656 114551712 114101400 
1116.112 113067096 111517544 109538960 107222864 104668064 101964552 
1119.005 99186104 96392352 93621392 90894472 88223776 85617704 83086952 
1122.380 80649104 78325432 76141048 74122304 72291544 70669960 69277592 
1125.755 68132024 67251656 66653872 66352076 66355668 66666616 67278664 
1129.131 68175784 69332040 70713440 72271864 73948464 75674680 77368144 
1132.506 78947424 80339936 81489984 82374688 83006880 83436384 83736704 
1135.881 83998952 84316728 84764648 85395288 86226432 87238904 88375632 
1139.256 89547808 90651616 91569304 92191688 92432000 92225576 91538952 
1142.632 90365648 88721296 86639192 84166160 81365168 78307136 75070904 
1146.007 71741344 68395992 65106200 61933724 58924072 56112452 53522316 
1149.382 51166668 49050880 47173552 45528632 44105740 42891996 41874400 
1152.757 41038976 40373624 39868448 39515348 39308176 39242636 39314524 
1156.133 39520568 39858132 40325372 40921544 41647468 42504528 43493828 
1159.508 44616308 45870820 47254560 48761628 50381468 52098768 53888724 
1162.883 55716520 57539212 59302356 60946168 62411948 63639632 64577512 
1166.258 65184652 65431088 65302984 64802788 63949840 62776216 61323588 
1169.634 59640756 57774680 55772232 53678820 51534112 49376108 47239380 
1173.009 45151892 43138280 41217716 39404020 37707756 36136296 34693724 
1176.384 33381902 32200508 31147106 30218040 29408654 28715096 28133316 
1179.759 27660464 27294494 27033686 26876376 26820440 26863440 27002234 
1183.135 27233916 27555456 27964546 28458814 29035184 29689408 30414412 
1186.510 31199866 32033108 32897692 33774812 34644628 35484736 36272900 
1189.885 36988420 37613192 38136220 38554864 38876816 39118800 39304948 
1193.260 39464180 39624920 39814044 40054368 40361876 40747220 41214140 
1196.635 41759732 42373256 43035608 43721252 44394508 45012208 45528744 
1200.011 45891740 46051636 45966212 45603148 44949480 44013544 42827488 
1203.386 41440812 39916284 38324228 36728004 35183968 33736780 32414950 
1206.761 31235218 30203618 29317790 28570516 27950870 27447332 27047476 
1210.136 26739596 26513706 26362148 26279664 26263576 26312436 26425736 
1213.512 26602364 26840070 27135784 27485242 27882922 28322524 28795776 
1216.887 29292268 29800578 30307848 30801198 31269614 31703782 32096356 
1220.262 32442834 32739636 32985482 33181534 33332668 33447672 33539366 
1223.637 33624924 33723568 33854684 34037656 34288184 34617612 35032188 
1227.013 35531552 36108212 36746572 37425276 38116688 38788916 39411676 
1230.388 39956240 40398968 40724984 40928172 41013264 40995928 40903776 
1233.763 40774336 40649588 40577552 40604144 40769276 41108284 41647760 
1237.138 42406064 43395832 44623468 46089512 47787712 49704592 51816408 
1240.514 54086940 56471884 58914392 61346828 63699068 65892860 67849032 
1243.889 69499256 70785184 71670440 72144848 72224040 71946744 71367064 
1247.264 70553944 69579752 68515424 67429448 66375276 65388060 64479992 
1250.639 63638292 62828556 62000336 61102972 60093444 58947636 57666748 
1254.015 56276724 54825412 53368936 51969684 50683528 49549992 48592428 
1257.390 47812308 47191428 46691956 46263448 45848988 45387356 44825508 
1260.765 44123156 43254924 42215076 41015192 39682892 38255220 36776000 
1264.140 35291304 33841144 32459938 31172880 29994878 28933032 27987658 
1267.516 27154758 26427004 25795638 25251922 24786440 24390250 24055390 
1270.891 23773702 23538436 23343678 23184834 23058504 22962252 22894138 
1274.266 22851948 22833404 22835602 22855684 22891310 22940316 23000540 
1277.641 23068986 23141496 23212096 23274002 23320464 23346548 23349098 
1281.017 23327456 23281274 23210348 23113574 22988698 22834206 22651110 
1284.392 22444050 22222546 21999170 21788412 21605234 21462164 21369748 
1287.767 21337172 21372636 21484898 21683456 21977036 22373192 22875732 
1291.142 23483452 24188666 24975740 25821940 26693364 27548218 28340278 
1294.518 29019244 29542164 29879260 30018278 29968218 29756718 29427304 
1297.893 29027426 28605126 28203070 27851798 27572474 27376324 27265810 
1301.268 27236598 27278264 27376040 27510694 27660994 27807462 27931436 
1304.643 28019074 28061100 28052440 27992180 27882676 27729260 27539854 
1308.019 27324098 27094166 26862382 26640870 26441090 26272588 26142928 
1311.394 26058586 26024672 26044866 26122062 26257698 26452076 26704570 
1314.769 27014506 27381122 27804284 28284186 28820810 29413688 30062484 
1318.144 30766804 31526458 32341410 33210720 34130804 35093720 36085096 
1321.520 37084220 38063152 38986736 39818004 40518912 41056528 41411616 
1324.895 41583360 41595540 41492032 41337704 41204744 41156696 41244416 
1328.270 41492428 41897568 42432112 43053244 43714436 44371464 44993796 
1331.645 45565320 46084904 46563688 47022992 47490948 47996632 48567860 
1335.021 49226528 49983504 50836928 51770788 52759184 53766640 54752944 
1338.396 55679904 56508528 57205284 57743912 58106548 58286428 58287492 
1341.771 58122116 57807308 57361384 56802796 56146388 55404876 54588532 
1345.146 53704316 52757352 51751864 50691720 49583384 48437784 47269928 
1348.521 46101704 44960504 43875292 42879672 42007452 41289708 40757228 
1351.897 40435660 40343876 40495232 40894892 41539788 42416036 43497892 
1355.272 44744880 46097248 47485144 48827136 50037264 51040168 51770936 
1358.647 52183992 52259548 52003076 51448012 50648788 49684084 48648092 
1362.022 47637308 46749292 46062064 45621112 45436504 45481792 45704224 
1365.398 46031080 46386424 46697084 46896472 46938076 46797300 46474920 
1368.773 45994208 45395116 44724864 44025352 43332784 42674480 42069288 
1372.148 41534504 41088140 40749148 40538484 40472428 40557432 40786964 
1375.523 41142740 41600060 42132520 42719004 43345016 44002032 44687588 
1378.899 45403576 46155832 46952476 47802620 48711364 49674908 50673360 
1382.274 51665496 52594932 53387820 53965400 54258444 54208136 53781040 
1385.649 52977664 51846496 50485964 49029516 47629804 46412232 45451884 
1389.024 44770924 44345772 44127888 44057184 44077608 44137424 44188264 
1392.400 44187900 44096460 43880860 43522908 43024672 42409460 41712460 
1395.775 40969168 40202100 39416900 38609216 37775816 36925212 36085668 
1399.150 35299856 34611832 34055328 33641964 33363614 33199988 33129248 
1402.525 33133968 33203996 33336532 33531886 33790428 34110160 34486012 
1405.901 34911164 35378824 35883080 36419056 36982572 37569152 38174132 
1409.276 38793916 39426080 40070288 40727680 41399548 42084436 42777024 
1412.651 43466692 44140140 44784148 45387984 45947576 46464780 46946272 
1416.026 47399916 47833988 48256496 48677000 49111052 49580560 50106572 
1419.402 50704192 51371292 52086744 52816208 53522352 54173604 54745652 
1422.777 55228292 55624952 55951940 56233388 56494072 56752460 57015196 
1426.152 57278280 57530964 57761244 57958776 58117384 58235804 58316592 
1429.527 58365712 58391480 58405128 58420932 58454024 58520064 58630296 
1432.903 58789144 58992420 59229056 59486112 59752752 60029520 60333004 
1436.278 60698192 61164072 61759008 62487740 63326360 64230828 65142884 
1439.653 66001540 66740060 67292040 67603704 67631576 67350352 66752232 
1443.028 65843776 64644880 63184352 61503892 59650788 57671856 55616140 
1446.404 53531236 51468268 49491688 47671992 46076284 44754504 43725500 
1449.779 42980992 42496888 42249368 42222232 42407708 42798816 43376684 
1453.154 44102256 44921732 45760400 46533004 47155048 47545912 47658420 
1456.529 47503516 47167088 46773868 46432256 46202340 46091208 46080116 
1459.905 46147100 46278080 46466328 46706052 46986144 47285264 47572052 
1463.280 47814680 47988936 48091824 48144164 48187108 48263676 48400592 
1466.655 48603288 48856208 49132016 49396232 49613768 49749364 49760064 
1470.030 49596196 49201252 48520472 47524656 46234036 44732064 43140588 
1473.406 41580228 40130500 38816632 37629016 36549732 35572688 34711060 
1476.781 33989496 33428024 33032670 32790050 32676116 32664292 32737420 
1480.156 32891616 33135474 33483174 33947472 34534908 35245232 36075372 
1483.531 37023812 38093972 39292728 40624228 42084800 43653428 45284228 
1486.906 46910464 48438596 49755456 50744412 51289812 51303904 50751936 
1490.282 49666960 48149940 46337204 44372268 42363832 40371440 38419240 
1493.657 36503272 34613124 32752104 30943712 29234248 27683736 26343874 
1497.032 25242968 24379350 23732756 23274352 22978356 22826454 22804384 
1500.407 22898540 23094740 23376128 23724918 24124178 24552728 24983670 
1503.783 25381104 25688690 25832842 25728660 25300562 24523418 23452464 
1507.158 22211388 20930660 19695092 18529968 17421936 16349202 15300047 
1510.533 14276908 13298673 12390714 11573252 10858011 10244384 9723102 
1513.908 9280900 8904891 8583885 8307424 8067121 7857316 7676648 7529025 
1517.766 7420380 7354492 7328544 7331643 7344988 7350245 7336597 7308932 
1521.623 7288580 7302698 7369589 7489144 7646667 7820643 7994014 8158304 
1525.481 8317422 8484538 8675987 8902693 9166199 9460714 9777963 10112979 
1529.338 10465597 10839461 11239047 11665923 12117784 12589624 13076422 
1532.713 13576483 14093584 14634946 15204160 15799480 16411170 17025618 
1536.089 17626340 18197590 18726660 19201168 19611438 19950174 20213876 
1539.464 20403032 20521574 20580248 20593242 20575386 20538908 20488088 
1542.839 20418278 20317158 20172708 19977408 19736978 19468332 19194796 
1546.214 18934690 18693070 18460092 18215558 17939494 17619920 17261518 
1549.590 16884084 16515583 16177451 15875563 15598992 15327882 15044387 
1552.965 14741573 14428007 14124937 13856490 13635767 13459343 13305471 
1556.340 13140794 12923778 12610397 12167394 11590029 10923141 10253917 
1559.715 9674244 9233175 8928330 8726897 8587805 8476091 8362919 8230899 
1563.573 8073299 7896218 7715736 7551749 7420481 7326791 7263444 7214255 
1567.430 7162546 7095484 7009845 6913247 6821147 6750638 6712545 6709617 
1571.288 6737346 6788937 6856625 6933009 7010383 7078442 7125830 7143345 
1575.145 7128693 7091880 7055339 7046180 7082315 7166992 7290500 7437570 
1579.002 7595007 7754964 7916363 8083460 8262271 8457306 8670004 8897958 
1582.860 9136251 9378500 9618141 9847813 10059397 10243977 10393510 10502426 
1586.717 10570491 10603424 10613848 10618228 10634323 10680063 10769044 
1590.093 10910910 11111318 11371508 11686788 12044501 12425047 12799307 
1593.468 13133042 13394207 13555288 13600756 13529583 13354945 13100736 
1596.843 12794802 12465999 12137784 11827284 11546507 11302195 11097007 
1600.218 10930208 10798018 10695107 10616428 10558744 10522285 10510165 
1603.594 10526222 10572935 10649127 10749956 10867183 10990661 11110128 
1606.969 11214736 11293693 11336306 11331612 11271317 11150887 10972480 
1610.344 10746084 10488611 10222198 9968256 9742856 9554120 9400711 9273928 
1614.201 9160514 9047332 8922850 8782276 8630457 8481598 8355723 8270342 
1618.059 8235086 8249371 8304486 8386260 8478591 8567156 8639820 8690928 
1621.916 8722333 8743902 8769597 8812469 8880812 8974364 9087425 9211717 
1625.774 9340040 9467385 9590973 9709819 9824528 9937438 10052106 10174708 
1629.631 10311900 10468720 10647532 10846562 11059856 11277846 11489583 
1633.006 11685085 11855545 11995892 12106268 12194689 12276040 12369373 
1636.382 12492494 12654640 12856026 13089091 13343055 13605270 13864495 
1639.757 14114291 14352999 14584710 14816957 15057285 15308936 15568803 
1643.132 15826352 16066862 16275272 16439009 16552791 16621122 16659647 
1646.507 16690463 16737845 16822462 16955120 17137346 17362686 17618990 
1649.883 17887702 18142242 18350232 18470048 18463790 18319332 18078574 
1653.258 17836260 17684522 17664918 17756552 17909628 18074396 18217768 
1656.633 18323792 18388358 18416532 18415218 18389328 18338966 18258994 
1660.008 18142000 17980830 17771740 17515312 17217870 16891008 16550209 
1663.384 16212154 15891751 15598133 15332516 15087918 14849151 14596703 
1666.759 14307521 13961043 13544144 13056379 12511489 11935913 11362223 
1670.134 10818841 10324827 9886894 9500878 9155099 8831473 8509101 8166407 
1673.991 7787887 7371511 6936073 6517855 6155017 5873347 5675341 5545143 
1677.849 5457829 5391164 5332862 5282013 5247536 5240325 5266887 5323537 
1681.706 5397001 5467224 5517121 5539169 5544874 5562225 5624721 5753264 
1685.564 5946872 6191347 6469558 6769350 7082888 7405213 7732769 8060067 
1689.421 8381395 8693024 8994051 9287061 9576035 9863270 10145911 10415874 
1693.279 10658465 10857704 11000481 11084532 11123725 11147861 11189984 
1696.654 11266489 11370352 11472402 11533985 11512005 11373855 11112338 
1700.029 10761979 10393476 10075437 9843509 9687288 9571191 9452621 9297487 
1703.886 9084515 8806180 8469773 8093722 7702380 7315940 6946173 6595761 
1707.744 6260926 5935317 5611999 5286205 4955796 4621352 4286328 3955542 
1711.601 3633694 3323504 3025246 2736429 2453934 2175653 1901245 1632630 
1715.459 1371859 1118885 871769 627813 387808 159735 -43337 -208329 -327903 
1719.798 -404146 -447277 -472565 -495071 -525982 -569796 -623962 -681297 
1723.656 -733200 -774116 -803948 -826636 -847404 -870089 -895649 -923159 
1727.513 -951725 -981579 -1014372 -1052485 -1096279 -1143440 -1190166 
1730.888 -1233880 -1276797 -1327637 -1401724 -1514002 -1671968 -1865146 
1734.264 -2064933 -2235852 -2354143 -2417544 -2440839 -2445484 -2451217 
1737.639 -2472007 -2513385 -2572414 -2639307 -2703193 -2755250 -2792782 
1741.014 -2817439 -2833010 -2842162 -2845684 -2843412 -2835380 -2823398 
1744.389 -2810296 -2798708 -2790115 -2783597 -2776650 -2767069 -2753900 
1747.765 -2738622 -2724727 -2716562 -2716594 -2725188 -2739972 -2756534 
1751.140 -2770526 -2778132 -2777736 -2768913 -2753077 -2732202 -2709614 
1754.515 -2690153 -2678430 -2678726 -2692425 -2716496 -2743923 -2766312 
1757.890 -2777473 -2776090 -2766312 -2754986 -2750410 -2758443 -2779613 
1761.266 -2809769 -2841503 -2866849 -2880740 -2882714 -2875342 -2862439 
1764.641 -2847626 -2833339 -2821028 -2812502 -2808551 -2809703 -2815168 
1768.016 -2821587 -2824847 -2821719 -2811942 -2799004 -2790313 -2793868 
1771.391 -2815267 -2854045 -2901871 -2946005 -2975821 -2986154 -2978914 
1774.767 -2961374 -2941266 -2923790 -2910823 -2901015 -2891997 -2883274 
1778.142 -2876691 -2875901 -2884558 -2903845 -2930373 -2957951 -2979177 
1781.517 -2989971 -2990892 -2986878 -2984475 -2989313 -3003232 -3023436 
1784.892 -3044264 -3060155 -3067459 -3066275 -3058773 -3047389 -3034031 
1788.268 -3019125 -3002673 -2985759 -2971609 -2965290 -2972398 -2996091 
1791.643 -3034952 -3081902 -3128091 -3164736 -3187366 -3196872 -3197628 
1795.018 -3194471 -3191182 -3189636 -3190030 -3192399 -3197069 -3205094 
1798.393 -3217626 -3234859 -3255710 -3277513 -3297375 -3313159 -3325029 
1801.769 -3334630 -3344133 -3354523 -3365110 -3373428 -3377274 -3375170 
1805.144 -3367575 -3356890 -3346204 -3337721 -3332526 -3330159 -3329600 
1808.519 -3330225 -3332690 -3337754 -3345941 -3356824 -3367609 -3374907 
1811.894 -3376814 -3372606 -3365241 -3358994 -3357811 -3363762 -3375565 
1815.270 -3388979 -3398546 -3399861 -3391313 -3373822 -3351268 -3327594 
1818.645 -3305234 -3285109 -3266036 -3246370 -3225552 -3204075 -3183452 
1822.020 -3165920 -3153453 -3147171 -3147894 -3155559 -3168979 -3186281 
1825.395 -3204173 -3219171 -3228216 -3230321 -3226308 -3219796 -3215718 
1828.771 -3218218 -3229202 -3247192 -3267121 -3282742 -3289878 -3287378 
1832.146 -3277645 -3264655 -3252158 -3242095 -3233807 -3225289 -3214139 
1835.521 -3199635 -3182367 -3164144 -3146249 -3128321 -3107399 -3080093 
1838.896 -3042783 -2994150 -2935935 -2872215 -2808057 -2748796 -2698451 
1842.271 -2659231 -2632259 -2616714 -2609205 -2605187 -2598468 -2583317 
1845.647 -2556373 -2517700 -2470195 -2419652 -2372630 -2334337 -2306916 
1849.022 -2290041 -2280548 -2275472 -2273297 -2274912 -2283185 -2301115 
1852.397 -2328965 -2364194 -2401892 -2436720 -2465417 -2488611 -2509893 
1855.772 -2534501 -2566518 -2606504 -2651920 -2698583 -2742211 -2781259 
1859.148 -2816979 -2851675 -2887553 -2924778 -2961242 -2993262 -3018928 
1862.523 -3037847 -3051831 -3064531 -3078086 -3092529 -3105951 -3114998 
1865.898 -3117268 -3113189 -3106017 -3100260 -3099898 -3106149 -3116380 
1869.273 -3125953 -3130361 -3127532 -3118584 -3107300 -3096608 -3088680 
1872.649 -3083580 -3079928 -3076606 -3073480 -3071769 -3073612 -3080257 
1876.024 -3090884 -3102826 -3112893 -3118485 -3119472 -3118091 -3117827 
1879.399 -3122104 -3132269 -3147072 -3163947 -3180262 -3194339 -3206903 
1882.774 -3219270 -3233313 -3248738 -3264458 -3277447 -3285405 -3287115 
1886.150 -3283663 -3276987 -3269325 -3262451 -3256269 -3250875 -3245679 
1889.525 -3240615 -3236306 -3233577 -3231932 -3230650 -3228479 -3224565 
1892.900 -3219632 -3215849 -3215422 -3219862 -3228841 -3239266 -3247488 
1896.275 -3249856 -3245087 -3234760 -3222559 -3211870 -3204272 -3199503 
1899.651 -3194142 -3184833 -3169834 -3149342 -3126117 -3103681 -3084633 
1903.026 -3069565 -3057062 -3044724 -3030707 -3014815 -2997901 -2981744 
1906.401 -2967857 -2956405 -2946630 -2938699 -2933005 -2930932 -2934914 
1909.776 -2945479 -2961374 -2980263 -2997473 -3010109 -3017743 -3021593 
1913.152 -3024883 -3030477 -3039690 -3051206 -3063347 -3074631 -3084863 
1916.527 -3096839 -3113913 -3137664 -3167729 -3200621 -3231241 -3256532 
1919.902 -3276428 -3293594 -3312962 -3337984 -3368299 -3399565 -3425207 
1923.277 -3438619 -3437074 -3423300 -3403050 -3383784 -3370798 -3365307 
1926.653 -3365208 -3367411 -3368792 -3369252 -3370798 -3375532 -3384606 
1930.028 -3396902 -3408803 -3416430 -3417909 -3414359 -3409033 -3405976 
1933.403 -3407784 -3414194 -3423761 -3433623 -3442728 -3452327 -3465114 
1936.778 -3482897 -3505214 -3528550 -3547086 -3556222 -3554250 -3543569 
1940.154 -3529864 -3520531 -3519446 -3527597 -3541170 -3553659 -3559048 
1943.529 -3554250 -3539428 -3517047 -3490851 -3463109 -3436154 -3411630 
1946.904 -3391444 -3377833 -3373000 -3377077 -3387861 -3401932 -3413865 
1950.279 -3419191 -3417284 -3408606 -3395718 -3381779 -3367313 -3352188 
1953.655 -3337754 -3324240 -3315263 -3315263 -3327035 -3349952 -3379905 
1957.030 -3408704 -3428330 -3434905 -3430171 -3420638 -3416167 -3423399 
1960.405 -3442959 -3470143 -3495354 -3509750 -3510112 -3498082 -3479117 
1963.780 -3461367 -3450486 -3447528 -3451341 -3458836 -3467612 -3476454 
1967.156 -3485658 -3493152 -3496373 -3492396 -3478558 -3457192 -3435102 
1970.531 -3420670 -3422314 -3444109 -3482108 -3527137 -3568644 -3596675 
1973.906 -3607520 -3601440 -3580508 -3545015 -3491870 -3415542 -3312337 
1977.281 -3187070 -3053015 -2929846 -2837454 -2789127 -2785836 -2819645 
1980.656 -2874881 -2935573 -2990859 -3036301 -3072164 -3101444 -3126315 
1984.032 -3145065 -3156118 -3157927 -3151282 -3140328 -3130558 -3125065 
1987.407 -3124966 -3127795 -3129243 -3127039 -3122038 -3116742 -3115656 
1990.782 -3120755 -3129538 -3136578 -3136183 -3124571 -3103089 -3077724 
1994.157 -3055121 -3040809 -3036104 -3037025 -3038341 -3036795 -3031662 
1997.533 -3026463 -3027450 -3037782 -3057062 -3082626 -3106511 -3123321 
2000.908 -3131545 -3133289 -3134210 -3139835 -3152532 -3170032 -3188550 
2004.283 -3202233 -3207660 -3204437 -3193681 -3176577 -3154177 -3125525 
2007.658 -3090325 -3050844 -3012643 -2981448 -2964270 -2963842 -2976610 
2011.034 -2996486 -3015012 -3026002 -3028075 -3024423 -3019125 -3015933 
2014.409 -3016032 -3016361 -3013465 -3005766 -2994545 -2984278 -2980296 
2017.784 -2984311 -2994249 -3004482 -3007411 -2999020 -2979177 -2952390 
2021.159 -2925502 -2904602 -2892227 -2887059 -2887059 -2890120 -2895452 
2024.535 -2905853 -2922408 -2943701 -2965356 -2980033 -2979704 -2962262 
2027.910 -2930274 -2890614 -2853748 -2827875 -2815366 -2814971 -2820765 
2031.285 -2826525 -2827809 -2823464 -2812864 -2797786 -2778395 -2753142 
2034.660 -2722159 -2687486 -2652085 -2621655 -2601037 -2590892 -2589871 
2038.036 -2593560 -2596031 -2593264 -2584009 -2568824 -2549785 -2529592 
2041.411 -2508509 -2486766 -2465450 -2445188 -2427923 -2416193 -2409899 
2044.786 -2407428 -2405648 -2400080 -2386635 -2365578 -2336841 -2303620 
2048.161 -2269177 -2235687 -2205326 -2181260 -2166886 -2166358 -2182612 
2051.537 -2215150 -2258464 -2304147 -2340400 -2356944 -2350221 -2322571 
2054.912 -2282460 -2241521 -2210568 -2194249 -2193062 -2202425 -2217161 
2058.287 -2233544 -2250784 -2269243 -2289250 -2309816 -2326493 -2334534 
2061.662 -2330052 -2312585 -2285130 -2253817 -2223391 -2197084 -2174501 
2065.038 -2152610 -2128211 -2100316 -2070506 -2042970 -2022358 -2011441 
2068.413 -2010452 -2018136 -2031724 -2049269 -2070011 -2093589 -2118517 
2071.788 -2143246 -2163424 -2175392 -2177172 -2169820 -2156368 -2141631 
2075.163 -2129134 -2119111 -2109911 -2097579 -2079311 -2055172 -2028921 
2078.539 -2004944 -1988717 -1982318 -1984429 -1990828 -1996402 -1997622 
2081.914 -1993400 -1986144 -1978162 -1972621 -1971236 -1973412 -1978360 
2085.289 -1985418 -1994753 -2006758 -2022358 -2040464 -2059360 -2077497 
2088.664 -2093457 -2108625 -2125969 -2149214 -2180831 -2221545 -2266968 
2092.040 -2310278 -2344586 -2363172 -2362645 -2344355 -2311827 -2271089 
2095.415 -2229160 -2191414 -2162105 -2143741 -2136322 -2137311 -2143147 
2098.790 -2148324 -2147565 -2138432 -2120759 -2096755 -2071561 -2049829 
2102.165 -2034165 -2024798 -2019258 -2014772 -2009363 -2002668 -1996171 
2105.541 -1991553 -1989640 -1988453 -1985056 -1975919 -1959163 -1935974 
2108.916 -1910475 -1886656 -1868346 -1856865 -1850003 -1844427 -1837795 
2112.291 -1828985 -1820110 -1815061 -1816348 -1825059 -1839610 -1855941 
2115.666 -1869864 -1878838 -1882368 -1882335 -1881510 -1881774 -1883291 
2119.042 -1885799 -1887547 -1887646 -1886953 -1887316 -1889494 -1894970 
2122.417 -1902953 -1912025 -1920668 -1928981 -1936700 -1945936 -1958207 
2125.792 -1973248 -1991191 -2011177 -2033142 -2058733 -2091775 -2134641 
2129.167 -2190227 -2257377 -2331997 -2407032 -2474741 -2528373 -2563982 
2132.542 -2580813 -2579430 -2562796 -2534995 -2499647 -2462518 -2430361 
2135.918 -2409141 -2404034 -2418038 -2447922 -2487853 -2530614 -2568659 
2139.293 -2597480 -2617340 -2630053 -2639208 -2647672 -2654851 -2658671 
2142.668 -2657025 -2648429 -2633873 -2617505 -2604331 -2598303 -2602519 
2146.043 -2616879 -2637891 -2662228 -2684851 -2701283 -2708791 -2706058 
2149.419 -2694236 -2677343 -2662623 -2657189 -2668650 -2702205 -2758476 
2152.794 -2835743 -2929714 -3035511 -3149539 -3269391 -3389505 -3501829 
2156.169 -3592404 -3642021 -3631474 -3547842 -3390622 -3176051 -2933861 
2159.544 -2695883 -2491411 -2337204 -2236873 -2183634 -2167182 -2175392 
2162.920 -2197941 -2228171 -2259222 -2284668 -2299138 -2299302 -2284536 
2166.295 -2259816 -2232555 -2210765 -2201601 -2207337 -2226424 -2255234 
2169.670 -2288887 -2323461 -2358064 -2391941 -2424496 -2454611 -2480012 
2173.045 -2498033 -2507093 -2507620 -2500833 -2490324 -2479419 -2470129 
2176.421 -2465516 -2468646 -2482022 -2508905 -2550642 -2604265 -2662228 
2179.796 -2714191 -2748138 -2754426 -2730095 -2678430 -2609930 -2539014 
2183.171 -2476784 -2431745 -2407526 -2401167 -2407526 -2421300 -2436160 
2186.546 -2447593 -2452272 -2447198 -2431086 -2405286 -2372432 -2337039 
2189.922 -2303884 -2275769 -2252762 -2233116 -2212974 -2188612 -2159468 
2193.297 -2127684 -2096458 -2070077 -2051181 -2039111 -2031988 -2026381 
2196.672 -2018961 -2008704 -1997061 -1985682 -1977997 -1975556 -1979481 
2200.047 -1989278 -2003691 -2020148 -2035748 -2047752 -2052830 -2049533 
2203.423 -2038485 -2021533 -2003130 -1987727 -1977437 -1971796 -1967409 
2206.798 -1959295 -1942341 -1915621 -1880949 -1843668 -1810772 -1787146 
2210.173 -1774739 -1772528 -1776224 -1781239 -1784836 -1785562 -1783912 
2213.548 -1781536 -1779622 -1778665 -1779259 -1781965 -1787971 -1798695 
2216.924 -1814731 -1834232 -1854457 -1871250 -1881147 -1883621 -1881609 
2220.299 -1879399 -1882962 -1896553 -1920305 -1951874 -1986507 -2019126 
2223.674 -2046795 -2068429 -2084092 -2093985 -2098634 -2095699 -2084488 
2227.049 -2065494 -2040595 -2014673 -1993664 -1981032 -1979020 -1986903 
2230.425 -2001481 -2019159 -2038320 -2057183 -2076013 -2094249 -2110307 
2233.800 -2120990 -2123397 -2115154 -2095699 -2067670 -2034362 -1999700 
2237.175 -1966717 -1936601 -1909353 -1884809 -1863200 -1845252 -1832054 
2240.550 -1823871 -1819186 -1815721 -1810673 -1801137 -1786321 -1767809 
2243.926 -1747349 -1728208 -1712762 -1701871 -1696095 -1695699 -1699462 
2247.301 -1707086 -1717383 -1727614 -1735336 -1737976 -1733587 -1722762 
2250.676 -1708109 -1692530 -1679295 -1669855 -1663056 -1656289 -1646684 
2254.051 -1632754 -1615225 -1598092 -1585052 -1580166 -1585415 -1599974 
2257.427 -1620276 -1643086 -1664574 -1682233 -1695072 -1702993 -1706656 
2260.802 -1706888 -1704973 -1702168 -1700584 -1701211 -1704313 -1709000 
2264.177 -1712762 -1712696 -1707118 -1695732 -1680219 -1663980 -1650810 
2267.552 -1642756 -1640742 -1643746 -1650183 -1658798 -1669756 -1683355 
2270.927 -1700320 -1721046 -1743058 -1763717 -1779424 -1787014 -1785298 
2274.303 -1775003 -1757579 -1735435 -1711013 -1685665 -1660778 -1637936 
2277.678 -1617602 -1600898 -1588420 -1578648 -1569668 -1559532 -1545897 
2281.053 -1527638 -1505285 -1480123 -1453078 -1425338 -1396902 -1367572 
2284.428 -1337943 -1309667 -1285056 -1267117 -1257998 -1257668 -1264903 
2287.804 -1276070 -1287732 -1297015 -1302862 -1305538 -1306297 -1306430 
2291.179 -1305703 -1303688 -1299459 -1292158 -1282215 -1270850 -1259287 
2294.554 -1248549 -1238836 -1229386 -1219078 -1207513 -1194692 -1181838 
2297.929 -1170471 -1161285 -1154279 -1148859 -1143440 -1137128 -1130155 
2301.305 -1123446 -1118389 -1115845 -1116439 -1119017 -1122620 -1125825 
2304.680 -1128106 -1130155 -1132799 -1137590 -1145224 -1155568 -1167993 
2308.055 -1181673 -1195750 -1209363 -1222051 -1233516 -1242933 -1249540 
2311.430 -1252943 -1252844 -1250102 -1245807 -1241314 -1237448 -1234342 
2314.806 -1231237 -1227338 -1221688 -1213956 -1204407 -1194296 -1184119 
2318.181 -1174866 -1166869 -1159732 -1152561 -1144828 -1135013 -1122355 
2321.556 -1107120 -1090132 -1074399 -1064517 -1065310 -1081671 -1116902 
2324.931 -1170636 -1239298 -1317199 -1396836 -1470976 -1535232 -1587264 
2328.307 -1627902 -1659887 -1685929 -1707647 -1725963 -1740352 -1750022 
2331.682 -1754675 -1754741 -1750748 -1743322 -1732828 -1718439 -1699957 
2335.057 -1677480 -1651965 -1625393 -1599710 -1576502 -1556462 -1539359 
2338.432 -1524172 -1510601 -1498747 -1488841 -1482138 -1478935 -1478505 
2341.808 -1479925 -1481675 -1482039 -1480156 -1475335 -1466452 -1451889 
2345.183 -1429433 -1396737 -1352147 -1295891 -1229551 -1156691 -1081109 
2348.558 -1006472 -936021 -871941 -815788 -768658 -731381 -704355 -687053 
2352.416 -678882 -677691 -681297 -687880 -696349 -705943 -717587 -731811 
2356.273 -748548 -766773 -784501 -798987 -808380 -811224 -806826 -795746 
2360.130 -778845 -756850 -731281 -703925 -676335 -651357 -631274 -616584 
2363.988 -607121 -600768 -594415 -585183 -571914 -553813 -532667 -510494 
2367.845 -488981 -468527 -449363 -430330 -410866 -391103 -371671 -353628 
2371.703 -337769 -323963 -310951 -296746 -279263 -256249 -226544 -189584 
2375.560 -145599 -95448 -40421 18522 79794 142764 206772 272082 339358 
2379.900 409530 483363 561056 642048 724715 806900 886510 961652 1030663 
2384.239 1093207 1148950 1198287 1241682 1279863 1313495 1343407 1369765 
2388.097 1392368 1410584 1423183 1428801 1426773 1417232 1401177 1380900 
2391.954 1358663 1336295 1315091 1295150 1275942 1256934 1237894 1218788 
2395.812 1200580 1184200 1170212 1159348 1151674 1147422 1146956 1150644 
2399.669 1159182 1172903 1191974 1215997 1244772 1277836 1314958 1356104 
2403.526 1401310 1449977 1501044 1553680 1606356 1658938 1711593 1765619 
2407.384 1822745 1884838 1952997 2027525 2108392 2194335 2284227 2376935 
2411.241 2470829 2564377 2656178 2744598 2828099 2905913 2977669 3043030 
2415.099 3102361 3155258 3201319 3239706 3270219 3292687 3308045 3317627 
2418.956 3322836 3324973 3324872 3322168 3316492 3307444 3294790 3279266 
2422.813 3261739 3243545 3225886 3209830 3196212 3185864 3180090 3179756 
2426.671 3186065 3200084 3222281 3252725 3291619 3338696 3393659 3456377 
2430.528 3526086 3601719 3682178 3765927 3851798 3939626 4029611 4122559 
2434.386 4219575 4321298 4427932 4539279 4654808 4774354 4898088 5026450 
2438.243 5159879 5299018 5444072 5594713 5750879 5912678 6080013 6253362 
2442.101 6433035 6618704 6810209 7006679 7207652 7412662 7621848 7834880 
2445.958 8051493 8270883 8491904 8712969 8932895 9150734 9366549 9581015 
2449.815 9794231 10006873 10218500 10428262 10634832 10836642 11031918 
2453.191 11219122 11396950 11564133 11719261 11861879 11990852 12105382 
2456.566 12204573 12286505 12348714 12388362 12402374 12388021 12344146 
2459.941 12270928 12169234 12041776 11890789 11718410 11526329 11315526 
2463.316 11086945 10841771 10581966 10309457 10027557 9739807 9449403 
2466.692 9160480 8877092 8603250 8343429 8101418 7879820 7679987 7502055 
2470.549 7343741 7203172 7077802 6965970 6866825 6780321 6705848 6643466 
2474.406 6591859 6549641 6514760 6485398 6459704 6436500 6415179 6395037 
2478.264 6375904 6358050 6341139 6325135 6309637 6293870 6276658 6257194 
2482.121 6234639 6209127 6181635 6153975 6127930 6105080 6085859 6069563 
2485.979 6055182 6040936 6025481 6008515 5990408 5972133 5954900 5939650 
2489.836 5926885 5917178 5910562 5906800 5906061 5907740 5911099 5914693 
2493.694 5917212 5917078 5913450 5906094 5895313 5881710 5865825 5847891 
2497.551 5828010 5806182 5782039 5756118 5728989 5701358 5673763 5647311 
2501.408 5621599 5596828 5573032 5550110 5527960 5506953 5487122 5468566 
2505.266 5451421 5436087 5422365 5410924 5401598 5393949 5387440 5380831 
2509.123 5373149 5363857 5352854 5340476 5327663 5314816 5302137 5289157 
2512.981 5275372 5259710 5241901 5221914 5200050 5177349 5154481 5131983 
2516.838 5110224 5089438 5069458 5050317 5032215 5014785 4998462 4983446 
2520.696 4970342 4959885 4953551 4952110 4956332 4966353 4981033 4998596 
2524.553 5017132 5034495 5049110 5060608 5069391 5076196 5082398 5089338 
2528.410 5097719 5108279 5121120 5135303 5150089 5164037 5176142 5186101 
2532.268 5194148 5201626 5210177 5221478 5236100 5253773 5273461 5293081 
2536.125 5311831 5329205 5346145 5364159 5384824 5409314 5437194 5467526 
2539.983 5498497 5528430 5556855 5583067 5607635 5631199 5653521 5674736 
2543.840 5694879 5713981 5732715 5752357 5773678 5797049 5822133 5847521 
2547.698 5871332 5892626 5910528 5925340 5938205 5950197 5961853 5973409 
2551.555 5984462 5994237 6003039 6010934 6018494 6026893 6036367 6046782 
2555.412 6057568 6067681 6076451 6083440 6088682 6092075 6094159 6094630 
2559.270 6093353 6089993 6084414 6076148 6065665 6052898 6037677 6020039 
2563.127 6000117 5977709 5953489 5928263 5902769 5878117 5855011 5833853 
2566.985 5815316 5799903 5787915 5779991 5776331 5776599 5779991 5785598 
2570.842 5792180 5798896 5805611 5812462 5819950 5828446 5838017 5848059 
2574.699 5858402 5868310 5877814 5887252 5897093 5907874 5919731 5933066 
2578.557 5947275 5962660 5979255 5997563 6018057 6041440 6067984 6097654 
2582.414 6130418 6165502 6202439 6240790 6279481 6317605 6354319 6389052 
2586.272 6421871 6453718 6485869 6520210 6558219 6600201 6645889 6693869 
2590.129 6742057 6788668 6832423 6872850 6910015 6945163 6979034 7012673 
2593.987 7046886 7082248 7118791 7157088 7196838 7237535 7278640 7319209 
2597.844 7358266 7395372 7429952 7462210 7492582 7522012 7551715 7583239 
2601.701 7618172 7658066 7703932 7756246 7814031 7876311 7940693 8005253 
2605.559 8068843 8130654 8190954 8250823 8311174 8372444 8435075 8498728 
2609.416 8563168 8628092 8693666 8759555 8825522 8890923 8954576 9015261 
2613.274 9071895 9123900 9171410 9215034 9254938 9291292 9323553 9351077 
2617.131 9373184 9390011 9402099 9411004 9418353 9425632 9433725 9443003 
2620.989 9453399 9464812 9477646 9492174 9509277 9529530 9553205 9579930 
2624.846 9609300 9640703 9673837 9708802 9746144 9786232 9829477 9875879 
2628.703 9924929 9976596 10030235 10085950 10143368 10202726 10263653 
2632.079 10325608 10388351 10451138 10514103 10577009 10640502 10704718 
2635.454 10770539 10837933 10907070 10978019 11050475 11124269 11198994 
2638.829 11274242 11349434 11423653 11496354 11566345 11633555 11697612 
2642.204 11758613 11817308 11874513 11930702 11987275 12045013 12104359 
2645.580 12166065 12230166 12296526 12364975 12434833 12505998 12578232 
2648.955 12651468 12725568 12800774 12877119 12954365 13032614 13111732 
2652.330 13191444 13271957 13353066 13434736 13516799 13599081 13681551 
2655.705 13764241 13847665 13931824 14017675 14105290 14194702 14285605 
2659.081 14377726 14470140 14562130 14653212 14742670 14829950 14914951 
2662.456 14997396 15077387 15155334 15231682 15307151 15382050 15456618 
2665.831 15530924 15604728 15678270 15751515 15825287 15900172 15976857 
2669.206 16056031 16137592 16220992 16305372 16389802 16473697 16556714 
2672.582 16638817 16720006 16800488 16880192 16958636 17035300 17109842 
2675.957 17181916 17251484 17318652 17383690 17446736 17508172 17567924 
2679.332 17626684 17685418 17745230 17807778 17874720 17947230 18026628 
2682.707 18113568 18208474 18311316 18422202 18540862 18666886 18799868 
2686.083 18938948 19083194 19231888 19384098 19539482 19698074 19860124 
2689.458 20026086 20196762 20372124 20552144 20736616 20924504 21115084 
2692.833 21307764 21502272 21698502 21897262 22099390 22305762 22517502 
2696.208 22735316 22959668 23190216 23426866 23668788 23915292 24165300 
2699.583 24417694 24671602 24926398 25181272 25436258 25691220 25946332 
2702.959 26201876 26457816 26713730 26968844 27221780 27470558 27713226 
2706.334 27947478 28170932 28381944 28578832 28760232 28925770 29074828 
2709.709 29207314 29322894 29421950 29504218 29569900 29619416 29652940 
2713.084 29670890 29673694 29661596 29634458 29592210 29534326 29459996 
2716.460 29368944 29260722 29135520 28994448 28839258 28672230 28496138 
2719.835 28313646 28127094 27938396 27748862 27559692 27372088 27187564 
2723.210 27007840 26834890 26670922 26517476 26375596 26246258 26129734 
2726.585 26026500 25936906 25861642 25800914 25754852 25723070 25704826 
2729.961 25699132 25704896 25721382 25747962 25784282 25829782 25883940 
2733.336 25945698 26013730 26086770 26163446 26242950 26324652 26408130 
2736.711 26493456 26580630 26669828 26760916 26854100 26949244 27046028 
2740.086 27143684 27241112 27336872 27429578 27518246 27602308 27682464 
2743.462 27759600 27835158 27910518 27986810 28063998 28142048 28220360 
2746.837 28298228 28375152 28450816 28525010 28597694 28669080 28739132 
2750.212 28808310 28877466 28947126 29018428 29092080 29168722 29248424 
2753.587 29331332 29416950 29505280 29596750 29691538 29790498 29894274 
2756.963 30002974 30116638 30234736 30356098 30479308 30602802 30724838 
2760.338 30843458 30957234 31064528 31163908 31254020 31333358 31400598 
2763.713 31454210 31492860 31515590 31522252 31513274 31490080 31454422 
2767.088 31408508 31354014 31292654 31225784 31154438 31080222 31004738 
2770.464 30929870 30857544 30789708 30727398 30671140 30621220 30577312 
2773.839 30539060 30506002 30477496 30452936 30431790 30413062 30395898 
2777.214 30379622 30363206 30345402 30325080 30300566 30269692 30230898 
2780.589 30182128 30122178 30050908 29968644 29876600 29776658 29670678 
2783.965 29561102 29450032 29340230 29234000 29133324 29039824 28953750 
2787.340 28874668 28801054 28730672 28661718 28592598 28522428 28451524 
2790.715 28380386 28309790 28240656 28173512 28108500 28046006 27986138 
2794.090 27929138 27874938 27823606 27774470 27726646 27678794 27629814 
2797.466 27578474 27523896 27465438 27403214 27337364 27268280 27196382 
2800.841 27122310 27046100 26968140 26888468 26806836 26722894 26636748 
2804.216 26548294 26457674 26365280 26271638 26177346 26083180 25989704 
2807.591 25897514 25807312 25719626 25635226 25554742 25478700 25407838 
2810.967 25342710 25283634 25230852 25184572 25144370 25110070 25081354 
2814.342 25057764 25039160 25025822 25018206 25016872 25022312 25035334 
2817.717 25056290 25085566 25123760 25171404 25229342 25298314 25378890 
2821.092 25470830 25573930 25687108 25809176 25939264 26076214 26219684 
2824.468 26369258 26524168 26683430 26845816 27009604 27172536 27332990 
2827.843 27488736 27637972 27778674 27908998 28027028 28131194 28220820 
2831.218 28295964 28357608 28407482 28447562 28479898 28506540 28528902 
2834.593 28548752 28567932 28588458 28612134 28641014 28676054 28718070 
2837.969 28767206 28823466 28887346 28960196 29043758 29140870 29254484 
2841.344 29387488 29543440 29725918 29938822 30187528 30478456 30818592 
2844.719 31215780 31676978 32206572 32805346 33468284 34183820 34931236 
2848.094 35682784 36404284 37055604 37598304 37997584 38226308 38270596 
2851.469 38129204 37814996 37350412 36766764 36100000 35384756 34655000 
2854.845 33940444 33263658 32642108 32086760 31602494 31189646 30844240 
2858.220 30560460 30330408 30145758 29998856 29882420 29790074 29716870 
2861.595 29658686 29612536 29576780 29550250 29532730 29524892 29527836 
2864.970 29542978 29572454 29618848 29684550 29771906 29882952 30017958 
2868.346 30176552 30356952 30555838 30768654 30990504 31215600 31437714 
2871.721 31651176 31850658 32031930 32192692 32332666 32453864 32560028 
2875.096 32656144 32747708 32839652 32936186 33040464 33154748 33280474 
2878.471 33418718 33570364 33735888 33915512 34109476 34317228 34537848 
2881.847 34770428 35012832 35262552 35516124 35769340 36017156 36254636 
2885.222 36476388 36677704 36855484 37007972 37135288 37240292 37328244 
2888.597 37405556 37480752 37562792 37659692 37779644 37930216 38118460 
2891.972 38353292 38645904 39009824 39462980 40025520 40717600 41559292 
2895.348 42564604 43738072 45070096 46534184 48082756 49645152 51138152 
2898.723 52466408 53533784 54263548 54601388 54528012 54059920 53247264 
2902.098 52164340 50892356 49517424 48115180 46744532 45451844 44268204 
2905.473 43211840 42293812 41518172 40884776 40390276 40029628 39797484 
2908.849 39688268 39697740 39822580 40059528 40404968 40853284 41395688 
2912.224 42021108 42714104 43455524 44224436 44995932 45743612 46441992 
2915.599 47066008 47595788 48017768 48325484 48520396 48609624 48604884 
2918.974 48518880 48362812 48145868 47873348 47547580 47168752 46737152 
2922.350 46254420 45725572 45159096 44568024 43968736 43378588 42815128 
2925.725 42293920 41826204 41419488 41076452 40796536 40575952 40409148 
2929.100 40289780 40210352 40163028 40139912 40131700 40129336 40122760 
2932.475 40101900 40057024 39979564 39862020 39699628 39490452 39235236 
2935.851 38937192 38601940 38236548 37847856 37443768 37032004 36619876 
2939.226 36215520 35826836 35460644 35123464 34819860 34551840 34319236 
2942.601 34119444 33947612 33796768 33658900 33524406 33382650 33223954 
2945.976 33039286 32822498 32571316 32287798 31978716 31653672 31324382 
2949.352 31002460 30697030 30414482 30158014 29927286 29719638 29531240 
2952.727 29358026 29195440 29040180 28889612 28741434 28594402 28447810 
2956.102 28301304 28154704 28007978 27861018 27713648 27566012 27418496 
2959.477 27271594 27126224 26983864 26845394 26712110 26585068 26465140 
2962.853 26353238 26250658 26158520 26078570 26012606 25961844 25927584 
2966.228 25910316 25909858 25925300 25955442 25998884 26053942 26119810 
2969.603 26196000 26282478 26380068 26489688 26612438 26749216 26899994 
2972.978 27063944 27239068 27421320 27604638 27781252 27940552 28070570 
2976.354 28159866 28196812 28173334 28085276 27933732 27724244 27467310 
2979.729 27176734 26866930 26552696 26247806 25962478 25704544 25478490 
2983.104 25285146 25122708 24986864 24871870 24771180 24678722 24589194 
2986.479 24499088 24406898 24312626 24218164 24125648 24037146 23953314 
2989.854 23873004 23792496 23706196 23607666 23490448 23350638 23187176 
2993.230 23003160 22805606 22603116 22405114 22219826 22052188 21904408 
2996.605 21775418 21662836 21563308 21474106 21393590 21320676 21255010 
2999.980 21196244 21143644 21096336 21053448 21014254 20978540 20946272 
3003.355 20917760 20893040 20872076 20854728 20840440 20829212 20821008 
3006.731 20816282 20815238 20818296 20825352 20835990 20849826 20865992 
3010.106 20883860 20903122 20923498 20944880 20967412 20991440 21017106 
3013.481 21044684 21074352 21106282 21140444 21176936 21216006 21258072 
3016.856 21303554 21352660 21405634 21461956 21520690 21580998 21641696 
3020.232 21701674 21760474 21817888 21873812 21928244 21981114 22031620 
3023.607 22079554 22125086 22168182 22210340 22253340 22298858 22348494 
3026.982 22403334 22463242 22527554 22594598 22662350 22728858 22792266 
3030.357 22851564 22906294 22956872 23003930 23048582 23092258 23135310 
3033.733 23178718 23222442 23266730 23311758 23358120 23406374 23457186 
3037.108 23510908 23567294 23625858 23685830 23746544 23807968 23870448 
3040.483 23934584 24001320 24070906 24143162 24217708 24293880 24371466 
3043.858 24450608 24531482 24614582 24699592 24785844 24871974 24956752 
3047.234 25039372 25119828 25198968 25278226 25358940 25442196 25527966 
3050.609 25615682 25704156 25792086 25878522 25962688 26044162 26122730 
3053.984 26198498 26271566 26342676 26412812 26483138 26555126 26629350 
3057.359 26706190 26785230 26865978 26948044 27031748 27117620 27206788 
3060.735 27299998 27397038 27497102 27598530 27699558 27798594 27895146 
3064.110 27989636 28082942 28176730 28271880 28368856 28467764 28568216 
3067.485 28669398 28771136 28872792 28974046 29074862 29175490 29275750 
3070.860 29376496 29478364 29581924 29687670 29795574 29905136 30015328 
3074.236 30125586 30234984 30343590 30451978 30560498 30670180 30781636 
3077.611 30894578 31009150 31124608 31240168 31355404 31469670 31582684 
3080.986 31694372 31805128 31915448 32026618 32139778 32255500 32374430 
3084.361 32496072 32619282 32742492 32864488 32984302 33101752 33217624 
3087.737 33333096 33449530 33568220 33689728 33814388 33941916 34071664 
3091.112 34202748 34334332 34465276 34594828 34722472 34848220 34972748 
3094.487 35097168 35222664 35350676 35481712 35616204 35753688 35893412 
3097.862 36034400 36175652 36316668 36456820 36595724 36733520 36870452 
3101.238 37006964 37143732 37281844 37421376 37562824 37705880 37849844 
3104.613 37993968 38137780 38281056 38423980 38567136 38710992 38855872 
3107.988 39002144 39149764 39298456 39448032 39598204 39748064 39896888 
3111.363 40043360 40185816 40323444 40455768 40583120 40707336 40830352 
3114.739 40954312 41081036 41211484 41345536 41482732 41622416 41763964 
3118.114 41906988 42051364 42196488 42341624 42485820 42627468 42765328 
3121.489 42899096 43028436 43154676 43279300 43403596 43529028 43656176 
3124.864 43785016 43915212 44046400 44178068 44310512 44443984 44578672 
3128.240 44715020 44853100 44992328 45132408 45272752 45413108 45553616 
3131.615 45694908 45837244 45981460 46127756 46276020 46425840 46576528 
3134.990 46727448 46877872 47027864 47177136 47326200 47475200 47624664 
3138.365 47774988 47926516 48079092 48232536 48386556 48540184 48693200 
3141.740 48844972 48995460 49145152 49294704 49444904 49596380 49749364 
3145.116 49903620 50058532 50213572 50368444 50523108 50677940 50833872 
3148.491 50991092 51150156 51310992 51473380 51636832 51801064 51965688 
3151.866 52130376 52294604 52458180 52620776 52782344 52942964 53103080 
3155.241 53262844 53422556 53581836 53740352 53897612 54053128 54207200 
3158.617 54360196 54512608 54665264 54817896 54970096 55121444 55271376 
3161.992 55419668 55567256 55715084 55864172 56014964 56167240 56319872 
3165.367 56471696 56621492 56768544 56913044 57055436 57196248 57335936 
3168.742 57474720 57612264 57748680 57884568 58020160 58156284 58293404 
3172.118 58430788 58567724 58702580 58833800 58960272 59081284 59196704 
3175.493 59307028 59412860 59515260 59615440 59715228 59815872 59918784 
3178.868 60024464 60132216 60240648 60347660 60451080 60549608 60643212 
3182.243 60732832 60820220 60907356 60995316 61084472 61174564 61264748 
3185.619 61354268 61443156 61531340 61619156 61707104 61795340 61883820 
3188.994 61972320 62060684 62148304 62234636 62319076 62400780 62479516 
3192.369 62555312 62628752 62700792 62772348 62843604 62914336 62983124 
3195.744 63048900 63110588 63168676 63224360 63279824 63336900 63396676 
3199.120 63458220 63520268 63580408 63637220 63690432 63740888 63790204 
3202.495 63840248 63891836 63944420 63997440 64049392 64099284 64147128 
3205.870 64193300 64237976 64281544 64323844 64364076 64402736 64440204 
3209.245 64477952 64517312 64559676 64604848 64651720 64698136 64741560 
3212.621 64780408 64814404 64844220 64871804 64898884 64926668 64955756 
3215.996 64986080 65016752 65047620 65078212 65108472 65138652 65168948 
3219.371 65199284 65230168 65262048 65295472 65331132 65369800 65411748 
3222.746 65456784 65505012 65555720 65608360 65662316 65716432 65769708 
3226.122 65820792 65867872 65910600 65948204 65981716 66012116 66041008 
3229.497 66069708 66099144 66130316 66163964 66201276 66244156 66294292 
3232.872 66353120 66420412 66494704 66573292 66652744 66730208 66803700 
3236.247 66873112 66939248 67003884 67068340 67133728 67200128 67267600 
3239.623 67336184 67405528 67475728 67546296 67616248 67683888 67747864 
3242.998 67807000 67861784 67913808 67966112 68021712 68083336 68152296 
3246.373 68228040 68309048 68392928 68477176 68560592 68642464 68722728 
3249.748 68802232 68881352 68960304 69038792 69115984 69190312 69261112 
3253.124 69327688 69389648 69448080 69504040 69559096 69614088 69669600 
3256.499 69724608 69777904 69828184 69874024 69915440 69953152 69988424 
3259.874 70022752 70057216 70091400 70125152 70157248 70186728 70212584 
3263.249 70234784 70252624 70266064 70274904 70278920 70278376 70274672 
3266.625 70268640 70262168 70256720 70252432 70249120 70245576 70240512 
3270.000 70232448 70220920 70204952 70184192 70158104 70126208 70087936 
3273.375 70044128 69995936 69945680 69895976 69848808 69805072 69764560 
3276.750 69725424 69685976 69644896 69601808 69557392 69513056 69470168 
3280.125 69429456 69391016 69354392 69318872 69283960 69249536 69215144 
3283.501 69181064 69146872 69112064 69076744 69041280 69006320 68973192 
3286.876 68942784 68915408 68890752 68867728 68844896 68821408 68796912 
3290.251 68772144 68748120 68726256 68707632 68692688 68681976 68675496 
3293.626 68673248 68675568 68682280 68693264 68708056 68726416 68748384 
3297.002 68774624 68806072 68843728 68888304 68939640 68995992 69055888 
3300.377 69116992 69177680 69237600 69297176 69357232 69419200 69484168 
3303.752 69552680 69625024 69701416 69781448 69865312 69952416 70041944 
3307.127 70133448 70226456 70320840 70417848 70519056 70625824 70739288 
3310.503 70859296 70984360 71112680 71242624 71372416 71502128 71632072 
3313.878 71762800 71894664 72027456 72160344 72292248 72423016 72552336 
3317.253 72680720 72808592 72935360 73060520 73183168 73302600 73418568 
3320.628 73531856 73643296 73754016 73863736 73971920 74077104 74178464 
3324.004 74275168 74367800 74456992 74543448 74626976 74706616 74781040 
3327.379 74848904 74910000 74965128 75015408 75062008 75105176 75143968 
3330.754 75176392 75200744 75215552 75221032 75217520 75205744 75185696 
3334.129 75156576 75116944 75065432 75002144 74928160 74845792 74757736 
3337.505 74665256 74568080 74464616 74352584 74229992 74096480 73953184 
3340.880 73802120 73645536 73484728 73319464 73149016 72971696 72786296 
3344.255 72592008 72388648 72176192 71954720 71724184 71484696 71237240 
3347.630 70983744 70726776 70469368 70213832 69961248 69711728 69463872 
3351.006 69216072 68966944 68716168 68463792 68210872 67958752 67708280 
3354.381 67461256 67219008 66982620 66753352 66532044 66318536 66112220 
3357.756 65912412 65717936 65528752 65345420 65169068 65001132 64842448 
3361.131 64692408 64549832 64412304 64277472 64143600 64009540 63875444 
3364.507 63742152 63610904 63482912 63359788 63242876 63133344 63032316 
3367.882 62939996 62856352 62779852 62709176 62641500 62574492 62505952 
3371.257 62434064 62357096 62273796 62183056 62083812 61975452 61857568 
3374.632 61730056 61592652 61444760 61285660 61114108 60929088 60729704 
3378.008 60515328 60285760 60040556 59779100 59500252 59202740 58885324 
3381.383 58547516 58189888 57813668 57421280 57014852 56596692 56168296 
3384.758 55731132 55286280 54834888 54378068 53916784 53451860 52984028 
3388.133 52513672 52041696 51568588 51095400 50622872 50151980 49683044 
3391.509 49216952 48754584 48297152 47846196 47403280 46968716 46541780 
3394.884 46120424 45701460 45282128 44861256 44438848 44017868 43602104 
3398.259 43194564 42797024 42409128 42028224 41650604 41272912 40892564 
3401.634 40509164 40123268 39736372 39349892 38964952 38582056 38201776 
3405.010 37824936 37452400 37085340 36724360 36368648 36017196 35667676 
3408.385 35318044 34967292 34615456 34263552 33914080 33568896 33230108 
3411.760 32898586 32574814 32258284 31948044 31643550 31344182 31049580 
3415.135 30759798 30474972 30195448 29921642 29653436 29390360 29131622 
3418.510 28875590 28621052 28367300 28114192 27862466 27613678 27369124 
3421.886 27130176 26897174 26669688 26446828 26227780 26011516 25797924 
3425.261 25586618 25377768 25171404 24967036 24764796 24564018 24364982 
3428.636 24167858 23973238 23781578 23592762 23406724 23222582 23039602 
3432.011 22856942 22674256 22491470 22309008 22127386 21947760 21770784 
3435.387 21597016 21427040 21260926 21098318 20938900 20782286 20627882 
3438.762 20475792 20325700 20177186 20029972 19883224 19736040 19588004 
3442.137 19439156 19289974 19141744 18995262 18850628 18707462 18564306 
3445.512 18419540 18272506 18123828 17975306 17830286 17691942 17561748 
3448.888 17439630 17323168 17208874 17092680 16971934 16845434 16713843 
3452.263 16579468 16444171 16310258 16178621 16049534 15922546 15797624 
3455.638 15674353 15553039 15433992 15317174 15202651 15090182 14979047 
3459.013 14868831 14758677 14648038 14535850 14422047 14306254 14189156 
3462.389 14071885 13956219 13843423 13734897 13630296 13528762 13429166 
3465.764 13329969 13230452 13130719 13031727 12934053 12838279 12744300 
3469.139 12651331 12558825 12466271 12374043 12282823 12193804 12107460 
3472.514 12024063 11942963 11863037 11783431 11704045 11625149 11547494 
3475.890 11472029 11399638 11330490 11264856 11202360 11142558 11084975 
3479.265 11028588 10972106 10914341 10854376 10791938 10728423 10665766 
3482.640 10606276 10552260 10504496 10462169 10423850 10387333 10350548 
3486.015 10312952 10274815 10237226 10201505 10168772 10139162 10113013 
3489.391 10090053 10070113 10053293 10039560 10027793 10017282 10006534 
3492.766 9994124 9980122 9965950 9953779 9946930 9948524 9960017 9981715 
3496.623 10012670 10051327 10096394 10147912 10205135 10268574 10338027 
3499.999 10412006 10488372 10565297 10641079 10715891 10791802 10871973 
3503.374 10960450 11060468 11173563 11299474 11436205 11580602 11729167 
3506.749 11878974 12028185 12176561 12325363 12477080 12635025 12801832 
3510.124 12979114 13166852 13363487 13566297 13772381 13979590 14186623 
3513.500 14392933 14598383 14802317 15003090 15198568 15386272 15564820 
3516.875 15733615 15894122 16047608 16195334 16336884 16470050 16590966 
3520.250 16695352 16779754 16842234 16882914 16902824 16903926 16887666 
3523.625 16854666 16804000 16734125 16642639 16526837 16384812 16215146 
3527.000 16018178 15796147 15553383 15294864 15026070 14750794 14470723 
3530.376 14185767 13894702 13596038 13290303 12979319 12665727 12352361 
3533.751 12040618 11729916 11419061 11106423 10791428 10476356 10164939 
3537.126 9861269 9568854 9289058 9020539 8761009 8507648 8258624 8014096 
3540.984 7775507 7543859 7319816 7102119 6888638 6676406 6463134 6247681 
3544.841 6031260 5816089 5604850 5400625 5205516 5020383 4845749 4680932 
3548.698 4524413 4374143 4227739 4082254 3935881 3787886 3639408 3492817 
3552.556 3351685 3218276 3094285 2979170 2870990 2766772 2664046 2560911 
3556.413 2456833 2351982 2246656 2141755 2037512 1933959 1831264 1730089 
3560.271 1631432 1536522 1446886 1363117 1285812 1214003 1145661 1077761 
3564.128 1006584 927716 837408 733643 617261 491821 364494 243271 134876 
3568.468 42446 -33795 -97999 -155172 -210449 -267210 -327373 -390243 -454957 
3572.807 -519529 -583065 -645468 -707828 -770411 -834639 -900874 -968917 
3576.665 -1038139 -1107681 -1176386 -1242966 -1306529 -1366086 -1421143 
3580.040 -1471439 -1516808 -1557089 -1592480 -1622653 -1647146 -1667050 
3583.415 -1683355 -1699296 -1719033 -1747349 -1788928 -1846505 -1919646 
3586.791 -2004185 -2093358 -2178623 -2251707 -2308366 -2346827 -2369598 
3590.166 -2381231 -2387162 -2392962 -2403539 -2422519 -2451810 -2492334 
3593.541 -2541846 -2597117 -2653468 -2706354 -2752517 -2790379 -2820567 
3596.916 -2845091 -2866816 -2888047 -2910165 -2933730 -2958182 -2982271 
3600.292 -3004976 -3025344 -3042980 -3057885 -3070058 -3079435 -3086410 
3603.667 -3091246 -3094897 -3098484 -3103879 -3113255 -3128420 -3150888 
3607.042 -3180689 -3216770 -3256137 -3295534 -3331342 -3361361 -3385428 
3610.417 -3405680 -3425503 -3448613 -3477539 -3512971 -3552837 -3592929 
3613.792 -3628977 -3657069 -3675436 -3685456 -3690384 -3694951 -3703821 
3617.168 -3720904 -3748104 -3785124 -3829005 -3875245 -3918526 -3954513 
3620.543 -3980221 -3995455 -4001759 -4001857 -3998574 -3994174 -3989447 
3623.918 -3984358 -3978087 -3969945 -3960916 -3954612 -3955367 -3970142 
3627.293 -4005140 -4062063 -4136997 -4218646 -4291224 -4341221 -4362543 
3630.669 -4357754 -4335578 -4306643 -4280200 -4262581 -4256610 -4261072 
3634.044 -4272260 -4286040 -4298212 -4306643 -4311925 -4315633 -4319930 
3637.419 -4327049 -4337678 -4351652 -4368677 -4387145 -4406103 -4424733 
3640.794 -4442181 -4457136 -4468352 -4474157 -4472878 -4463728 -4447100 
3644.170 -4424635 -4399838 -4377600 -4362740 -4360641 -4374418 -4405283 
3647.545 -4451791 -4509410 -4572463 -4634591 -4690022 -4733877 -4762652 
3650.920 -4774254 -4768584 -4747380 -4714769 -4675632 -4636820 -4604495 
3654.295 -4583939 -4578267 -4587644 -4607905 -4632754 -4654948 -4669535 
3657.671 -4674714 -4671797 -4664159 -4655243 -4647703 -4643015 -4641114 
3661.046 -4641573 -4643737 -4646589 -4649146 -4650588 -4648982 -4643409 
3664.421 -4632558 -4615970 -4594397 -4570070 -4545610 -4524986 -4512230 
3667.796 -4510688 -4522460 -4546758 -4578398 -4608233 -4623641 -4613871 
3671.172 -4571644 -4497867 -4398133 -4283809 -4167913 -4063573 -3983636 
3674.547 -3938556 -3931923 -3959832 -4012264 -4076802 -4144940 -4214281 
3677.922 -4285843 -4362182 -4443723 -4527576 -4608167 -4679566 -4736827 
3681.297 -4778317 -4805811 -4821770 -4829405 -4830388 -4824752 -4812366 
3684.673 -4794080 -4772681 -4753017 -4741284 -4743283 -4762226 -4797783 
3688.048 -4844150 -4892740 -4934511 -4962782 -4975819 -4976081 -4967826 
3691.423 -4955280 -4941685 -4928122 -4915149 -4902667 -4891168 -4880880 
3694.798 -4873017 -4867643 -4864727 -4862499 -4858797 -4851687 -4839760 
3698.174 -4823769 -4806303 -4791458 -4783856 -4787526 -4803878 -4831568 
3701.549 -4866070 -4900374 -4927860 -4943421 -4944601 -4932316 -4909121 
3704.924 -4879275 -4846345 -4814168 -4785134 -4761472 -4744823 -4736073 
3708.299 -4735974 -4744266 -4759408 -4780349 -4804108 -4828651 -4851391 
3711.675 -4870199 -4883632 -4890185 -4889300 -4880454 -4864072 -4842217 
3715.050 -4816986 -4791426 -4769043 -4751837 -4741284 -4737810 -4739743 
3718.425 -4746036 -4755409 -4767338 -4781988 -4799716 -4819640 -4840153 
3721.800 -4858436 -4871345 -4876522 -4873540 -4863646 -4850245 -4837138 
3725.176 -4826751 -4820263 -4816855 -4813381 -4805910 -4791917 -4770321 
3728.551 -4742628 -4712606 -4684581 -4663340 -4652489 -4653145 -4663799 
3731.926 -4680909 -4699691 -4716145 -4729878 -4742300 -4756687 -4775957 
3735.301 -4800339 -4826587 -4849524 -4863154 -4863908 -4852080 -4829667 
3738.677 -4800470 -4767208 -4731451 -4693758 -4655243 -4618264 -4588103 
3742.052 -4572988 -4582398 -4623739 -4697659 -4792900 -4887826 -4956918 
3745.427 -4983746 -4967531 -4919867 -4857256 -4795194 -4746659 -4718767 
3748.802 -4713753 -4728961 -4758687 -4795817 -4834124 -4868986 -4896573 
3752.177 -4913151 -4915575 -4901946 -4873344 -4833501 -4788804 -4745741 
3755.553 -4710573 -4686941 -4676746 -4678746 -4690808 -4709492 -4731714 
3758.928 -4754459 -4774844 -4789689 -4795882 -4790639 -4774417 -4749838 
3762.303 -4721947 -4696676 -4679893 -4674419 -4680385 -4694316 -4710770 
3765.678 -4723258 -4727977 -4723618 -4712606 -4698642 -4685826 -4677697 
3769.054 -4676189 -4681205 -4691104 -4703297 -4714965 -4723356 -4727092 
3772.429 -4725257 -4718145 -4707033 -4693398 -4678812 -4665044 -4652522 
3775.804 -4641671 -4632853 -4626625 -4623838 -4625542 -4632361 -4643277 
3779.179 -4655898 -4666552 -4671338 -4668453 -4657767 -4641671 -4623641 
3782.555 -4607052 -4594201 -4585840 -4581316 -4579283 -4579217 -4581021 
3785.930 -4585316 -4593152 -4604266 -4617609 -4631017 -4642294 -4650064 
3789.305 -4654325 -4656259 -4657079 -4657800 -4657800 -4655505 -4648785 
3792.680 -4636590 -4620002 -4601872 -4586496 -4578037 -4578988 -4588660 
3796.056 -4603217 -4616921 -4624723 -4623477 -4614363 -4601446 -4591578 
3799.431 -4592201 -4608495 -4642655 -4690186 -4742267 -4785723 -4809842 
3802.806 -4809449 -4786871 -4749543 -4707590 -4672059 -4651112 -4648982 
3806.181 -4665077 -4692284 -4719783 -4737089 -4738170 -4722733 -4696053 
3809.557 -4664225 -4632918 -4605315 -4581578 -4559414 -4536757 -4512361 
3812.932 -4488029 -4468549 -4459399 -4466155 -4490554 -4529281 -4572791 
3816.307 -4609348 -4629312 -4629214 -4612593 -4587873 -4567021 -4560726 
3819.682 -4576562 -4616166 -4674091 -4737089 -4788444 -4816199 -4814987 
3823.058 -4788869 -4746823 -4700511 -4660324 -4632853 -4620559 -4621182 
3826.433 -4629181 -4636918 -4638197 -4630034 -4613249 -4591283 -4569185 
3829.808 -4551807 -4542102 -4541020 -4546430 -4555152 -4562627 -4565185 
3833.183 -4560529 -4548791 -4532101 -4514165 -4500228 -4495473 -4503671 
3836.559 -4526395 -4561414 -4603217 -4643933 -4676353 -4695299 -4700019 
3839.934 -4693234 -4679434 -4663438 -4649244 -4638754 -4632263 -4628722 
3843.309 -4626821 -4624624 -4621248 -4615511 -4607052 -4595578 -4581283 
3846.684 -4564070 -4544036 -4520919 -4494325 -4463400 -4428341 -4390359 
3850.060 -4352702 -4321636 -4306414 -4316715 -4362051 -4445199 -4558824 
3853.435 -4683302 -4793326 -4868167 -4899653 -4891855 -4856634 -4806795 
3856.810 -4752296 -4699757 -4652850 -4612331 -4578037 -4549512 -4526625 
3860.185 -4509082 -4497702 -4491964 -4491603 -4496522 -4505901 -4519148 
3863.561 -4535478 -4552398 -4566431 -4573906 -4571611 -4558693 -4538200 
3866.936 -4515541 -4498752 -4495210 -4509540 -4541839 -4586103 -4631083 
3870.311 -4664356 -4678549 -4673009 -4653604 -4629312 -4609511 -4599873 
3873.686 -4601807 -4611445 -4622100 -4626362 -4618691 -4597119 -4563906 
3877.062 -4523838 -4482552 -4446543 -4420600 -4408137 -4409318 -4421322 
3880.437 -4438672 -4454611 -4463597 -4462974 -4453955 -4441132 -4431063 
3883.812 -4430800 -4444740 -4473567 -4512164 -4550758 -4579119 -4588955 
3887.187 -4578201 -4550528 -4513705 -4476616 -4447396 -4431916 -4432342 
3890.563 -4447002 -4470189 -4495375 -4515509 -4525641 -4524461 -4512164 
3893.938 -4490751 -4462777 -4430932 -4397641 -4365102 -4335710 -4311827 
3897.313 -4295226 -4287484 -4289124 -4299393 -4316748 -4338629 -4362281 
3900.688 -4385964 -4408202 -4429292 -4450216 -4471369 -4492751 -4513279 
3904.063 -4530166 -4541118 -4543872 -4537740 -4523444 -4503146 -4479273 
3907.439 -4454250 -4430276 -4407973 -4387899 -4370317 -4354933 -4342270 
3910.814 -4332331 -4325179 -4320192 -4316453 -4312746 -4308284 -4303166 
3914.189 -4298343 -4295784 -4297753 -4305364 -4318749 -4336956 -4356737 
3917.564 -4375238 -4389998 -4399478 -4403020 -4401019 -4394098 -4382618 
3920.940 -4367693 -4350078 -4331871 -4315173 -4302411 -4295423 -4295029 
3924.315 -4299590 -4306610 -4312549 -4313828 -4308776 -4297228 -4281020 
3927.690 -4262614 -4245355 -4232001 -4224618 -4224946 -4233510 -4249916 
3931.065 -4272720 -4299262 -4325967 -4348274 -4362478 -4366184 -4359263 
3934.441 -4343550 -4322751 -4300771 -4281086 -4265534 -4254477 -4246898 
3937.816 -4240926 -4234954 -4228523 -4221861 -4216382 -4214085 -4216316 
3941.191 -4223502 -4235512 -4250474 -4266157 -4280003 -4289846 -4294209 
3944.566 -4292930 -4286663 -4276919 -4265337 -4254116 -4243912 -4235905 
3947.942 -4230032 -4225865 -4222846 -4220647 -4218744 -4217202 -4215922 
3951.317 -4214643 -4212838 -4210443 -4206701 -4201911 -4196726 -4191705 
3954.692 -4187833 -4185732 -4184945 -4184945 -4184945 -4183599 -4180449 
3958.067 -4175526 -4169193 -4162695 -4157148 -4153571 -4152291 -4153145 
3961.443 -4155343 -4157772 -4159150 -4158527 -4155114 -4149207 -4141428 
3964.818 -4132271 -4123246 -4114844 -4107360 -4100894 -4095150 -4089767 
3968.193 -4084581 -4079460 -4074602 -4069712 -4064755 -4059404 -4053725 
3971.568 -4047390 -4041251 -4035900 -4031797 -4029203 -4027234 -4024739 
3974.944 -4020110 -4012461 -4001759 -3989086 -3977037 -3967909 -3963542 
3978.319 -3964626 -3969879 -3977299 -3984325 -3988626 -3989545 -3987149 
3981.694 -3982618 -3977168 -3971849 -3967220 -3963181 -3959241 -3955531 
3985.069 -3952149 -3949687 -3948899 -3950310 -3953890 -3959438 -3966465 
3988.445 -3974049 -3981699 -3988560 -3993715 -3996768 -3997293 -3995127 
3991.820 -3990629 -3984785 -3978153 -3972013 -3966957 -3963280 -3960883 
3995.195 -3959931 -3959635 -3960358 -3962032 -3964626 -3968139 -3972571 
3998.570 -3977168 -3981534 -3985638 -3989020 -3992172 
##END=
