
##TITLE=Z189_1_b
##JCAMP-DX=5.01  $$ Nicolet v. 1
##DATATYPE=INFRARED SPECTRUM
##ORIGIN=UniL
##OWNER=Nicolet
##LONGDATE=2011/09/14
##TIME=16:00:49
##SPECTROMETER/DATA SYSTEM=Nicolet iS5
##DATA PROCESSING=
Ratio against background
%Transmittance->Absorbance
Truncated
ElementMultiply or ElementDivide
##COMMENTS=
Number of sample scans: 32
Collection length: 51.21 sec
Sample gain: 2.0
Background collected on: Mer Sep 14 15:42:45 2011 (GMT+02:00);
Number of background scans: 32
Background gain: 2.0
Sample spacing:  1.000
Number of scan points: 12415
Resolution points: 8192
Number of FFT points: 65536
Apodization: N-B fort;
Phase correction: Mertz;
Laser frequency: 15798.0 cm-1
Number of rejected sample scans: 0
Number of rejected background scans: 0
Bench serial number: ASB1000141;
##RESOLUTION=4.000
##XUNITS=1/CM
##YUNITS=ABSORBANCE
##FIRSTX=649.893372
##LASTX=4000.122314
##FIRSTY=0.098189
##MAXX=4000.122314
##MINX=649.893372
##MAXY=0.255744
##MINY=-0.004237
##XFACTOR=1.000000
##YFACTOR=1.000000E-009
##NPOINTS=6950
##DELTAX=0.482117
##ZPD=6100
##XYDATA=(X++(Y..Y))
649.893 98188672 97359000 96566136 95852664 95238840 94726760 94311112 
653.268 93990016 93766928 93649880 93640920 93730376 93894872 94106296 
656.643 94342608 94597456 94882192 95218504 95625528 96106512 96647712 
660.018 97222080 97804848 98383456 98963584 99564728 100210208 100915784 
663.393 101682712 102499760 103349488 104215288 105076320 105907136 
666.285 106665064 107285048 107698704 107870480 107837176 107695600 
669.178 107554064 107475456 107461712 107473128 107453480 107356104 
672.071 107153688 106848648 106465440 106038704 105594472 105141608 
674.963 104674520 104185008 103672360 103150576 102641128 102162112 
677.856 101717392 101292656 100860440 100392120 99871712 99299904 98690800 
681.231 98061784 97423640 96776384 96112136 95423768 94713320 93993680 
684.606 93286312 92610560 91976320 91381808 90816456 90268808 89734264 
687.981 89216616 88726256 88274808 87867272 87502424 87174176 86877456 
691.355 86612736 86387544 86212128 86095600 86041640 86047976 86109904 
694.730 86225304 86397896 86637240 86954208 87354440 87834296 88382216 
698.105 88982672 89622864 90300088 91021360 91800480 92648336 93566112 
701.480 94540280 95546864 96556656 97543168 98489944 99389832 100241216 
704.855 101042296 101787752 102469768 103082976 103628824 104117496 
707.747 104565024 104987912 105396336 105791712 106170816 106531152 
710.640 106879240 107232784 107616928 108055632 108562672 109132960 
713.533 109741928 110347608 110904072 111367136 111701552 111889160 
716.425 111926248 111827432 111622760 111361184 111106608 110926320 
719.318 110889232 111047944 111428760 112027056 112804864 113697704 
722.211 114616416 115464448 116149848 116591624 116740904 116588288 
725.104 116171456 115567160 114880040 114222112 113679064 113302480 
727.996 113101664 113053640 113118128 113256536 113445808 113677304 
730.889 113951944 114269696 114621720 114990176 115355488 115703248 
733.782 116032368 116353768 116684808 117038328 117417168 117813648 
736.674 118215192 118612696 119006480 119404928 119820160 120259056 
739.567 120719032 121188296 121654000 122110456 122563344 123027664 
742.460 123516928 124032872 124556984 125054064 125477656 125788552 
745.352 125966088 126012416 125948864 125805768 125614184 125398312 
748.245 125176832 124967456 124787976 124657016 124588848 124586912 
751.138 124642000 124734368 124842656 124952256 125061392 125180584 
754.031 125326392 125511232 125736368 125990536 126254200 126509024 
756.923 126740856 126943808 127116904 127258080 127361832 127420712 
759.816 127429408 127391336 127319632 127235472 127157840 127097848 
762.709 127054216 127017360 126975776 126925704 126876000 126846712 
765.601 126861976 126940576 127091768 127312792 127592608 127915072 
768.494 128263456 128620952 128971128 129303456 129620536 129950016 
771.387 130345984 130883632 131638824 132649168 133883504 135215856 
774.279 136449072 137332096 137625136 137176576 135947488 134029016 
777.172 131595088 128862200 126019672 123184064 120401296 117651440 
780.065 114882592 112037608 109081552 106009512 102845352 99632288 96424128 
783.440 93280232 90254616 87395328 84741280 82316736 80132832 78188392 
786.815 76473344 74973744 73676624 72573288 71659736 70935408 70400704 
790.189 70055384 69899440 69933376 70161176 70589728 71227392 72079640 
793.564 73143176 74400632 75813816 77326656 78862032 80322272 81602848 
796.939 82591472 83178680 83281136 82847384 81875616 80415736 78567960 
800.314 76467856 74255120 72068800 70018624 68170824 66550268 65137768 
803.689 63883276 62716408 61569556 60395408 59174832 57924548 56689028 
807.063 55527908 54493000 53614076 52888284 52281524 51735400 51183592 
810.438 50572024 49865152 49052584 48145388 47167608 46147544 45110016 
813.813 44076544 43064588 42088200 41161756 40297668 39504640 38787612 
817.188 38145988 37575580 37070148 36624528 36235440 35901472 35622464 
820.563 35397444 35224604 35101660 35026944 35001732 35030032 35119224 
823.938 35277648 35512456 35827088 36219124 36679252 37188924 37721132 
827.312 38241144 38705376 39069168 39292184 39344416 39215692 38918744 
830.687 38489252 37977696 37443984 36948192 36537836 36246532 36088084 
834.062 36055680 36121820 36241600 36361444 36420356 36363496 36153184 
837.437 35773296 35235348 34573012 33838604 33087734 32368898 31719572 
840.812 31159244 30692618 30314422 30014406 29782374 29609484 29489428 
844.186 29416916 29385998 29391102 29426558 29487336 29570182 29672310 
847.561 29791032 29923594 30065964 30214310 30366190 30520434 30678074 
850.936 30841394 31012672 31193776 31385888 31590522 31809762 32047626 
854.311 32309390 32600496 32926000 33289592 33693488 34139980 34632036 
857.686 35174732 35774448 36439812 37179468 38003264 38921896 39946396 
861.060 41089196 42360216 43762328 45286620 46907068 48579424 50239160 
864.435 51813608 53229024 54418780 55339532 55974856 56340736 56483088 
867.810 56478224 56425168 56426568 56589028 57007408 57750496 58865064 
871.185 60366164 62238652 64433060 66866344 69427168 71963328 74300600 
874.560 76256592 77646040 78323448 78199456 77255000 75545056 73187608 
877.935 70349280 67205584 63933984 60694496 57606476 54758880 52205736 
881.309 49968708 48049224 46433364 45099692 44022236 43174328 42531128 
884.684 42066588 41756740 41579932 41516236 41551272 41677080 41893448 
888.059 42206712 42627872 43169496 43840944 44646820 45586736 46656720 
891.434 47852332 49172164 50619412 52202448 53933776 55825924 57890168 
894.809 60130580 62538704 65084764 67709176 70319280 72775992 74911576 
898.183 76547880 77509056 77669184 76969368 75432104 73156856 70306656 
901.558 67089336 63709924 60366240 57225464 54401692 51969760 49961720 
904.933 48375816 47187364 46357744 45845196 45607712 45610252 45828364 
908.308 46245644 46855208 47656168 48651540 49844936 51237908 52825300 
911.683 54591352 56503392 58505168 60521612 62456748 64203404 65667516 
915.058 66773408 67483080 67802208 67780512 67504416 67076108 66609560 
918.432 66206372 65939060 65849712 65939644 66174576 66488252 66799952 
921.807 67030520 67115200 67024604 66770776 66412188 66041008 65775648 
925.182 65744884 66057788 66797636 68003000 69660696 71700576 73996080 
928.557 76382992 78651784 80575176 81941632 82554688 82274880 81038136 
931.932 78862192 75852280 72184480 68098688 63847348 59670444 55780368 
935.306 52323944 49391104 47020628 45208476 43926944 43136524 42797760 
938.681 42869652 43305768 44051096 45027132 46131072 47248320 48248756 
942.056 49013636 49456044 49525560 49222740 48592540 47719032 46702692 
945.431 45643780 44633052 43733200 42980880 42389328 41953548 41658372 
948.806 41484156 41412016 41423464 41500776 41627884 41787640 41964060 
952.181 42144240 42318720 42483188 42638436 42789204 42942288 43104760 
955.555 43283292 43483248 43709084 43964192 44250704 44569528 44919824 
958.930 45299232 45704076 46130776 46576376 47040124 47522440 48025056 
962.305 48549408 49096400 49665660 50256312 50867584 51499756 52154252 
965.680 52832784 53537044 54267828 55025040 55808100 56616960 57452556 
969.055 58316440 59210640 60136140 61092520 62078384 63092576 64135148 
972.429 65208988 66318916 67471592 68673440 69929328 71242816 72616488 
975.804 74053296 75558152 77137496 78799024 80550960 82401568 84358976 
979.179 86433352 88636968 90984792 93494312 96181672 99060384 102138888 
982.554 105419864 108898640 112561088 116380968 120309488 124264344 
985.447 128133312 131759984 134957488 137540752 139332240 140201248 
988.339 140086416 138999824 137031056 134328624 131098848 127569408 
991.232 123965296 120505568 117363944 114665728 112491360 110870544 
994.125 109798704 109247656 109180120 109556744 110340984 111503064 
997.017 113014528 114847624 116976200 119371736 122004552 124844120 
999.910 127848936 130962520 134110944 137190208 140078592 142649520 
1002.803 144776672 146363360 147352944 147736432 147555440 146898096 
1005.695 145897072 144704080 143486544 142412304 141619664 141220816 
1008.588 141290752 141864560 142949328 144531984 146591504 149104272 
1011.481 152049088 155408224 159161952 163289232 167768128 172572608 
1014.374 177675056 183039600 188605600 194278160 199912448 205296432 
1017.266 210182128 214296960 217381536 219254064 219833744 219173728 
1020.159 217450272 214962032 212092992 209235392 206788816 205090704 
1023.052 204372032 204769760 206305984 208910240 212432848 216680624 
1025.945 221446528 226505424 231646784 236671104 241378320 245593312 
1028.838 249167008 251989664 254011744 255242016 255743744 255610464 
1031.731 254955680 253893904 252522560 250926048 249164016 247263904 
1034.624 245216368 242971008 240446832 237537936 234143344 230192224 
1037.517 225652576 220543088 214922912 208883360 202527088 195961808 
1040.410 189299152 182642176 176089040 169729248 163630048 157841168 
1043.303 152393360 147301408 142575808 138229952 134282304 130760040 
1046.196 127693880 125109656 123028456 121460152 120404224 119851424 
1049.089 119785416 120184496 121018488 122251984 123842632 125740392 
1051.982 127896160 130261584 132789896 135438656 138160032 140892528 
1054.875 143561616 146069152 148300064 150141456 151483328 152238272 
1057.768 152354672 151817888 150657840 148945952 146802048 144381152 
1060.661 141857248 139424816 137262784 135523712 134332192 133767264 
1063.554 133868752 134639920 136050864 138040944 140517152 143367008 
1066.448 146450112 149607600 152687408 155539456 158035888 160084672 
1069.341 161617920 162595744 162998480 162821376 162073248 160776080 
1072.234 158966976 156694608 154016672 151003584 147733168 144295504 
1075.127 140802032 137372832 134140104 131241096 128793192 126895752 
1078.020 125618648 124993784 125018360 125650016 126812768 128386304 
1080.913 130211400 132108600 133870200 135299168 136241520 136599680 
1083.806 136363168 135606832 134487424 133208408 131992296 131067168 
1086.699 130620944 130797120 131684024 133301896 135603920 138472256 
1089.592 141739728 145186032 148561136 151630496 154173248 156016448 
1092.485 157053280 157233984 156569632 155118576 152981984 150285504 
1095.378 147160720 143743072 140147216 136462096 132755312 129069376 
1098.271 125431168 121859728 118367200 114961984 111648288 108425616 
1101.164 105291184 102244080 99290368 96448080 93749048 91233928 88952456 
1104.540 86955656 85288136 83990432 83093496 82618408 82579056 82980456 
1107.915 83818960 85081000 86743800 88774384 91126712 93746824 96568656 
1111.290 99509816 102478992 105367416 108051888 110413392 112335720 
1114.183 113723624 114518456 114695544 114268360 113279376 111796448 
1117.076 109902360 107683584 105232416 102633032 99955080 97255408 94571344 
1120.451 91925336 89331296 86799800 84343720 81981856 79736328 77631696 
1123.827 75693104 73940960 72394280 71070640 69986552 69160080 68609440 
1127.202 68349920 68392424 68740040 69385720 70311296 71487784 72877320 
1130.577 74428400 76080288 77763408 79396472 80900632 82206208 83262152 
1133.952 84049944 84586664 84925536 85141824 85326200 85569288 85940656 
1137.328 86486520 87217920 88110848 89105632 90114080 91036112 91760568 
1140.703 92185704 92233440 91846656 90998360 89687216 87932672 85770232 
1144.078 83247744 80427176 77376352 74169744 70885824 67595536 64363772 
1147.453 61246552 58285484 55513000 52951872 50614944 48508356 46631932 
1150.829 44980604 43545472 42315436 41278996 40424204 39740692 39219788 
1154.204 38853988 38637356 38564240 38629752 38829456 39160100 39619984 
1157.579 40209512 40931048 41788004 42783788 43920196 45196964 46610976 
1160.954 48154976 49816396 51577356 53410680 55279468 57140196 58939100 
1164.330 60619092 62124752 63400468 64397624 65077140 65408400 65375120 
1167.705 64976304 64227568 63158064 61808480 60227556 58463008 56561928 
1171.080 54569300 52523132 50459352 48410744 46404304 44465124 42613908 
1174.455 40866208 39234656 37727924 36350744 35105504 33992544 33009790 
1177.831 32154654 31423538 30812900 30319252 29939994 29673338 29518260 
1181.206 29474110 29540072 29714920 29996300 30381292 30867042 31450540 
1184.581 32129038 32898620 33754292 34686152 35680372 36719096 37779068 
1187.956 38834600 39859624 40825912 41707024 42480192 43126536 43635916 
1191.332 44007972 44254704 44397812 44467548 44500328 44531128 44592552 
1194.707 44711972 44907404 45189136 45558656 46009308 46526364 47087204 
1198.082 47663560 48218688 48710360 49093800 49319460 49340100 49116172 
1201.457 48618112 47835576 46779512 45484480 44002324 42397296 40740524 
1204.833 39095452 37517272 36048620 34715368 33531204 32499250 31614754 
1208.208 30868786 30249832 29746676 29347674 29042340 28822262 28680478 
1211.583 28612098 28614434 28685540 28824388 29029622 29299394 29631264 
1214.958 30022040 30467046 30960436 31493754 32056044 32634858 33216514 
1218.333 33787636 34337416 34856480 35337560 35775312 36165176 36504500 
1221.709 36793344 37036264 37243288 37428848 37612868 37816444 38059720 
1225.084 38361036 38733448 39184432 39715348 40320828 40988720 41699332 
1228.459 42428092 43145012 43817120 44414256 44908912 45279924 45515640 
1231.834 45614192 45585744 45451256 45245908 45015336 44809420 44684576 
1235.210 44693864 44882308 45289556 45943520 46863072 48059476 49536624 
1238.585 51291264 53311096 55574148 58045724 60675672 63405260 66162960 
1241.960 68867488 71438808 73791200 75842496 77524584 78782856 79587984 
1245.335 79938104 79859208 79400056 78623872 77607608 76430168 75166976 
1248.711 73890288 72655536 71498176 70429312 69433152 68470816 67486536 
1252.086 66425124 65239944 63906112 62426528 60831272 59173464 57514400 
1255.461 55920848 54451268 53145880 52027576 51096256 50331904 49695084 
1258.836 49133280 48588356 47997376 47306504 46475252 45478700 44312456 
1262.212 42989956 41540664 40002708 38420180 36838932 35298168 33831580 
1265.587 32464650 31212432 30082652 29075818 28187088 27407838 26727228 
1268.962 26134976 25621306 25177900 24798578 24477706 24210210 23991096 
1272.337 23815210 23677712 23574362 23501604 23456102 23435048 23435016 
1275.713 23452710 23484678 23527242 23576880 23629358 23679776 23722676 
1279.088 23752004 23762538 23750850 23715118 23655704 23573242 23468028 
1282.463 23338714 23183120 22998864 22786120 22548842 22296312 22041728 
1285.838 21801234 21591966 21428920 21324818 21290226 21333308 21461852 
1289.214 21683630 22005338 22432710 22968472 23611024 24352470 25177232 
1292.589 26062000 26972160 27864728 28692794 29405818 29961402 30331190 
1295.964 30504474 30491394 30319680 30031414 29672380 29288052 28919928 
1299.339 28598154 28345088 28173830 28088880 28086726 28156544 28281852 
1302.715 28440806 28609692 28766710 28891878 28970148 28991826 28951554 
1306.090 28848500 28685894 28471054 28214914 27930730 27633770 27338248 
1309.465 27057172 26801442 26579608 26399362 26268576 26194836 26185404 
1312.840 26245978 26378694 26582180 26852302 27184142 27573534 28018546 
1316.216 28519596 29078334 29696114 30373298 31108874 31901114 32747996 
1319.591 33646980 34594288 35582612 36598536 37622260 38625876 39573520 
1322.966 40427476 41148896 41705568 42079544 42272628 42310904 42240820 
1326.341 42128684 42047384 42060564 42218072 42542168 43026976 43640608 
1329.717 44335864 45062272 45772144 46433472 47030412 47563956 48048520 
1333.092 48508580 48975284 49479400 50049868 50708996 51468044 52326152 
1336.467 53268728 54271768 55301180 56318404 57285572 58163484 58917012 
1339.842 59518868 59949100 60199884 60273956 60182756 59942100 59568348 
1343.218 59077180 58480372 57787020 57004616 56138544 55193716 54175144 
1346.593 53088180 51940592 50743852 49513152 48269896 47040680 45854768 
1349.968 44746572 43751556 42903408 42236184 41779248 41555432 41582124 
1353.343 41868160 42413588 43206316 44220988 45415792 46728260 48085272 
1356.719 49402096 50590484 51573884 52287540 52687024 52754096 52496060 
1360.094 51948248 51166632 50232428 49241928 48292856 47483000 46888020 
1363.469 46549600 46472816 46626692 46955836 47386800 47843976 48254936 
1366.844 48552560 48687900 48631860 48379296 47948084 47374088 46703208 
1370.219 45978512 45239876 44519932 43843368 43234460 42718052 42319564 
1373.595 42065092 41973656 42051440 42288736 42662596 43144208 43704652 
1376.970 44323388 44989352 45699180 46456372 47267748 48143312 49093136 
1380.345 50127064 51248984 52451492 53706944 54961372 56141448 57153084 
1383.720 57897324 58288852 58257328 57765404 56817148 55473768 53854440 
1387.096 52117000 50440296 48969576 47790892 46929108 46356524 46017116 
1390.471 45842724 45770852 45744864 45713792 45634984 45469616 45186636 
1393.846 44770224 44223740 43570488 42844236 42078236 41293392 40494980 
1397.221 39679988 38847284 38007532 37189644 36434552 35782616 35262588 
1400.597 34881684 34629560 34485544 34429444 34447056 34532216 34685400 
1403.972 34909908 35207504 35576144 36009420 36498516 37034928 37611312 
1407.347 38222000 38863012 39530004 40218420 40924564 41645244 42379136 
1410.722 43126460 43887388 44659528 45435360 46201012 46938188 47627876 
1414.098 48253900 48809008 49295524 49724876 50113304 50479488 50843224 
1417.473 51223888 51643740 52126004 52687508 53334096 54052904 54815268 
1420.848 55583636 56321648 57002236 57607500 58133368 58587972 58989840 
1424.223 59361536 59723020 60086288 60452184 60813472 61158428 61476444 
1427.599 61759392 62002780 62205808 62370140 62500404 62603228 62689236 
1430.974 62772924 62870368 62998184 63168636 63387392 63653564 63961812 
1434.349 64307632 64692176 65128104 65639616 66260284 67016488 67915312 
1437.724 68940296 70053120 71202096 72325512 73360144 74234320 74874648 
1441.100 75220760 75224304 74859408 74122304 73027200 71602920 69887880 
1444.475 67932792 65793572 63524640 61183760 58826020 56510904 54310068 
1447.850 52299164 50547044 49101444 47976468 47158408 46618616 46330720 
1451.225 46277752 46451764 46844760 47436064 48184408 49034596 49914064 
1454.601 50744040 51450884 51967632 52258204 52334448 52268404 52161612 
1457.976 52099704 52130448 52259400 52472612 52754360 53095444 53491208 
1461.351 53935316 54415064 54904856 55366860 55761536 56054544 56234972 
1464.726 56320780 56357600 56399928 56487920 56639688 56848036 57089256 
1468.102 57329316 57531532 57658540 57664892 57497908 57096168 56397060 
1471.477 55361136 53996916 52379192 50627568 48867924 47190212 45631712 
1474.852 44195236 42874664 41674420 40617060 39734192 39047380 38560440 
1478.227 38254820 38100156 38065648 38132568 38297992 38572352 38971296 
1481.603 39506308 40180692 40989448 41925268 42984028 44168236 45484588 
1484.978 46935936 48514876 50192632 51911764 53593272 55131260 56402796 
1488.353 57286896 57668148 57464132 56650032 55272504 53447288 51325012 
1491.728 49060192 46768260 44511892 42315656 40174404 38076680 36026520 
1495.104 34049844 32197650 30535186 29118158 27975606 27103230 26475460 
1498.479 26057568 25818564 25736534 25794830 25978096 26269772 26649570 
1501.854 27094836 27583490 28088670 28579220 29016056 29341718 29483436 
1505.229 29358238 28893012 28065376 26930486 25611534 24238798 22898086 
1508.604 21617388 20387752 19191160 18019444 16878194 15787283 14772560 
1511.980 13853343 13040672 12333374 11722903 11197634 10747205 10363104 
1515.355 10036983 9761460 9529903 9338144 9185759 9074771 9006093 8976258 
1519.212 8975649 8989789 9005857 9018171 9035390 9077139 9164981 9309572 
1523.070 9504976 9733944 9976019 10217550 10454804 10696601 10958989 
1526.445 11259450 11608032 12003557 12437152 12897700 13377599 13873937 
1529.820 14389235 14927708 15492808 16086666 16710296 17364860 18052704 
1533.196 18776030 19533900 20318130 21114004 21902350 22665038 23382980 
1536.571 24038932 24619666 25112456 25509974 25810722 26020732 26150178 
1539.946 26207824 26202370 26140536 26030300 25880632 25697302 25479368 
1543.321 25218808 24904992 24531974 24106034 23646220 23179380 22727634 
1546.697 22298020 21881128 21455866 21000658 20504308 19974874 19437872 
1550.072 18928184 18472054 18076158 17728180 17404762 17084648 16758127 
1553.447 16431920 16124664 15856525 15635950 15453768 15283538 15089291 
1556.822 14829779 14466441 13975175 13364068 12686981 12030943 11475941 
1560.198 11056050 10759160 10549068 10387028 10241093 10086865 9909471 
1563.573 9704127 9478222 9248440 9035626 8857409 8719899 8617343 8535357 
1567.430 8458184 8374268 8281588 8187745 8107359 8054970 8037890 8054869 
1571.288 8098144 8158777 8228468 8300399 8369167 8427777 8469502 8490079 
1575.145 8491971 8487747 8497410 8542318 8633059 8766959 8930832 9109891 
1579.002 9292342 9472938 9653306 9839340 10038611 10256156 10493465 10747884 
1582.860 11014109 11285395 11554196 11812711 12051247 12259374 12427741 
1586.235 12549685 12624553 12658666 12666239 12666273 12679715 12727411 
1589.610 12825482 12985191 13212416 13506646 13860561 14256809 14670382 
1592.986 15066307 15404535 15648864 15769346 15750656 15594527 15319336 
1596.361 14955520 14536981 14098274 13666881 13262255 12898520 12583690 
1599.736 12321920 12113559 11955531 11842164 11766988 11725116 11715006 
1603.111 11737711 11795586 11889768 12017353 12171927 12342339 12515342 
1606.487 12677428 12814458 12913026 12961192 12947844 12865105 12709738 
1609.862 12485094 12202153 11878735 11538545 11204434 10894057 10617243 
1613.237 10373929 10156833 9955033 9758139 9559912 9361199 9171174 9005485 
1617.094 8880203 8805301 8781802 8802292 8854705 8923797 8995100 9056568 
1620.952 9099301 9121024 9126641 9128164 9140413 9175844 9240181 9330595 
1624.809 9439413 9557473 9678478 9799347 9919403 10039832 10161276 10284010 
1628.667 10408578 10536372 10670248 10812896 10965990 11127703 11293727 
1632.042 11456175 11605853 11735158 11838657 11915650 11971539 12018885 
1635.417 12074004 12152743 12265815 12414034 12591432 12787704 12991439 
1638.792 13191308 13377087 13542846 13686440 13811475 13925426 14036805 
1642.168 14150952 14267766 14380432 14477917 14548458 14582243 14576213 
1645.543 14536364 14478534 14424205 14394646 14405641 14462536 14561992 
1648.918 14694031 14845138 14998013 15130288 15216205 15226466 15139551 
1652.293 14958915 14733140 14544724 14460549 14497752 14623604 14789565 
1655.669 14952193 15085037 15176744 15226294 15239781 15224990 15187861 
1659.044 15130528 15050561 14943482 14804991 14633267 14430063 14200830 
1662.419 13954884 13703709 13458693 13229324 13020698 12832136 12657029 
1665.794 12483355 12295878 12078024 11815947 11502818 11141879 10747511 
1669.170 10341318 9947033 9582403 9256056 8967261 8709352 8471699 8241266 
1673.027 8004476 7748083 7463828 7153484 6833130 6530569 6273161 6077358 
1676.885 5942404 5853600 5790232 5734696 5677523 5618981 5566991 5530981 
1680.742 5516316 5519135 5527457 5524538 5497625 5446287 5389051 5359362 
1684.599 5390225 5495343 5663826 5871870 6095839 6320227 6537229 6744783 
1688.457 6943715 7134723 7317592 7490964 7654356 7808532 7954798 8093924 
1692.314 8223943 8338498 8426967 8477510 8481226 8440210 8370586 8301987 
1696.172 8264061 8269160 8307424 8350353 8363121 8310701 8169783 7941266 
1700.029 7659482 7383205 7163927 7021529 6940079 6886888 6826970 6735158 
1703.886 6596938 6410102 6182643 5930412 5672320 5422700 5189085 4971783 
1707.744 4766884 4568510 4371164 4170931 3965974 3757003 3546463 3338128 
1711.601 3135333 2939971 2751800 2568643 2387929 2207823 2027991 1849531 
1715.459 1673740 1501709 1333337 1169614 1014655 876616 765972 690133 650211 
1719.798 639725 647092 658574 661726 648884 618356 574592 525492 479880 
1724.138 443095 416064 395933 378820 361244 342077 320623 297081 270192 
1728.478 237669 198153 151515 99811 45992 -8647 -67190 -137219 -229823 
1732.817 -353396 -507846 -676963 -833614 -950072 -1013480 -1030173 -1018703 
1736.675 -1000058 -991397 -1003331 -1038536 -1092115 -1153486 -1211478 
1740.050 -1257338 -1287897 -1304613 -1311385 -1311715 -1307949 -1301606 
1743.425 -1294074 -1286840 -1281521 -1278184 -1276169 -1273030 -1266093 
1746.800 -1254331 -1238538 -1221952 -1208901 -1203118 -1206059 -1216236 
1750.176 -1229717 -1241677 -1247988 -1246336 -1236721 -1220465 -1199748 
1753.551 -1177609 -1157385 -1143440 -1139771 -1149355 -1172190 -1204671 
1756.926 -1239827 -1270387 -1292059 -1305174 -1314424 -1326547 -1347490 
1760.301 -1380421 -1422530 -1467014 -1504922 -1529388 -1537544 -1531931 
1763.677 -1517997 -1501785 -1487652 -1478505 -1475665 -1479562 -1490195 
1767.052 -1506738 -1527110 -1547647 -1564419 -1574785 -1578747 -1580001 
1770.427 -1584029 -1596508 -1620276 -1652724 -1685566 -1708637 -1715171 
1773.802 -1703950 -1679592 -1649886 -1621729 -1599248 -1582840 -1570295 
1777.177 -1559268 -1548835 -1540548 -1537544 -1542760 -1556693 -1576634 
1780.553 -1597267 -1613113 -1621663 -1623841 -1623676 -1625954 -1633942 
1783.928 -1647674 -1663650 -1677018 -1683619 -1682332 -1674278 -1662792 
1787.303 -1650447 -1639785 -1631632 -1627076 -1627703 -1636484 -1656553 
1790.678 -1689395 -1732960 -1780975 -1823805 -1853203 -1864651 -1860329 
1794.054 -1846208 -1830668 -1819681 -1816249 -1819846 -1829084 -1841490 
1797.429 -1856601 -1874648 -1896982 -1923406 -1952368 -1980471 -2003295 
1800.804 -2018235 -2024337 -2023710 -2018697 -2011738 -2003493 -1993598 
1804.179 -1981329 -1966618 -1951082 -1937690 -1928882 -1926309 -1929707 
1807.555 -1937723 -1948245 -1960054 -1972984 -1987727 -2004218 -2021533 
1810.930 -2036638 -2045707 -2046235 -2037858 -2023545 -2007616 -1994885 
1814.305 -1988255 -1987200 -1988717 -1988288 -1982153 -1968300 -1947618 
1817.680 -1922779 -1896850 -1872338 -1850102 -1830041 -1811861 -1795659 
1821.056 -1782361 -1773188 -1769261 -1771109 -1778599 -1790611 -1805624 
1824.431 -1821792 -1836805 -1848254 -1854094 -1853401 -1846967 -1837465 
1827.806 -1829546 -1827567 -1834759 -1850992 -1872173 -1891869 -1902788 
1831.181 -1901238 -1887481 -1865575 -1841358 -1819318 -1802325 -1790149 
1834.557 -1780414 -1770548 -1758767 -1744675 -1728703 -1711112 -1690682 
1837.932 -1665102 -1631269 -1587627 -1534770 -1475897 -1415991 -1360305 
1841.307 -1312178 -1273130 -1241743 -1215344 -1189538 -1159798 -1122917 
1844.682 -1076349 -1019794 -954469 -883613 -811753 -744314 -686789 -642953 
1848.540 -614499 -600139 -596731 -600139 -607849 -618999 -634814 -657047 
1852.397 -686822 -723739 -765814 -810464 -856035 -902262 -950006 -1000687 
1856.255 -1054600 -1110491 -1166043 -1218549 -1266919 -1311418 -1353732 
1859.630 -1395448 -1436896 -1476557 -1512054 -1541241 -1564055 -1582312 
1863.005 -1599347 -1618494 -1640742 -1665036 -1688504 -1708670 -1724676 
1866.380 -1738603 -1754312 -1775300 -1802622 -1832945 -1859702 -1875835 
1869.756 -1876858 -1863035 -1839082 -1811894 -1787014 -1767578 -1753685 
1873.131 -1743850 -1735996 -1729726 -1725798 -1726260 -1732498 -1744148 
1876.506 -1759526 -1775860 -1790974 -1804173 -1816810 -1830404 -1846868 
1879.881 -1866499 -1888504 -1911201 -1933863 -1956492 -1979811 -2004416 
1883.257 -2029382 -2052303 -2069880 -2079772 -2081553 -2078156 -2074595 
1886.632 -2076211 -2086269 -2104899 -2128673 -2152511 -2171270 -2181524 
1890.007 -2183535 -2179546 -2173018 -2167182 -2163589 -2163160 -2166523 
1893.382 -2173282 -2183403 -2195370 -2207073 -2214853 -2215776 -2208029 
1896.758 -2192238 -2171073 -2148324 -2126793 -2107834 -2091083 -2074826 
1900.133 -2058272 -2042211 -2029481 -2023347 -2025755 -2035649 -2048939 
1903.508 -2059986 -2063482 -2057447 -2043695 -2027305 -2014739 -2010617 
1906.883 -2016883 -2032318 -2053061 -2074958 -2094083 -2108526 -2117165 
1910.259 -2119474 -2115154 -2103976 -2087027 -2066252 -2045047 -2026843 
1913.634 -2013849 -2007418 -2007121 -2012365 -2023380 -2041156 -2067538 
1917.009 -2103481 -2146840 -2192733 -2234005 -2265123 -2283647 -2292414 
1920.384 -2297984 -2308003 -2328602 -2360833 -2401431 -2443672 -2481100 
1923.760 -2509629 -2529395 -2543461 -2555121 -2565991 -2574621 -2577421 
1927.135 -2571657 -2556670 -2534995 -2512199 -2493454 -2482022 -2478530 
1930.510 -2481001 -2486601 -2494179 -2503798 -2516975 -2535061 -2557592 
1933.885 -2581901 -2605615 -2626594 -2645498 -2665982 -2691799 -2725188 
1937.260 -2765621 -2808222 -2846704 -2876494 -2895617 -2906676 -2914345 
1940.636 -2922704 -2932907 -2942319 -2945643 -2938337 -2919380 -2891305 
1944.011 -2859081 -2827875 -2799992 -2774082 -2746854 -2715310 -2679352 
1947.386 -2641415 -2606504 -2578541 -2558745 -2545437 -2534797 -2523630 
1950.761 -2511935 -2502316 -2500010 -2509366 -2531964 -2566156 -2608349 
1954.137 -2655279 -2705794 -2761769 -2825669 -2898382 -2977828 -3057029 
1957.512 -3126874 -3179077 -3210192 -3221441 -3218415 -3208350 -3194865 
1960.887 -3179143 -3158947 -3132697 -3101477 -3070387 -3045612 -3033932 
1964.262 -3037584 -3055121 -3081343 -3109866 -3136282 -3158782 -3178683 
1967.638 -3197530 -3216573 -3236306 -3255710 -3275507 -3297803 -3324832 
1971.013 -3359126 -3399861 -3443024 -3481911 -3511426 -3528221 -3531836 
1974.388 -3524672 -3506496 -3473364 -3417153 -3328515 -3202364 -3044066 
1977.763 -2869285 -2700558 -2559338 -2460146 -2405022 -2387162 -2392369 
1981.139 -2406505 -2421596 -2433689 -2444199 -2456094 -2470755 -2487392 
1984.514 -2504490 -2521159 -2538091 -2558778 -2585392 -2618427 -2654950 
1987.889 -2688935 -2714915 -2729765 -2735330 -2736120 -2737799 -2744351 
1991.264 -2753900 -2761736 -2761308 -2749159 -2726012 -2697068 -2668650 
1994.640 -2646058 -2630415 -2619151 -2607986 -2593659 -2576630 -2560523 
1998.015 -2549884 -2547314 -2551926 -2558975 -2562039 -2556571 -2542472 
2001.390 -2524552 -2511276 -2510156 -2525936 -2558481 -2603771 -2655477 
2004.765 -2707638 -2756073 -2798971 -2835282 -2863558 -2881727 -2888343 
2008.141 -2883274 -2869581 -2851016 -2832385 -2816156 -2802658 -2789654 
2011.516 -2773851 -2753274 -2727987 -2699900 -2671185 -2643588 -2617801 
2014.891 -2592078 -2566452 -2541814 -2519611 -2502019 -2488611 -2476948 
2018.266 -2462320 -2440806 -2411184 -2377211 -2347189 -2329887 -2331799 
2021.642 -2354308 -2393061 -2437972 -2480737 -2514142 -2535917 -2548138 
2025.017 -2552848 -2551728 -2544943 -2530054 -2506368 -2476784 -2445913 
2028.392 -2420773 -2406505 -2403539 -2407230 -2410130 -2403441 -2381659 
2031.767 -2344223 -2293370 -2233017 -2166787 -2096293 -2022688 -1947223 
2035.143 -1873361 -1806119 -1751012 -1711409 -1686920 -1674905 -1670152 
2038.518 -1668238 -1667017 -1666291 -1666753 -1668469 -1669162 -1665300 
2041.893 -1652989 -1630971 -1600898 -1567918 -1537643 -1514431 -1499572 
2045.268 -1490294 -1481807 -1468136 -1445648 -1412358 -1368827 -1316736 
2048.644 -1259848 -1203151 -1152660 -1116175 -1100146 -1108276 -1138945 
2052.019 -1184680 -1233946 -1273063 -1291597 -1286080 -1260773 -1226247 
2055.394 -1194659 -1175494 -1172190 -1181640 -1195948 -1207645 -1211379 
2058.769 -1206423 -1194858 -1180550 -1166242 -1152528 -1137855 -1121033 
2062.145 -1101138 -1079489 -1058071 -1037974 -1019496 -1001348 -982802 
2065.520 -963693 -946435 -934202 -930136 -934467 -944848 -955593 -961577 
2069.377 -959428 -949378 -936384 -925837 -923391 -931789 -949642 -973115 
2073.235 -998472 -1022174 -1043296 -1061938 -1077837 -1090033 -1096246 
2076.610 -1093503 -1080216 -1057542 -1028851 -998769 -971496 -949246 -932185 
2080.467 -918894 -907652 -897898 -890094 -885829 -885696 -889301 -894723 
2084.325 -900047 -903916 -906825 -910429 -916844 -927391 -941278 -956122 
2088.182 -969446 -979132 -985976 -992058 -1000885 -1014934 -1034966 -1058336 
2092.040 -1080877 -1098659 -1107913 -1107483 -1097899 -1080944 -1058633 
2095.415 -1032851 -1005711 -979265 -955990 -938732 -928813 -926399 -929342 
2099.272 -934368 -938269 -939063 -936417 -931557 -926036 -920613 -914992 
2103.130 -907388 -896377 -881232 -863409 -844824 -827760 -813440 -801402 
2106.987 -789627 -776762 -761613 -745604 -731017 -720134 -713088 -708887 
2110.844 -704421 -696250 -682918 -664590 -643780 -623863 -607849 -596731 
2114.702 -591106 -589782 -592396 -599146 -610595 -626510 -646659 -667965 
2118.559 -686987 -701311 -709118 -711434 -710971 -710508 -711632 -714378 
2122.417 -716660 -716462 -713253 -708391 -705182 -707597 -718778 -738922 
2126.274 -766905 -799384 -833713 -868270 -903982 -941741 -983728 -1030735 
2130.132 -1082431 -1137756 -1195882 -1255520 -1315910 -1375565 -1431216 
2133.507 -1478736 -1514167 -1534902 -1541935 -1539359 -1533317 -1530742 
2136.882 -1535067 -1546986 -1564121 -1583468 -1602846 -1622257 -1643944 
2140.257 -1670317 -1701409 -1734709 -1766027 -1790215 -1804239 -1808594 
2143.633 -1806284 -1800972 -1795527 -1789951 -1782823 -1771736 -1756688 
2147.008 -1740616 -1728076 -1725072 -1735501 -1760351 -1798827 -1848419 
2150.383 -1908627 -1979284 -2061932 -2157390 -2263376 -2375168 -2487293 
2153.758 -2594351 -2694961 -2790214 -2881563 -2966771 -3037156 -3077000 
2157.134 -3066406 -2991781 -2849568 -2654917 -2435336 -2223226 -2045905 
2160.509 -1917369 -1836310 -1790347 -1763948 -1742134 -1715435 -1681804 
2163.884 -1641270 -1596508 -1551741 -1509742 -1474741 -1452087 -1445384 
2167.259 -1457008 -1485803 -1527341 -1574158 -1620639 -1661439 -1695270 
2170.635 -1723389 -1747514 -1768172 -1784539 -1792987 -1790446 -1776224 
2174.010 -1752860 -1725171 -1699197 -1679757 -1669492 -1668601 -1676589 
2177.385 -1692629 -1716822 -1748504 -1785496 -1823211 -1854787 -1872899 
2180.760 -1872899 -1854292 -1821331 -1782988 -1747811 -1721475 -1706524 
2184.135 -1701343 -1701970 -1704346 -1706161 -1705600 -1700584 -1688504 
2187.511 -1665729 -1629090 -1577921 -1515983 -1450238 -1389404 -1341147 
2190.886 -1308114 -1288591 -1276070 -1262326 -1241776 -1211478 -1173842 
2194.261 -1133625 -1097006 -1068912 -1051295 -1044783 -1047362 -1056617 
2197.636 -1069441 -1081307 -1088446 -1087025 -1074631 -1051758 -1022339 
2201.012 -992224 -968454 -956354 -957346 -968553 -984686 -998968 -1005910 
2204.869 -1002802 -989513 -967429 -938864 -905073 -866848 -825346 -781822 
2208.727 -738724 -699690 -667303 -643714 -630215 -626179 -630943 -643880 
2212.584 -663829 -688707 -716098 -741668 -760952 -771271 -771337 -763432 
2216.441 -752252 -743520 -741370 -748118 -762440 -781458 -801732 -820947 
2220.299 -837780 -853555 -868733 -883613 -897402 -908875 -916778 -921704 
2224.156 -925044 -929805 -938269 -952287 -971132 -993182 -1015926 -1036619 
2228.014 -1053477 -1065541 -1071953 -1072515 -1067888 -1058534 -1046502 
2231.389 -1034404 -1025215 -1021050 -1022339 -1027661 -1034008 -1037776 
2234.764 -1035925 -1026702 -1009480 -984422 -952089 -913075 -868369 -819492 
2238.622 -769287 -720895 -678254 -643814 -618238 -600404 -587797 -577440 
2242.479 -567149 -556361 -545342 -534686 -524857 -515690 -506555 -497189 
2246.336 -488452 -481071 -476404 -474750 -475047 -474816 -471539 -463695 
2250.194 -451216 -436321 -421426 -408449 -397989 -388124 -375544 -358428 
2254.051 -335650 -308964 -282276 -259395 -243202 -234923 -233167 -235817 
2257.909 -241181 -247871 -255686 -264991 -275124 -285124 -293799 -299925 
2261.766 -303468 -305719 -308235 -311878 -316513 -319360 -317142 -307010 
2265.624 -288104 -261845 -232638 -205448 -184219 -171534 -166897 -168586 
2269.481 -174548 -183126 -193492 -205945 -220649 -236578 -252010 -264362 
2273.338 -270786 -269329 -259560 -241645 -217437 -189452 -159908 -131422 
2277.196 -106546 -86802 -72955 -64043 -57914 -51454 -41316 -25578 -3247 
2281.535 24851 57325 92420 129009 166596 204849 243305 280736 315185 344631 
2286.357 367744 384458 395435 402400 406745 409331 410161 409464 407673 
2290.697 406280 407839 414970 429629 452216 481372 514379 548184 580730 
2295.036 610791 639062 666472 694082 722392 751135 779282 806070 830669 
2299.376 852779 872632 890627 906664 921772 936880 952985 971648 993666 
2303.716 1018906 1046473 1074473 1100548 1123370 1142538 1158385 1172438 
2307.573 1186160 1200413 1215166 1230517 1245536 1260756 1276839 1294818 
2311.430 1315356 1338854 1363882 1389177 1413210 1435217 1455596 1475377 
2315.288 1496390 1519997 1547163 1578255 1613307 1652253 1695094 1741899 
2319.145 1792701 1847002 1904373 1963348 2022565 2079592 2131766 2174888 
2323.003 2204293 2215616 2205625 2173889 2123208 2059683 1991441 1926804 
2326.860 1872925 1833493 1809004 1796760 1792667 1792867 1794531 1796494 
2330.718 1799455 1803714 1809802 1817355 1826139 1835789 1846936 1861045 
2334.575 1879314 1902509 1930665 1962383 1995602 2028324 2059084 2086883 
2338.432 2111655 2133397 2152344 2168794 2183612 2197532 2212519 2229304 
2342.290 2248021 2266707 2281395 2286758 2277965 2252051 2209954 2156806 
2346.147 2101600 2054357 2024762 2020201 2044270 2097271 2176519 2276765 
2350.005 2391227 2512018 2631643 2743731 2843974 2930698 3004993 3069257 
2353.862 3126122 3177486 3224751 3267615 3306743 3342969 3377463 3411759 
2357.719 3446892 3482462 3517468 3549603 3577565 3600249 3617690 3630386 
2361.577 3639073 3644319 3645990 3643952 3638873 3631188 3622167 3613079 
2365.434 3604593 3596173 3586952 3575126 3559424 3539080 3514094 3484900 
2369.292 3452236 3416768 3379266 3340465 3301367 3263342 3227422 3194276 
2373.149 3164136 3136768 3111538 3088111 3066888 3048802 3035089 3026781 
2377.007 3023978 3026414 3032987 3042730 3055509 3071560 3092416 3119214 
2380.864 3153088 3194075 3241442 3293455 3348279 3404011 3458715 3511255 
2384.721 3560059 3604158 3642448 3674259 3699288 3717601 3729765 3736249 
2388.579 3737285 3733341 3724385 3710917 3693607 3673557 3651938 3629818 
2392.436 3607332 3584547 3561128 3536642 3511455 3486337 3462055 3439578 
2396.294 3419206 3400705 3383841 3368881 3356192 3347577 3344873 3349447 
2400.151 3361568 3380735 3405247 3433466 3464760 3499096 3537777 3582442 
2404.009 3634095 3692872 3758207 3828599 3903115 3981256 4063123 4149387 
2407.866 4240186 4334952 4432317 4530976 4629490 4727858 4826484 4926506 
2411.723 5028864 5133626 5239353 5343830 5444307 5538330 5623747 5699915 
2415.581 5766056 5822268 5868444 5904180 5929707 5944923 5950500 5947913 
2419.438 5938407 5923795 5905691 5885472 5863642 5841073 5817936 5794530 
2423.296 5770925 5747992 5726404 5707703 5693771 5686251 5686553 5695483 
2427.153 5712806 5737751 5768944 5805242 5846144 5891417 5941329 5996690 
2431.010 6057836 6125142 6198708 6278507 6364708 6457484 6556604 6661837 
2434.868 6772917 6888773 7009171 7134487 7265162 7402618 7547905 7701807 
2438.725 7864266 8034583 8211381 8394198 8582330 8775919 8975446 9181190 
2442.583 9393195 9611061 9834459 10062686 10295715 10533826 10776958 
2445.958 11024917 11277200 11532487 11789968 12048385 12307058 12565749 
2449.333 12824082 13080929 13335367 13585611 13830117 14067573 14297179 
2452.708 14518376 14730569 14932955 15123872 15301316 15463142 15606720 
2456.084 15730282 15831988 15910139 15963210 15990127 15989782 15961388 
2459.459 15905121 15821267 15710080 15572031 15406904 15214765 14995681 
2462.834 14750862 14482748 14194942 13892000 13578501 13258941 12937194 
2466.209 12616128 12298536 11987173 11684847 11395318 11121516 10866402 
2469.585 10632047 10419743 10230068 10063060 9919132 9797653 9698231 9618615 
2473.442 9556491 9507990 9469417 9437246 9408770 9382258 9357002 9332423 
2477.300 9308117 9283812 9259034 9233784 9208299 9182882 9158043 9133645 
2481.157 9109147 9083906 9057380 9029402 9000681 8972199 8944733 8918758 
2485.014 8893359 8867284 8839386 8809021 8776426 8743294 8711650 8683255 
2488.872 8658850 8638366 8620385 8603824 8587501 8570840 8553876 8536777 
2492.729 8519070 8500283 8480111 8458083 8434636 8411190 8388456 8367682 
2496.587 8348732 8330290 8310497 8287498 8259671 8226645 8188962 8147737 
2500.444 8104558 8060640 8016559 7973158 7930941 7890314 7851614 7815515 
2504.302 7781443 7749837 7720188 7693139 7669127 7649230 7634089 7623871 
2508.159 7617700 7613789 7610383 7605460 7597974 7588061 7575822 7561897 
2512.016 7546219 7528621 7508157 7483952 7456244 7425436 7392844 7359985 
2515.874 7327937 7297341 7268464 7241612 7217051 7195592 7178243 7165510 
2519.731 7157493 7153350 7151969 7151531 7150655 7148971 7146276 7143278 
2523.589 7140752 7139236 7139135 7140752 7144322 7150116 7158369 7168811 
2527.446 7181342 7194817 7208326 7221330 7233357 7244543 7255729 7267892 
2531.303 7281234 7295992 7312066 7328510 7344955 7360928 7376161 7390957 
2535.161 7405853 7420987 7437233 7454828 7474649 7496796 7521473 7548006 
2539.018 7575687 7603774 7631425 7658201 7684202 7709632 7734557 7759012 
2542.876 7782219 7803910 7823409 7840447 7855730 7869968 7884037 7898952 
2546.733 7915215 7932965 7952504 7974170 7997827 8023546 8051054 8079071 
2550.591 8106145 8130687 8151822 8169142 8183356 8195950 8208478 8221985 
2554.448 8236403 8251060 8264432 8275070 8282027 8285032 8284492 8280879 
2558.305 8275036 8267066 8257205 8245690 8232115 8216684 8199665 8180959 
2562.163 8160972 8139701 8117521 8094768 8071982 8049164 8026279 8002789 
2566.020 7978219 7952133 7924934 7898411 7874422 7855528 7843416 7838861 
2569.878 7840851 7847396 7856202 7865076 7873039 7880394 7888020 7897231 
2573.735 7908872 7922943 7939275 7956925 7975081 7993643 8012374 8031443 
2577.593 8051054 8071138 8091561 8112389 8133963 8156785 8181837 8210031 
2581.450 8241604 8276657 8314989 8355487 8397238 8439366 8480922 8521401 
2585.307 8560938 8599768 8638704 8678793 8720575 8764525 8810543 8857545 
2589.165 8904384 8950145 8994288 9037319 9080150 9124137 9170327 9219163 
2593.022 9269697 9321014 9371695 9420790 9467960 9513578 9558219 9602727 
2596.880 9647716 9693353 9739604 9786503 9833883 9882048 9930828 9980122 
2600.737 10029896 10080015 10130513 10182001 10235021 10290796 10349938 
2604.112 10412956 10479751 10549782 10622405 10696805 10772238 10848599 
2607.488 10925383 11002657 11080216 11158299 11237008 11316445 11396338 
2610.863 11475941 11553686 11627600 11695672 11756298 11808966 11854217 
2614.238 11893616 11928897 11961593 11992214 12020417 12045490 12066815 
2617.613 12084497 12099556 12113695 12128516 12145177 12163510 12182899 
2620.989 12202153 12220453 12237834 12255318 12274541 12297173 12324136 
2624.364 12355225 12389624 12425797 12462418 12498905 12535463 12572912 
2627.739 12612546 12655527 12702402 12753410 12808588 12867118 12928660 
2631.114 12992566 13058119 13124572 13191649 13258941 13326552 13394753 
2634.490 13464265 13535633 13609440 13685654 13764001 13843731 13923817 
2637.865 14003440 14081981 14159031 14234724 14309404 14383172 14456472 
2641.240 14529478 14602289 14675249 14748291 14821653 14895337 14969341 
2644.615 15043084 15116359 15188754 15259857 15329496 15398287 15466712 
2647.990 15535560 15605861 15678201 15753334 15831403 15912786 15997587 
2651.366 16085807 16177244 16271453 16367540 16464474 16561052 16656481 
2654.741 16750447 16843162 16935656 17028994 17124216 17221768 17321892 
2658.116 17423730 17526836 17630204 17733426 17836052 17937768 18038128 
2661.491 18136542 18232316 18324864 18414216 18500820 18585884 18670656 
2664.867 18756274 18843500 18932128 19021640 19111274 19200198 19288172 
2668.242 19375886 19463792 19553032 19644198 19737392 19832342 19928076 
2671.617 20023726 20118010 20210370 20300388 20388064 20473916 20558362 
2674.992 20641538 20723860 20804878 20884348 20961606 21036650 21109518 
2678.368 21181354 21253272 21326800 21403474 21484238 21569680 21659634 
2681.743 21753992 21852904 21956402 22065156 22180212 22302380 22432328 
2685.118 22570132 22715800 22868572 23027932 23193256 23364134 23540114 
2688.493 23720856 23906226 24095562 24288554 24484752 24683878 24885694 
2691.869 25090340 25297822 25508674 25723106 25941794 26165274 26393728 
2695.244 26627588 26866788 27110952 27359702 27612300 27868436 28127518 
2698.619 28389442 28654038 28921096 29190160 29461024 29733122 30005672 
2701.994 30277862 30548944 30818308 31084886 31348136 31607520 31862390 
2705.370 32112126 32355546 32590922 32816100 33028308 33224348 33402010 
2708.745 33559448 33695996 33812488 33910280 33991364 34057332 34109336 
2712.120 34147976 34172776 34183068 34178188 34157296 34120124 34066544 
2715.495 33996736 33910888 33809124 33691520 33558372 33410062 33247706 
2718.871 33072896 32887828 32695442 32498464 32299828 32101710 31905998 
2722.246 31714190 31527560 31347710 31176082 31014524 30864446 30727150 
2725.621 30603158 30492778 30395826 30312254 30241874 30185042 30142280 
2728.996 30113724 30099130 30098100 30109110 30130808 30162240 30202126 
2732.372 30250330 30306674 30370950 30443128 30522424 30607746 30697704 
2735.747 30791738 30888708 30988440 31090794 31195092 31300842 31406830 
2739.122 31511244 31612546 31709734 31802454 31890452 31974900 32056582 
2742.497 32136492 32215674 32294150 32372252 32450010 32527316 32604460 
2745.873 32681618 32759178 32837040 32915600 32994810 33074576 33154712 
2749.248 33234864 33315100 33394818 33473868 33552040 33629076 33704804 
2752.623 33779648 33854076 33929052 34006020 34086396 34171628 34262976 
2755.998 34361012 34465924 34576924 34692796 34811924 34932456 35052156 
2759.374 35169524 35282856 35390540 35491564 35585204 35670480 35746384 
2762.749 35811796 35865088 35904676 35928788 35935916 35925408 35897728 
2766.124 35853932 35795856 35726132 35646816 35560172 35468232 35372680 
2769.499 35275348 35178684 35084376 34994836 34911736 34836228 34768596 
2772.875 34708548 34655612 34608856 34567808 34531748 34500360 34473312 
2776.250 34449784 34429156 34410292 34391572 34371088 34346492 34315112 
2779.625 34273840 34220420 34152636 34069592 33971688 33860596 33739468 
2783.000 33611640 33480774 33350450 33223096 33100464 32983370 32872174 
2786.375 32766182 32664790 32566994 32472040 32379176 32288086 32198652 
2789.751 32110840 32024764 31940520 31858250 31778104 31700574 31626124 
2793.126 31555530 31489118 31427134 31369220 31314590 31262100 31210474 
2796.501 31158780 31106170 31052214 30996696 30939408 30879850 30817276 
2799.876 30751368 30681810 30608490 30532376 30454002 30373902 30292320 
2803.252 30208662 30122426 30032622 29938788 29841106 29740360 29638112 
2806.627 29535780 29434998 29336508 29240874 29148168 29058496 28972132 
2810.002 28889932 28813162 28743062 28680796 28626998 28582016 28545178 
2813.377 28515208 28491150 28471762 28456052 28443636 28434368 28428708 
2816.753 28427256 28431008 28441230 28459628 28488142 28528408 28582406 
2820.128 28651170 28735592 28835364 28949748 29077342 29216528 29365542 
2823.503 29522798 29686748 29856226 30029816 30206282 30384240 30562060 
2826.878 30737712 30909592 31075274 31233046 31380974 31517658 31642336 
2830.254 31754684 31854902 31943266 32020408 32086760 32142666 32188554 
2833.629 32225308 32254606 32278948 32301362 32325562 32354366 32390316 
2837.004 32434728 32488502 32552030 32625962 32711912 32811954 32929252 
2840.379 33067138 33229214 33419330 33641536 33900644 34202460 34554676 
2843.755 34965784 35445292 36003116 36647852 37385404 38216792 39135876 
2847.130 40127848 41165580 42211608 43219856 44135260 44904756 45480616 
2850.505 45825052 45918552 45758744 45361828 44757112 43985676 43094956 
2853.880 42130876 41139132 40160484 39225848 38360096 37578216 36887336 
2857.256 36287448 35773548 35337020 34967864 34655216 34390132 34163640 
2860.631 33968860 33800208 33653064 33524438 33412456 33315960 33234540 
2864.006 33168518 33118914 33086554 33073538 33082190 33114840 33174276 
2867.381 33262302 33379324 33524654 33695600 33888104 34096220 34314360 
2870.757 34535840 34753844 34962156 35155436 35329184 35480956 35610700 
2874.132 35720552 35814888 35899096 35980044 36063132 36153184 36254060 
2877.507 36368148 36496968 36641508 36802428 36979472 37171924 37378868 
2880.882 37598488 37828840 38068292 38314636 38566376 38821416 39077288 
2884.258 39330848 39578384 39815208 40036896 40239540 40420456 40579152 
2887.633 40717088 40838724 40950412 41059696 41175708 41306216 41459876 
2891.008 41644332 41867356 42138504 42469448 42874188 43370240 43977060 
2894.383 44713404 45596968 46639052 47840828 49189380 50655304 52189856 
2897.759 53722316 55172756 56450976 57468440 58156512 58468432 58390684 
2901.134 57942496 57173340 56154044 54961032 53674696 52366480 51091932 
2904.509 49896596 48810824 47853960 47037320 46365260 45837756 45451736 
2907.884 45203108 45087888 45102780 45245872 45515680 45910376 46426356 
2911.260 47057624 47794072 48622672 49525668 50481124 51464280 52445284 
2914.635 53392092 54274096 55060956 55729924 56266656 56666528 56934348 
2918.010 57081392 57123340 57074780 56947040 56747136 56476448 56132700 
2921.385 55712148 55211888 54632120 53978420 53261460 52497516 51707408 
2924.760 50912844 50135988 49396900 48710696 48088864 47537560 47058844 
2928.136 46651112 46309928 46029092 45800492 45615036 45463324 45334428 
2931.511 45218220 45104208 44982040 44843180 44679652 44485536 44257308 
2934.886 43993192 43693952 43361928 43000488 42613688 42205764 41781256 
2938.261 41345176 40903268 40462280 40029664 39612652 39218520 38852936 
2941.637 38519884 38221132 37956288 37722828 37515180 37325928 37145936 
2945.012 36963812 36769180 36552688 36308128 36033824 35733004 35413224 
2948.387 35084344 34757792 34444256 34151556 33885420 33648052 33439476 
2951.762 33257470 33098496 32958314 32831826 32714054 32600246 32486074 
2955.138 32367968 32243722 32111696 31971190 31822064 31664718 31500094 
2958.513 31329688 31155614 30979970 30805716 30635264 30470600 30313604 
2961.888 30165648 30027722 29900700 29785424 29682456 29592246 29514962 
2965.263 29450776 29399860 29362564 29339344 29330694 29337180 29358416 
2968.639 29394080 29443258 29505104 29579228 29665710 29765056 29878302 
2972.014 30006206 30148778 30304826 30471774 30644970 30818022 30982854 
2975.389 31129058 31245402 31320930 31344720 31309638 31211898 31052534 
2978.764 30837516 30576352 30282196 29968394 29648682 29335586 29038834 
2982.140 28766038 28521968 28308342 28124160 27965960 27829012 27707398 
2985.515 27595636 27489688 27387264 27287966 27193278 27105170 27025084 
2988.890 26953158 26886600 26820792 26748474 26661126 26551078 26412674 
2992.265 26243618 26045992 25826370 25594770 25361644 25137770 24931416 
2995.641 24746626 24584532 24442826 24318126 24206428 24104318 24010004 
2999.016 23922504 23841464 23766878 23698392 23635656 23577756 23524410 
3002.391 23474954 23429314 23387246 23348716 23313962 23283266 23256802 
3005.766 23235376 23219472 23209300 23204722 23205244 23209790 23217164 
3009.142 23226392 23236668 23247680 23259426 23271694 23284664 23298368 
3012.517 23312738 23328016 23344730 23363330 23384798 23410150 23439982 
3015.892 23474848 23515070 23560264 23609626 23662352 23716834 23771636 
3019.267 23825642 23877800 23927826 23975934 24022506 24067928 24112584 
3022.643 24156018 24198160 24238588 24277376 24314904 24352400 24391196 
3026.018 24432626 24477810 24527100 24580604 24637760 24697626 24759184 
3029.393 24821486 24883166 24943278 25000726 25054674 25104734 25150794 
3032.768 25193174 25232468 25269306 25304602 25339338 25374570 25411350 
3036.144 25450874 25493774 25540300 25590132 25642466 25696388 25751196 
3039.519 25806364 25861958 25918512 25976758 26036844 26099436 26164676 
3042.894 26232532 26303284 26376934 26453414 26532056 26611594 26691146 
3046.269 26769372 26845888 26921216 26996982 27074594 27155464 27239948 
3049.645 27327060 27415038 27501372 27584550 27663572 27738690 27810712 
3053.020 27880874 27950164 28018932 28087538 28155942 28224708 28294266 
3056.395 28365956 28440240 28517508 28597376 28679098 28761896 28844922 
3059.770 28927684 29010246 29092434 29174144 29255160 29335622 29415640 
3063.146 29495846 29577420 29661240 29748096 29838444 29931866 30027614 
3066.521 30125054 30223652 30323160 30423724 30525268 30627796 30730314 
3069.896 30832322 30933216 31032532 31130552 31227670 31324490 31421292 
3073.271 31518370 31615752 31713620 31812508 31912986 32015808 32121438 
3076.646 32229770 32340162 32451440 32562386 32672472 32781370 32889400 
3080.022 32997244 33105686 33214942 33325046 33435826 33546738 33656856 
3083.397 33765932 33873276 33978424 34081452 34182352 34282052 34381456 
3086.772 34482064 34585028 34691608 34802200 34916800 35034916 35155908 
3090.147 35279012 35403592 35529176 35655232 35781212 35906620 36031304 
3093.523 36155236 36278844 36402736 36528032 36655820 36786672 36921388 
3096.898 37059792 37201520 37345536 37490468 37634184 37774584 37910148 
3100.273 38039644 38163788 38284024 38402876 38523360 38647460 38776196 
3103.648 38909324 39045132 39181968 39318152 39452784 39586260 39719016 
3107.024 39852140 39985920 40120760 40256044 40391220 40526188 40660540 
3110.399 40794204 40927476 41060168 41191992 41323016 41453312 41583288 
3113.774 41713776 41845100 41977892 42111892 42246372 42380596 42513848 
3117.149 42645784 42776772 42907324 43038280 43170048 43302616 43435600 
3120.525 43568000 43699376 43828812 43956384 44081932 44205764 44328236 
3123.900 44449600 44570744 44692028 44814416 44938748 45065724 45195900 
3127.275 45329204 45465460 45603592 45742728 45881616 46019220 46154580 
3130.650 46287556 46418172 46547204 46675424 46804056 46934128 47066712 
3134.026 47202252 47341272 47484036 47630284 47779500 47930920 48083088 
3137.401 48234724 48384556 48531664 48675780 48817684 48958188 49098588 
3140.776 49239552 49381452 49523924 49666288 49807996 49948672 50088984 
3144.151 50229192 50370152 50512724 50657164 50803480 50951592 51101400 
3147.527 51252676 51405380 51558996 51712968 51866548 52019244 52170764 
3150.902 52321288 52470820 52619988 52768724 52916728 53063468 53208760 
3154.277 53352004 53493980 53635520 53777776 53921548 54067048 54214032 
3157.652 54362072 54510692 54659516 54808612 54957876 55106548 55253952 
3161.028 55398888 55540144 55677492 55811720 55944364 56077352 56211888 
3164.403 56348924 56488072 56628288 56768544 56907868 57046136 57183624 
3167.778 57320508 57456488 57590848 57722336 57850080 57973848 58093744 
3171.153 58210912 58326064 58439696 58551724 58661616 58769116 58873864 
3174.529 58976440 59077332 59177072 59275732 59372404 59466316 59556796 
3177.904 59643872 59728648 59812716 59898020 59985312 60075216 60167076 
3181.279 60259492 60351620 60442512 60531632 60618940 60704628 60788700 
3184.654 60871372 60953032 61034212 61115364 61196880 61278600 61359840 
3188.030 61439572 61516600 61590784 61662572 61733000 61802900 61873276 
3191.405 61943504 62012524 62078840 62141612 62200948 62258268 62315140 
3194.780 62373124 62432916 62493632 62554128 62612988 62669292 62723652 
3198.155 62777244 62831544 62887488 62945664 63005000 63064112 63122236 
3201.531 63178292 63232296 63284388 63334488 63382336 63427620 63469992 
3204.906 63509376 63546540 63582056 63617116 63652300 63688248 63725308 
3208.281 63764028 63805244 63849420 63896708 63946000 63995028 64041100 
3211.656 64081340 64114368 64140832 64163416 64185852 64211620 64243124 
3215.031 64279392 64318232 64355852 64388900 64415536 64436288 64453660 
3218.407 64471380 64493328 64522156 64559212 64603852 64654260 64707712 
3221.782 64761364 64812636 64860224 64903432 64942940 64980156 65016672 
3225.157 65054128 65093032 65133536 65175036 65217264 65260352 65304904 
3228.532 65351932 65402232 65455584 65510720 65565744 65618844 65668868 
3231.908 65716124 65762268 65809496 65859772 65914108 65972268 66033096 
3235.283 66095440 66158140 66220768 66283444 66345900 66407628 66467784 
3238.658 66525132 66579512 66631696 66683344 66736236 66791840 66850388 
3242.033 66910832 66970868 67028700 67083492 67136160 67188408 67242960 
3245.409 67302216 67367024 67436992 67511264 67588376 67667080 67746624 
3248.784 67826376 67905200 67982344 68056168 68125544 68190360 68251000 
3252.159 68308696 68365048 68421128 68477408 68533200 68587480 68639288 
3255.534 68687952 68733136 68775136 68814264 68850720 68884696 68916576 
3258.910 68946664 68975840 69004224 69032032 69058496 69082576 69102736 
3262.285 69117888 69127792 69132456 69133080 69130632 69125856 69119280 
3265.660 69111088 69101064 69089488 69076432 69062376 69047144 69030680 
3269.035 69012032 68991104 68967568 68941776 68914784 68886984 68858760 
3272.411 68829368 68797808 68762552 68722808 68678712 68631288 68582352 
3275.786 68533624 68486528 68441840 68399448 68359304 68321376 68285464 
3279.161 68251352 68218544 68185360 68150272 68111672 68068648 68021520 
3282.536 67972624 67924304 67879360 67840512 67808360 67782832 67762536 
3285.912 67745424 67729352 67711888 67691480 67666896 67638200 67606184 
3289.287 67572808 67541184 67513544 67491912 67477240 67468264 67463424 
3292.662 67461032 67460016 67460328 67463656 67471936 67486992 67509912 
3296.037 67540560 67578192 67621784 67670336 67722848 67779040 67837800 
3299.413 67898576 67959912 68021560 68083184 68145592 68210288 68278336 
3302.788 68350808 68427448 68507592 68590312 68674760 68761120 68849824 
3306.163 68941816 69037200 69135872 69237208 69340672 69446336 69554856 
3309.538 69667184 69784208 69905672 70030344 70156544 70282664 70408152 
3312.914 70534104 70662672 70795920 70934856 71078960 71225872 71372416 
3316.289 71515720 71654536 71788640 71919376 72048272 72176152 72302968 
3319.664 72427760 72549600 72667560 72781712 72892296 72999488 73103256 
3323.039 73203128 73298712 73390480 73479824 73568440 73658720 73751416 
3326.415 73845912 73939864 74030192 74113456 74187856 74252520 74308072 
3329.790 74355888 74396664 74430960 74458488 74478784 74491400 74496128 
3333.165 74492504 74479920 74457504 74423920 74378776 74322544 74256968 
3336.540 74184752 74108584 74029832 73948232 73862168 73769096 73666224 
3339.916 73552544 73427704 73292600 73148000 72993960 72829792 72654480 
3343.291 72466864 72267048 72056128 71835864 71608080 71373976 71133744 
3346.666 70887728 70635968 70379320 70119592 69858888 69598848 69340168 
3350.041 69082496 68824552 68565360 68304464 68042568 67781520 67523224 
3353.417 67269488 67021244 66778852 66541852 66310004 66083208 65861276 
3356.792 65644048 65431088 65221428 65014212 64809172 64606660 64407812 
3360.167 64213848 64025968 63844160 63667760 63495496 63326480 63160324 
3363.542 62998064 62841340 62691948 62551452 62419716 62296740 62180912 
3366.917 62070776 61964980 61862156 61761532 61661580 61561616 61460448 
3370.293 61357284 61252200 61145460 61036920 60926156 60811912 60692248 
3373.668 60564736 60427620 60279400 60119584 59948416 59765756 59571160 
3377.043 59363968 59143204 58908436 58659384 58396596 58121284 57834068 
3380.418 57534864 57222668 56895932 56553284 56193376 55816164 55422796 
3383.794 55014732 54594584 54164368 53726592 53283260 52836264 52387116 
3387.169 51937344 51487740 51038636 50590224 50141788 49693112 49243780 
3390.544 48794064 48344592 47896320 47450476 47008776 46572508 46142680 
3393.919 45719756 45303608 44893036 44486196 44081568 43677612 43273884 
3397.295 42870748 42469560 42071552 41677812 41288472 40903268 40520912 
3400.670 40140348 39760916 39382616 39005912 38631816 38260900 37893192 
3404.045 37528216 37165464 36803660 36442516 36081780 35721704 35362828 
3407.420 35006184 34652528 34302888 33957716 33617512 33282262 32951522 
3410.796 32624890 32301574 31981140 31664218 31351696 31045130 30746284 
3414.171 30456384 30175984 29904780 29641482 29384402 29131694 28881574 
3417.546 28632200 28382368 28131052 27877800 27622788 27367712 27114620 
3420.921 26866436 26625966 26394538 26172982 25959876 25753378 25551088 
3424.297 25350756 25151358 24951944 24752974 24554202 24355870 24158014 
3427.672 23960562 23763972 23569290 23377770 23190426 23008156 22830820 
3431.047 22657394 22486690 22317308 22148480 21980104 21812800 21647338 
3434.422 21484342 21324086 21166498 21011124 20857822 20706138 20556000 
3437.798 20406782 20257754 20108258 19956870 19803212 19647562 19490824 
3441.173 19335146 19183022 19036732 18897518 18765478 18638800 18514650 
3444.548 18389846 18260964 18125658 17983802 17836536 17686834 17538634 
3447.923 17395760 17261242 17136038 17019312 16909026 16802142 16695766 
3451.299 16587833 16477140 16363584 16247822 16130578 16012575 15894501 
3454.674 15776562 15659239 15542703 15427228 15313295 15200558 15088811 
3458.049 14977161 14865539 14753262 14640292 14526770 14412868 14298378 
3461.424 14183507 14068394 13953174 13839284 13727476 13619184 13515295 
3464.800 13415804 13319787 13226011 13132769 13039580 12946035 12853057 
3468.175 12762009 12674188 12590580 12511352 12435992 12363339 12292095 
3471.550 12220794 12148074 12072777 11994428 11912585 11827897 11741558 
3474.925 11655100 11570462 11489175 11412053 11339162 11269889 11203448 
3478.301 11138717 11075423 11013362 10952839 10894295 10838307 10785281 
3481.676 10735589 10689537 10647667 10609943 10576195 10545606 10517023 
3485.051 10488848 10459997 10429688 10397956 10365683 10334294 10304945 
3488.426 10278751 10256359 10237769 10222876 10211139 10202183 10195603 
3491.802 10190718 10187224 10184341 10182374 10181730 10183086 10187902 
3495.177 10197367 10212190 10233087 10260159 10293646 10333718 10381055 
3498.552 10435763 10497945 10566621 10640400 10716876 10793773 10870037 
3501.927 10945499 11021858 11101970 11189474 11287504 11398107 11521667 
3505.302 11657414 11802974 11955599 12112298 12270315 12427843 12584201 
3508.678 12739591 12895823 13055047 13219692 13391268 13570262 13756238 
3512.053 13947562 14142565 14339848 14537666 14734923 14930040 15121093 
3515.428 15306018 15482541 15649380 15806215 15953517 16092513 16224157 
3518.803 16348377 16463546 16566731 16654518 16723828 16772281 16799456 
3522.179 16805586 16792256 16761124 16713498 16650833 16572893 16478997 
3525.554 16366852 16234236 16077796 15895806 15687853 15456103 15205259 
3528.929 14940808 14668532 14393071 14116277 13838736 13559937 13279234 
3532.304 12995912 12710113 12421740 12129709 11832698 11529289 11219122 
3535.680 10904114 10588146 10277225 9977138 9691828 9422246 9166740 8921701 
3539.537 8683390 8449095 8218439 7991921 7771020 7555828 7345393 7137384 
3543.395 6928902 6717929 6504099 6289197 6076182 5868814 5670205 5483129 
3547.252 5308510 5146803 4997423 4859085 4729633 4605981 4484840 4362462 
3551.109 4236505 4106269 3972762 3838694 3707575 3582209 3464259 3353454 
3554.967 3248219 3146747 3047101 2948145 2849178 2750000 2650278 2550112 
3558.824 2449136 2347351 2245257 2144186 2045535 1950534 1860346 1775034 
3562.682 1694462 1616666 1539149 1458754 1371992 1276108 1169614 1054444 
3566.539 934622 817489 711373 622205 552828 501640 463361 430923 397724 
3570.879 358890 312234 257958 197788 134511 70316 6626 -56026 -117444 
3575.218 -177959 -238035 -297276 -355879 -413812 -470546 -525684 -577804 
3579.076 -625418 -666873 -700947 -727973 -749639 -768691 -788503 -812018 
3582.933 -841087 -876272 -917571 -964586 -1017480 -1076977 -1143572 -1217095 
3586.791 -1295066 -1373055 -1444789 -1503997 -1547284 -1574125 -1587627 
3590.166 -1593141 -1596607 -1603407 -1617041 -1639059 -1669063 -1705633 
3593.541 -1746260 -1788796 -1831229 -1872371 -1911036 -1945870 -1976381 
3596.916 -2001547 -2020874 -2035253 -2045608 -2053655 -2061470 -2070605 
3600.292 -2081619 -2094644 -2109021 -2123562 -2137839 -2151983 -2166886 
3603.667 -2184194 -2205359 -2231929 -2264661 -2303257 -2346992 -2394050 
3607.042 -2441992 -2487689 -2528933 -2563356 -2590695 -2612136 -2630612 
3610.417 -2649187 -2671218 -2698023 -2728679 -2760320 -2788634 -2808749 
3613.792 -2818361 -2817571 -2809868 -2800321 -2795054 -2798510 -2813489 
3617.168 -2840219 -2875901 -2917109 -2958050 -2994249 -3022119 -3039723 
3620.543 -3047389 -3046994 -3041960 -3035643 -3032089 -3033767 -3041861 
3623.918 -3056339 -3075158 -3096444 -3119374 -3144671 -3175854 -3217330 
3627.293 -3273337 -3343771 -3422314 -3495814 -3548959 -3570222 -3556978 
3630.669 -3515535 -3457817 -3396244 -3340746 -3298164 -3270673 -3257058 
3634.044 -3253342 -3255249 -3259064 -3262747 -3266102 -3269982 -3275606 
3637.419 -3283268 -3292903 -3303557 -3314441 -3324865 -3334630 -3343837 
3640.794 -3353142 -3363137 -3374743 -3388518 -3404660 -3423465 -3444931 
3644.170 -3468796 -3494894 -3523291 -3554612 -3589380 -3628878 -3673957 
3647.545 -3723729 -3776485 -3828348 -3873702 -3906705 -3922335 -3918034 
3650.920 -3894161 -3854162 -3803583 -3748794 -3696002 -3651188 -3618494 
3654.295 -3600717 -3598319 -3609425 -3629075 -3651057 -3669127 -3679017 
3657.671 -3679542 -3672183 -3659764 -3644945 -3629896 -3616227 -3604332 
3661.046 -3594671 -3588000 -3584780 -3585930 -3591681 -3601703 -3615012 
3664.421 -3629732 -3644387 -3657661 -3669062 -3679115 -3689760 -3702639 
3667.796 -3719689 -3741337 -3764989 -3785058 -3792087 -3775993 -3729216 
3671.172 -3650137 -3543076 -3417251 -3284781 -3158322 -3049462 -2969305 
3674.547 -2925600 -2920927 -2951238 -3006588 -3075915 -3151249 -3228874 
3677.922 -3308785 -3391149 -3474449 -3554842 -3626512 -3684569 -3726160 
3681.297 -3751981 -3765120 -3770179 -3771065 -3770277 -3769226 -3768076 
3684.673 -3767879 -3770343 -3777766 -3792317 -3815506 -3846641 -3882996 
3688.048 -3920233 -3953594 -3979236 -3996013 -4003433 -4001791 -3991647 
3691.423 -3973064 -3946403 -3913831 -3878365 -3843784 -3814028 -3791266 
3694.798 -3775993 -3766992 -3761605 -3757138 -3752079 -3746626 -3742323 
3698.174 -3741863 -3747250 -3759700 -3779212 -3803288 -3828643 -3851370 
3701.549 -3867627 -3874556 -3871075 -3857577 -3836591 -3810776 -3783679 
3704.924 -3758025 -3735786 -3718243 -3705760 -3698236 -3696002 -3699288 
3708.299 -3709308 -3727113 -3753196 -3787062 -3826279 -3866707 -3903421 
3711.675 -3931004 -3945944 -3947027 -3935174 -3913502 -3885688 -3855377 
3715.050 -3825523 -3798788 -3776912 -3760948 -3751488 -3748104 -3750174 
3718.425 -3756744 -3766401 -3778128 -3791036 -3803846 -3815703 -3825458 
3721.800 -3831928 -3834785 -3834588 -3832388 -3830286 -3830089 -3833044 
3725.176 -3839153 -3846280 -3851370 -3851075 -3842667 -3825293 -3800824 
3728.551 -3773102 -3746889 -3727836 -3720641 -3728099 -3750272 -3784139 
3731.926 -3824472 -3864408 -3898627 -3924273 -3941971 -3953890 -3962754 
3735.301 -3969419 -3973524 -3971947 -3962525 -3943941 -3917311 -3885229 
3738.677 -3850549 -3815900 -3783285 -3754543 -3731581 -3718868 -3721529 
3742.052 -3746823 -3800759 -3885032 -3992008 -4102962 -4192296 -4237251 
3745.427 -4230032 -4179300 -4104275 -4025461 -3958454 -3913732 -3895606 
3748.802 -3902436 -3928049 -3965085 -4005764 -4043910 -4075620 -4097120 
3752.177 -4104275 -4094297 -4066167 -4022769 -3970043 -3916293 -3869170 
3755.553 -3834490 -3814324 -3807558 -3810579 -3818265 -3826574 -3833471 
3758.928 -3837872 -3839514 -3837215 -3828742 -3812320 -3787522 -3756579 
3762.303 -3723828 -3695641 -3677243 -3671427 -3677571 -3691238 -3705924 
3765.678 -3715221 -3715878 -3708191 -3696528 -3686048 -3681349 -3684766 
3769.054 -3695542 -3710195 -3723434 -3730760 -3729347 -3718703 -3700569 
3772.429 -3678360 -3655821 -3636205 -3622076 -3614223 -3612087 -3613993 
3775.804 -3617476 -3620795 -3623686 -3626906 -3632197 -3641035 -3653521 
3779.179 -3667058 -3677571 -3680824 -3674253 -3658712 -3637750 -3616687 
3782.555 -3601046 -3593850 -3595394 -3602623 -3611068 -3615997 -3614650 
3785.930 -3606994 -3595492 -3583991 -3575513 -3571931 -3573311 -3578043 
3789.305 -3583794 -3588066 -3589019 -3586160 -3579357 -3570123 -3560330 
3792.680 -3553199 -3551654 -3558358 -3574658 -3599600 -3629634 -3659501 
3796.056 -3682926 -3694951 -3694064 -3682565 -3666433 -3652897 -3649250 
3799.431 -3660946 -3689661 -3731778 -3778752 -3818823 -3839416 -3833570 
3802.806 -3801383 -3750075 -3690581 -3634168 -3591681 -3570222 -3572489 
3806.181 -3595427 -3630455 -3666236 -3691501 -3700536 -3693538 -3674877 
3809.557 -3650268 -3624705 -3600586 -3578602 -3558128 -3539428 -3523982 
3812.932 -3515995 -3520465 -3541926 -3581987 -3637125 -3698466 -3753130 
3816.307 -3788704 -3798656 -3784500 -3754543 -3720543 -3694984 -3687132 
3819.682 -3701719 -3737198 -3784763 -3830384 -3858497 -3859843 -3832815 
3823.058 -3784500 -3725996 -3669784 -3626315 -3600947 -3595098 -3604595 
3826.433 -3622076 -3638998 -3648888 -3649447 -3642842 -3634102 -3628516 
3829.808 -3630619 -3641495 -3658844 -3677703 -3692356 -3697776 -3691238 
3833.183 -3673432 -3647705 -3619842 -3595788 -3581691 -3581592 -3596741 
3836.559 -3625066 -3660289 -3694491 -3718802 -3727902 -3720904 -3701062 
3839.934 -3675140 -3649250 -3628352 -3614913 -3607651 -3604135 -3600849 
3843.309 -3595328 -3586423 -3574231 -3560133 -3546034 -3533151 -3522437 
3846.684 -3514056 -3508337 -3504491 -3501665 -3498838 -3494992 -3490424 
3850.060 -3487202 -3489405 -3503308 -3535780 -3591122 -3668076 -3756645 
3853.435 -3837577 -3891961 -3908018 -3886378 -3837478 -3775270 -3712494 
3856.810 -3657004 -3613007 -3580508 -3557504 -3541203 -3528911 -3519512 
3860.185 -3512774 -3509191 -3510046 -3516093 -3527925 -3545541 -3567823 
3863.561 -3592108 -3614091 -3628155 -3629141 -3614354 -3585568 -3548762 
3866.936 -3513070 -3489208 -3484639 -3502749 -3539724 -3585733 -3625953 
3870.311 -3647705 -3645800 -3624212 -3593455 -3564931 -3548269 -3546724 
3873.686 -3557504 -3573377 -3584911 -3585273 -3572292 -3548663 -3520695 
3877.062 -3495880 -3480300 -3477375 -3487597 -3508337 -3534301 -3558260 
3880.437 -3574133 -3576860 -3564471 -3538968 -3505214 -3470505 -3442203 
3883.812 -3427015 -3428856 -3446936 -3474778 -3502092 -3518361 -3516061 
3887.187 -3494434 -3458704 -3417810 -3381450 -3357909 -3351958 -3363564 
3890.563 -3388321 -3417909 -3443550 -3458178 -3458737 -3446312 -3424780 
3893.938 -3399104 -3373362 -3350972 -3333315 -3321314 -3314540 -3312633 
3897.313 -3315000 -3320919 -3329863 -3341535 -3355246 -3370765 -3387861 
3900.688 -3406304 -3426029 -3446673 -3467316 -3486512 -3502486 -3511952 
3904.063 -3512610 -3502388 -3480924 -3449171 -3409855 -3366754 -3323549 
3907.439 -3284123 -3251204 -3226374 -3210291 -3202167 -3200786 -3204206 
3910.814 -3210291 -3217362 -3223743 -3228183 -3230025 -3229202 -3226275 
3914.189 -3222427 -3218875 -3217132 -3217987 -3221539 -3226900 -3232853 
3917.564 -3237984 -3240812 -3240812 -3237622 -3231241 -3222197 -3210488 
3920.940 -3196970 -3182893 -3170163 -3160887 -3157467 -3161151 -3171676 
3924.315 -3187432 -3204700 -3219632 -3228676 -3230222 -3224072 -3212429 
3927.690 -3197891 -3183452 -3171578 -3163782 -3160591 -3161973 -3167269 
3931.065 -3175492 -3185162 -3194569 -3201970 -3205456 -3204338 -3198780 
3934.441 -3189899 -3179669 -3169933 -3162335 -3157302 -3154638 -3153289 
3937.816 -3152269 -3150888 -3149144 -3147631 -3147598 -3149374 -3153190 
3941.191 -3158486 -3164078 -3168025 -3168913 -3165624 -3157302 -3144605 
3944.566 -3128782 -3111774 -3096082 -3084403 -3078086 -3077888 -3082725 
3947.942 -3089700 -3095720 -3097826 -3094009 -3084140 -3069696 -3053015 
3951.317 -3036597 -3021988 -3009550 -2999119 -2989905 -2981579 -2974768 
3954.692 -2970161 -2968745 -2970884 -2975985 -2982271 -2988128 -2991715 
3958.067 -2992505 -2990695 -2987799 -2984739 -2982665 -2981744 -2981448 
3961.443 -2980724 -2978980 -2975459 -2970687 -2964829 -2958182 -2951468 
3964.818 -2944722 -2938041 -2931920 -2926884 -2923264 -2921618 -2921421 
3968.193 -2921750 -2921157 -2918031 -2911152 -2900192 -2885414 -2868298 
3971.568 -2850292 -2833274 -2818263 -2805852 -2796338 -2789127 -2783794 
3974.944 -2779481 -2775662 -2772008 -2768320 -2764403 -2760452 -2756896 
3978.319 -2753735 -2751332 -2749619 -2748401 -2747677 -2747051 -2746096 
3981.694 -2744681 -2742837 -2740335 -2737503 -2734474 -2731379 -2728284 
3985.069 -2725353 -2722587 -2719756 -2717055 -2715047 -2714224 -2715771 
3988.445 -2720513 -2728942 -2740631 -2754262 -2768189 -2780206 -2788469 
3991.820 -2792321 -2791301 -2786263 -2778494 -2768880 -2758114 -2746591 
3995.195 -2734507 -2722324 -2711194 -2702501 -2697891 -2698846 -2705234 
3998.570 -2716463 -2730654 -2745273 -2758476 -2768683 
##END=
