
##TITLE=Z189_1_c
##JCAMP-DX=5.01  $$ Nicolet v. 1
##DATATYPE=INFRARED SPECTRUM
##ORIGIN=UniL
##OWNER=Nicolet
##LONGDATE=2011/09/14
##TIME=16:09:40
##SPECTROMETER/DATA SYSTEM=Nicolet iS5
##DATA PROCESSING=
Ratio against background
%Transmittance->Absorbance
Truncated
ElementMultiply or ElementDivide
##COMMENTS=
Number of sample scans: 32
Collection length: 51.22 sec
Sample gain: 2.0
Background collected on: Mer Sep 14 15:42:45 2011 (GMT+02:00);
Number of background scans: 32
Background gain: 2.0
Sample spacing:  1.000
Number of scan points: 12415
Resolution points: 8192
Number of FFT points: 65536
Apodization: N-B fort;
Phase correction: Mertz;
Laser frequency: 15798.0 cm-1
Number of rejected sample scans: 0
Number of rejected background scans: 0
Bench serial number: ASB1000141;
##RESOLUTION=4.000
##XUNITS=1/CM
##YUNITS=ABSORBANCE
##FIRSTX=649.893372
##LASTX=4000.122314
##FIRSTY=0.097383
##MAXX=4000.122314
##MINX=649.893372
##MAXY=0.252254
##MINY=-0.004630
##XFACTOR=1.000000
##YFACTOR=1.000000E-009
##NPOINTS=6950
##DELTAX=0.482117
##ZPD=6100
##XYDATA=(X++(Y..Y))
649.893 97383344 96625984 95955440 95405480 94975824 94644632 94383248 
653.268 94173456 94014416 93918480 93898576 93958176 94086256 94263024 
656.643 94470960 94703976 94971656 95292776 95683928 96148184 96672840 
660.018 97234184 97811784 98397504 99000664 99642000 100343648 101117016 
663.393 101958976 102853912 103782768 104729840 105676448 106596792 
666.285 107443216 108135736 108583472 108728752 108601088 108312328 
669.178 108001288 107762392 107618928 107543112 107482760 107389072 
672.071 107228296 106993256 106696880 106362144 106005496 105628568 
674.963 105221320 104773024 104282648 103764712 103243320 102740184 
677.856 102263496 101803920 101338640 100843096 100304200 99724320 99117992 
681.231 98501496 97883592 97260960 96622752 95958704 95269376 94568624 
684.606 93880472 93228320 92624920 92069816 91550528 91051520 90562096 
687.981 90081624 89618216 89184960 88790680 88438992 88127368 87851976 
691.355 87611912 87410880 87255592 87153568 87108208 87118536 87181872 
694.730 87296744 87466640 87699536 88005136 88389280 88850648 89380960 
698.105 89967560 90599072 91270552 91984880 92750184 93573136 94454280 
701.480 95384304 96346232 97319288 98283432 99224040 100130624 100993120 
704.855 101800824 102539992 103197760 103767952 104255264 104675064 
707.747 105048296 105395496 105729112 106052112 106362440 106660288 
710.640 106954896 107267312 107624696 108051040 108557944 109136200 
713.533 109755792 110369440 110927048 111382040 111699760 111864080 
716.425 111876176 111755768 111537544 111273584 111028352 110865840 
719.318 110848560 111020392 111398656 111971528 112697952 113516160 
722.211 114344672 115098696 115698528 116074432 116184320 116020296 
725.104 115616672 115044112 114399768 113789328 113294776 112965312 
727.996 112809032 112800736 112896336 113052264 113241192 113452392 
730.889 113689184 113957504 114258576 114584832 114924424 115267208 
733.782 115610872 115961264 116328432 116717848 117127440 117546240 
736.674 117960656 118361760 118750088 119134928 119530224 119945320 
739.567 120380960 120828728 121277312 121720648 122160720 122607600 
742.460 123070160 123548008 124024496 124469808 124846016 125121712 
745.352 125282272 125331920 125290368 125183728 125037264 124869552 
748.245 124693920 124522328 124366816 124240744 124154256 124110296 
751.138 124102880 124119952 124150688 124191080 124247928 124335192 
754.031 124467824 124653000 124885416 125148104 125418600 125678304 
756.923 125914856 126124040 126305120 126454728 126564456 126624104 
759.816 126626280 126573728 126480744 126370536 126264392 126176048 
762.709 126106304 126047360 125989600 125930976 125880856 125859600 
765.601 125889840 125987872 126158896 126396608 126686912 127012208 
768.494 127356472 127705824 128048096 128376696 128696976 129035920 
771.387 129443240 129986568 130732504 131711792 132890912 134149896 
774.279 135303888 136120528 136380032 135945088 134782704 132978472 
777.172 130692216 128120856 125434176 122735176 120062384 117395464 
780.065 114687472 111889208 108973288 105941128 102821288 99659584 96510848 
783.440 93433624 90479168 87691184 85103128 82733888 80591256 78672912 
786.815 76971512 75477560 74183528 73084360 72176936 71458224 70924320 
790.189 70570392 70392760 70391120 70570360 70939384 71507632 72280504 
793.564 73252472 74403544 75693656 77066936 78449768 79750744 80873408 
796.939 81714096 82171536 82168456 81657472 80637688 79157376 77311968 
800.314 75229776 73042216 70879696 68845168 67001872 65376116 63954600 
803.689 62696048 61540464 60428764 59317628 58187236 57048296 55935960 
807.063 54899704 53982852 53210748 52579788 52058688 51593812 51123652 
810.438 50597336 49980420 49261672 48449712 47565652 46635104 45680808 
813.813 44722660 43777172 42857476 41977492 41149332 40382348 39682744 
817.188 39052060 38487876 37985688 37541328 37151096 36812744 36524756 
820.563 36285648 36093804 35948476 35850444 35803480 35813920 35889740 
823.938 36038648 36265692 36571356 36950068 37390096 37871860 38368672 
827.312 38848660 39272052 39599256 39794908 39832492 39702680 39416100 
830.687 39003048 38506596 37978856 37472840 37032080 36689888 36463740 
834.062 36353196 36340264 36389620 36456496 36487092 36430804 36250748 
837.437 35928140 35468448 34898056 34260468 33604300 32973290 32402810 
840.812 31912952 31511032 31194524 30955560 30784268 30670608 30606002 
844.186 30582858 30593772 30633522 30697812 30783912 30890452 31015556 
847.561 31156254 31307966 31464822 31621028 31773008 31919870 32063428 
850.936 32207608 32356366 32512746 32678756 32856018 33046580 33254142 
854.311 33483888 33741648 34032892 34362732 34734244 35150804 35615848 
857.686 36133740 36710156 37352004 38066448 38861740 39747448 40733572 
861.060 41831860 43051708 44396232 45857748 47413072 49022168 50626300 
864.435 52159072 53552152 54742456 55687436 56367860 56794224 57005636 
867.810 57070512 57081056 57134984 57335292 57775400 58524272 59629960 
871.185 61109912 62951444 65108360 67500536 70019136 72514280 74813432 
874.560 76735648 78096840 78752744 78615128 77665576 75958440 73610672 
877.935 70786360 67658104 64401084 61173880 58095792 55257604 52715864 
881.309 50494932 48598620 47013684 45718284 44684724 43883796 43288196 
884.684 42870056 42603676 42466456 42437080 42500144 42646040 42873272 
888.059 43187576 43600088 44124776 44773384 45553728 46468208 47515492 
891.434 48692756 49999604 51439284 53020040 54753472 56651688 58724620 
894.809 60974228 63390196 65939836 68561560 71161896 73602432 75718304 
898.183 77335448 78282856 78438544 77746296 76229664 73986968 71179264 
901.558 68012032 64688480 61404572 58325800 55564624 53193780 51243132 
904.933 49708864 48564600 47770696 47285000 47065124 47075756 47291576 
908.308 47694916 48277564 49038264 49980348 51109640 52430892 53943040 
911.683 55634028 57473928 59408108 61361864 63238732 64930172 66340500 
915.058 67392336 68045160 68302912 68212688 67859456 67344664 66782600 
918.432 66276608 65902308 65705680 65692804 65834440 66069552 66322356 
921.807 66517332 66590980 66512080 66287264 65965408 65626824 65377200 
925.182 65333524 65597416 66249520 67332360 68841480 70720928 72860112 
928.557 75110568 77276928 79142344 80500632 81156584 80967656 79864104 
931.932 77855480 75038408 71580376 67712232 63678772 59712832 56020920 
935.306 52745568 49974360 47744956 46053920 44874668 44169264 43899264 
938.681 44023848 44496804 45262860 46244356 47341052 48441748 49421772 
942.056 50167824 50597040 50662080 50363716 49745608 48889024 47891588 
945.431 46850780 45855396 44967152 44221796 43632472 43194272 42892840 
948.806 42709716 42627872 42631016 42703212 42829352 42992440 43175752 
952.181 43365076 43550088 43726200 43894536 44060992 44233388 44419248 
955.555 44624752 44854276 45110276 45394604 45708456 46052480 46426320 
958.930 46828560 47256812 47708420 48181332 48675000 49190012 49727552 
962.305 50288192 50871644 51476028 52099444 52740704 53400036 54080112 
965.680 54784068 55515220 56274952 57063108 57878244 58718436 59583208 
969.055 60473280 61390640 62337244 63314632 64323380 65364220 66438132 
972.429 67548584 68699712 69897376 71146632 72451320 73814448 75238488 
975.804 76727096 78286224 79923368 81647112 83465296 85385168 87412872 
979.179 89555832 91823560 94228608 96786192 99510600 102413720 105502152 
982.554 108777312 112233424 115856464 119621504 123482312 127361136 
985.447 131150376 134699376 137826272 140350576 142098288 142941088 
988.339 142818240 141741520 139797840 137132096 133945104 130459040 
991.232 126893672 123463864 120340880 117649488 115470840 113836176 
994.125 112742960 112164608 112064880 112405248 113149464 114267888 
997.017 115732440 117515744 119592320 121934480 124513816 127300976 
999.910 130256312 133325416 136435776 139484880 142351456 144908480 
1002.803 147028464 148612832 149603248 149989104 149810912 149156352 
1005.695 148157760 146966544 145749392 144673424 143876096 143469168 
1008.588 143526704 144083856 145147376 146703424 148729984 151202016 
1011.481 154096272 157393296 161071728 165109504 169484576 174171408 
1014.374 179143424 184366464 189781232 195294688 200763312 205977040 
1017.266 210689824 214631840 217547072 219258048 219688656 218896784 
1020.159 217062144 214484800 211546704 208635184 206141360 204392272 
1023.052 203608640 203917904 205335584 207788336 211127648 215164928 
1025.945 219700016 224516480 229412384 234196496 238676528 242684112 
1028.838 246075824 248746976 250650976 251798720 252254016 252110208 
1031.731 251479184 250473888 249188912 247705392 246078928 244333232 
1034.624 242455680 240393440 238064576 235362880 232187040 228465424 
1037.517 224163440 219296000 213917408 208114064 201983888 195631376 
1040.410 189166464 182691424 176305488 170100272 164145872 158496064 
1043.303 153185792 148233920 143654176 139462000 135675696 132320792 
1046.196 129424272 127007560 125086544 123666264 122742384 122302656 
1049.089 122328912 122798432 123681248 124942184 126540240 128427280 
1051.982 130556312 132882040 135360768 137953360 140614784 143286208 
1054.875 145895072 148345248 150523568 152319152 153623728 154352192 
1057.768 154454256 153916064 152767616 151078944 148967360 146584112 
1060.661 144098912 141700832 139564064 137836880 136641152 136054352 
1063.554 136116496 136832032 138173200 140081840 142467456 145219856 
1066.448 148201680 151257344 154238752 157000624 159420304 161409808 
1069.341 162905024 163867392 164277264 164127312 163422976 162181584 
1072.234 160434944 158226960 155611120 152654432 149432320 146033408 
1075.127 142568240 139156512 135930352 133026984 130564064 128641768 
1078.020 127331320 126666544 126647128 127233776 128352688 129885568 
1080.913 131674184 133538920 135271616 136674192 137591872 137926272 
1083.806 137666480 136886560 135742672 134436848 133190184 132229072 
1086.699 131739792 131864160 132689280 134234496 136452928 139227408 
1089.592 142392816 145731824 148999056 151964976 154413840 156177072 
1092.485 157150656 157285760 156593184 155129840 152995168 150313072 
1095.378 147213968 143832256 140281888 136651168 133006472 129388688 
1098.271 125822856 122325496 118906512 115572824 112327488 109170408 
1101.164 106100120 103118056 100232904 97464952 94846856 92418720 90227696 
1104.540 88320488 86736640 85511744 84672584 84237952 84221624 84629584 
1107.915 85460800 86705040 88342256 90341984 92660304 95244744 98030688 
1111.290 100936856 103872824 106730520 109386800 111721912 113618936 
1114.183 114980936 115748320 115895576 115436096 114412960 112895568 
1117.076 110968288 108719048 106241688 103621040 100927280 98217128 95527712 
1120.451 92880976 90290336 87765592 85318664 82967048 80731448 78635184 
1123.827 76701760 74950480 73399376 72065128 70963688 70112736 69530432 
1127.202 69232512 69230960 69530240 70125856 71002432 72133664 73484256 
1130.577 75004976 76636648 78310584 79945752 81462888 82791288 83877920 
1133.952 84701816 85277160 85654064 85905488 86120648 86389928 86784384 
1137.328 87352288 88107920 89029728 90060504 91113144 92087712 92871912 
1140.703 93362216 93477840 93159000 92376088 91125320 89424112 87306672 
1144.078 84820344 82027280 78996624 75804032 72530216 69247664 66022640 
1147.453 62911884 59957048 57190160 54633472 52299312 50193596 48316484 
1150.829 46663656 45227008 43996420 42960832 42108424 41428272 40910728 
1154.204 40546996 40329920 40253208 40311592 40500944 40818632 41263912 
1157.579 41837728 42542676 43381812 44357664 45471196 46720992 48103524 
1160.954 49611276 51232280 52949440 54736596 56557852 58370256 60120080 
1164.330 61749956 63204124 64426676 65369688 65995180 66274604 66193752 
1167.705 65753436 64970264 63873560 62503084 60905948 59127940 57215072 
1171.080 55211060 53153484 51077960 49016936 46997036 45042528 43173704 
1174.455 41405676 39750752 38217876 36811772 35535036 34387480 33367016 
1177.831 32470576 31694728 31036304 30492814 30062484 29744512 29538122 
1181.206 29442374 29455704 29575822 29799228 30122142 30540874 31052284 
1184.581 31653386 32340732 33109870 33952628 34857448 35809096 36787536 
1187.956 37770428 38734320 39653380 40502688 41259940 41906220 42430284 
1191.332 42830120 43115044 43303900 43423808 43507928 43588548 43696520 
1194.707 43857956 44090848 44406036 44806116 45285956 45832196 46423628 
1198.082 47033036 47624368 48155676 48582352 48854352 48923992 48751028 
1201.457 48304968 47574676 46570292 45325784 43892520 42334280 40721636 
1204.833 39117276 37575832 36139068 34832316 33669140 32652430 31778142 
1208.208 31037692 30420310 29915076 29510636 29196362 28964128 28806966 
1211.583 28720760 28703484 28754284 28873180 29059344 29311196 29625766 
1214.958 29999032 30425500 30898456 31409218 31947010 32500036 33055376 
1218.333 33600044 34123348 34615780 35069688 35479412 35840544 36150880 
1221.709 36411236 36626764 36807736 36968432 37127816 37306000 37521932 
1225.084 37793344 38133292 38549756 39045568 39617260 40254804 40940912 
1228.459 41653012 42362916 43038940 43651412 44172348 44579408 44858648 
1231.834 45005336 45025880 44937720 44772136 44571368 44382692 44260500 
1235.210 44256280 44414476 44773824 45362160 46197772 47292244 48649872 
1238.585 50268924 52139904 54245076 56554908 59026088 61606400 64230828 
1241.960 66823720 69308680 71602256 73622488 75299800 76576648 77419704 
1245.335 77822784 77807488 77419392 76719112 75782256 74686864 73508112 
1248.711 72318080 71171808 70104864 69128608 68227968 67364976 66484696 
1252.086 65531984 64459348 63239536 61872588 60384972 58826288 57255784 
1255.461 55738664 54333236 53080880 52005952 51110160 50375364 49763812 
1258.836 49224968 48702320 48134764 47469844 46667936 45704480 44574708 
1262.212 43291012 41881660 40383476 38839856 37295856 35790420 34357140 
1265.587 33021268 31797748 30694290 29711372 28844250 28084710 27422380 
1268.962 26847402 26350212 25922802 25558924 25252730 24999218 24793244 
1272.337 24629520 24503400 24410580 24347250 24309998 24295912 24301518 
1275.713 24323524 24358430 24402904 24453762 24506906 24558094 24602028 
1279.088 24633378 24647334 24640918 24612338 24561916 24489868 24395824 
1282.463 24277762 24132830 23958218 23753682 23523186 23276380 23026674 
1285.838 22790626 22586152 22428454 22330808 22303740 22355576 22493598 
1289.214 22725190 23056862 23494118 24039632 24692296 25444654 26281670 
1292.589 27180262 28105778 29015028 29860130 30589648 31160276 31542882 
1295.964 31726378 31720712 31553998 31269152 30912510 30530778 30165718 
1299.339 29848098 29600296 29434926 29355934 29359124 29432764 29560074 
1302.715 29719034 29886218 30040576 30163198 30240100 30262692 30225890 
1306.090 30128926 29974110 29767646 29519040 29240096 28945462 28649294 
1309.465 28364930 28104224 27876598 27690376 27553374 27472852 27455590 
1312.840 27506668 27628330 27819790 28077784 28398498 28778784 29217058 
1316.216 29713572 30269124 30884154 31557988 32289368 33076472 33918056 
1319.591 34812428 35756820 36744696 37762728 38790944 39800424 40754572 
1322.966 41614572 42341184 42901068 43276260 43467788 43501336 43422564 
1326.341 43297384 43198260 43189256 43321032 43617380 44074308 44661696 
1329.717 45333984 46041472 46736748 47387648 47977908 48508060 48992048 
1333.092 49454148 49924920 50434492 51010652 51674488 52436012 53292964 
1336.467 54230024 55222760 56237312 57236048 58182348 59038804 59772296 
1339.842 60357100 60774712 61017584 61088020 60996536 60757524 60386308 
1343.218 59897868 59304220 58615276 57839368 56982668 56050248 55046592 
1346.593 53975868 52844500 51662736 50445248 49213464 47994824 46819444 
1349.968 45722736 44740584 43906928 43255176 42814284 42606344 42648340 
1353.343 42948840 43507856 44313264 45339832 46545728 47868540 49235060 
1356.719 50561040 51758172 52750844 53474756 53885832 53965852 53721788 
1360.094 53187864 52418856 51494384 50509412 49561024 48747060 48143648 
1363.469 47793520 47702724 47841092 48153308 48566008 49003588 49394080 
1366.844 49671192 49787372 49714920 49450440 49012672 48438080 47772732 
1370.219 47059324 46336912 45637120 44982916 44396488 43900216 43517344 
1373.595 43272236 43183512 43258180 43488408 43853224 44325152 44875732 
1376.970 45483852 46137112 46830776 47566952 48352036 49195060 50105868 
1380.345 51093608 52161688 53302928 54491276 55676400 56789840 57743648 
1383.720 58444472 58810996 58775640 58300788 57389476 56099220 54544164 
1387.096 52876872 51270088 49864152 48742200 47927512 47393044 47084472 
1390.471 46935604 46885988 46880716 46869604 46810368 46663768 46398224 
1393.846 45997300 45464500 44823600 44108600 43353252 42578020 41787492 
1397.221 40977760 40147256 39306728 38486212 37728360 37075416 36557156 
1400.597 36181344 35937212 35802944 35757320 35785060 35879156 36039372 
1403.972 36268684 36568296 36936140 37365868 37849052 38377396 38943932 
1407.347 39543068 40170552 40821580 41491264 42175564 42871628 43578808 
1410.722 44298292 45031616 45777408 46529280 47274436 47995708 48675112 
1414.098 49297416 49855308 50350436 50792156 51193952 51571160 51940296 
1417.473 52318072 52726000 53188724 53726252 54349116 55048772 55798532 
1420.848 56560456 57295632 57973584 58572160 59084092 59515260 59884096 
1424.223 60215528 60532736 60851852 61176244 61498924 61806836 62086412 
1427.599 62327036 62522484 62672048 62779464 62852256 62899976 62935552 
1430.974 62974392 63032584 63126220 63266484 63457832 63696876 63974864 
1434.349 64282776 64616464 64984000 65408280 65926068 66571364 67361144 
1437.724 68286480 69312376 70387112 71446936 72427640 73258704 73869752 
1441.100 74204408 74218200 73887304 73207760 72191256 70862688 69255784 
1444.475 67415976 65393724 63238464 61002904 58737972 56500300 54360832 
1447.850 52396760 50680624 49264976 48168376 47379664 46871044 46615184 
1451.225 46593752 46797188 47216920 47832396 48603104 49473980 50371420 
1454.601 51213712 51922928 52427416 52687620 52716576 52592840 52427452 
1457.976 52313892 52303536 52401132 52589808 52850560 53171872 53547876 
1461.351 53971668 54430124 54897900 55337352 55709320 55981188 56143296 
1464.726 56215244 56243008 56280004 56364996 56514412 56720176 56959092 
1468.102 57198516 57403356 57537020 57553812 57399084 57008320 56315120 
1471.477 55277320 53903052 52268856 50498540 48721704 47030080 45460564 
1474.852 44013472 42679264 41459948 40376528 39460368 38734356 38203764 
1478.227 37851544 37648384 37563732 37579080 37691636 37912284 38257100 
1481.603 38738376 39359724 40116652 41001464 42009756 43143476 44408896 
1484.978 45809036 47337244 48966644 50643052 52291352 53810032 55080856 
1488.353 55986164 56412948 56278912 55557092 54289756 52586144 50589964 
1491.728 48449452 46275244 44126936 42027128 39969608 37942764 35950564 
1495.104 34019744 32202364 30565330 29165958 28034660 27167492 26539206 
1498.479 26114602 25862556 25761780 25796588 25953508 26217924 26571824 
1501.854 26994442 27465264 27958362 28442716 28879166 29209298 29359160 
1505.229 29244632 28792202 27979882 26864744 25571716 24231476 22929172 
1508.604 21690110 20502954 19347062 18212344 17103088 16039047 15046617 
1511.980 14146571 13351630 12662077 12069915 11563214 11130388 10761096 
1515.355 10445538 10175217 9943778 9748855 9592362 9478865 9410903 9385237 
1519.212 9391773 9414492 9438906 9458547 9482048 9530106 9625696 9780234 
1523.070 9987953 10230238 10485318 10737797 10982471 11227180 11487984 
1526.445 11782683 12121872 12505384 12925212 13371210 13836718 14320225 
1529.820 14824979 15355789 15915329 16504467 17122148 17767874 18443428 
1533.196 19152480 19897342 20672812 21466762 22259968 23032824 23763868 
1536.571 24433924 25028140 25533096 25941760 26253614 26475846 26619132 
1539.946 26692484 26703548 26658236 26564040 26429644 26260444 26055596 
1543.321 25806116 25500978 25134012 24712112 24255722 23793056 23347664 
1546.697 22926868 22521202 22108350 21666008 21181980 20663916 20137548 
1550.072 19638340 19192718 18807722 18470636 18157686 17847720 17531456 
1553.447 17216734 16923702 16673557 16475109 16318239 16174838 16006697 
1556.822 15770102 15424139 14943003 14334848 13656555 12999667 12448574 
1560.198 12039017 11757456 11565324 11421102 11291007 11149324 10980840 
1563.573 10781612 10560611 10337077 10133667 9969476 9850017 9767763 9705110 
1567.430 9643515 9568617 9477477 9378602 9289972 9230738 9212225 9235578 
1571.288 9293357 9374945 9469484 9567601 9661471 9741840 9800399 9831578 
1575.145 9837916 9833646 9841882 9887878 9984801 10130683 10311629 10510471 
1579.002 10713378 10913287 11110876 11312296 11525785 11757797 12010505 
1582.378 12281562 12564930 12852510 13135330 13404287 13649032 13859330 
1585.753 14026231 14143490 14210861 14234690 14228836 14212334 14206205 
1589.128 14231917 14306356 14442120 14646153 14919718 15256493 15640277 
1592.503 16046714 16440591 16781166 17031028 17158752 17147722 16998914 
1595.879 16730612 16373217 15961010 15528486 15102876 14703046 14342417 
1599.254 14028558 13765335 13553170 13388739 13266320 13178738 13120782 
1602.629 13090525 13089364 13120542 13186697 13286715 13415393 13562810 
1606.004 13716396 13863127 13989307 14081844 14128736 14118160 14040809 
1609.380 13891384 13671190 13389252 13063105 12716868 12374828 12056425 
1612.755 11772742 11524050 11302671 11096124 10892460 10683697 10469873 
1616.130 10260397 10072147 9923064 9825274 9781284 9784266 9822597 9880793 
1619.988 9943778 9998464 10034439 10047596 10041256 10026640 10018977 
1623.363 10032711 10076115 10148590 10243129 10350446 10462271 10573852 
1626.738 10683017 10790104 10896231 11002929 11112542 11227997 11353074 
1630.113 11490978 11642677 11805596 11974127 12138431 12287595 12411614 
1633.489 12502451 12557325 12580927 12587373 12597401 12633115 12710829 
1636.864 12834525 12998130 13188609 13391678 13592586 13778673 13942395 
1640.239 14081057 14198707 14303891 14406907 14514539 14627613 14739687 
1643.614 14838967 14912379 14947906 14940430 14894377 14825767 14757751 
1646.990 14715316 14717921 14773247 14878604 15022503 15188994 15357780 
1650.365 15502937 15595214 15601533 15497134 15285494 15020685 14795015 
1653.740 14684606 14710106 14836841 15010910 15184259 15326921 15426027 
1657.115 15479932 15495589 15481751 15446008 15391147 15314771 15211675 
1660.490 15076152 14904835 14698487 14462844 14208499 13949308 13699195 
1663.866 13469289 13265125 13085335 12921492 12759382 12581916 12370771 
1667.241 12110867 11795245 11427633 11024034 10608008 10205440 9835307 
1670.616 9506466 9217572 8960326 8722738 8490113 8247885 7982674 7687001 
1674.474 7364669 7034932 6727990 6472854 6285768 6163688 6089757 6041440 
1678.331 6000049 5956345 5911535 5874825 5856387 5861492 5884934 5912140 
1682.188 5922989 5901627 5845003 5772436 5721301 5731003 5821025 5982816 
1686.046 6191280 6419517 6649085 6868945 7075344 7268262 7448524 7616891 
1689.903 7774090 7921627 8062396 8199294 8334039 8464096 8581789 8674196 
1693.761 8726694 8727776 8677914 8594125 8508966 8456596 8452406 8487782 
1697.618 8532315 8548536 8497985 8354947 8119783 7828706 7544534 7322444 
1701.476 7183835 7111314 7069652 7020687 6936140 6799808 6607502 6367263 
1705.333 6095671 5814040 5539370 5281074 5041065 4815662 4598580 4383481 
1709.190 4165846 3943237 3716398 3488541 3264510 3048802 2844442 2651778 
1713.048 2468696 2291788 2117848 1944943 1772872 1601833 1432491 1264909 
1716.905 1100449 944418 805605 695012 620579 582754 574692 584115 596524 
1721.245 598912 583252 547819 497228 439546 383762 335545 295987 262335 
1725.584 231171 199645 167226 133882 99943 64085 23989 -21934 -73352 -127712 
1730.406 -181271 -232174 -283468 -343729 -425630 -539815 -687616 -854117 
1734.264 -1011166 -1128800 -1192545 -1207315 -1192214 -1169513 -1157418 
1737.639 -1167861 -1203878 -1260476 -1326250 -1389140 -1439670 -1474642 
1741.014 -1496006 -1508025 -1514596 -1517931 -1519087 -1518558 -1517634 
1744.389 -1517733 -1519384 -1522323 -1524436 -1522983 -1516709 -1505714 
1747.765 -1492704 -1481774 -1476623 -1478769 -1487190 -1497657 -1505186 
1751.140 -1505648 -1496832 -1478836 -1453805 -1424710 -1395085 -1369059 
1754.515 -1351420 -1346201 -1356540 -1381775 -1417775 -1456810 -1490657 
1757.890 -1514596 -1529025 -1539128 -1552236 -1575709 -1612816 -1661141 
1761.266 -1713158 -1758767 -1789489 -1801434 -1796847 -1781173 -1761638 
1764.641 -1743322 -1730089 -1723620 -1724907 -1734115 -1750385 -1771736 
1768.016 -1794933 -1816018 -1833011 -1845713 -1857492 -1873295 -1897642 
1771.391 -1931851 -1971500 -2007253 -2028393 -2028789 -2008803 -1974798 
1774.767 -1936139 -1900974 -1874384 -1856865 -1846406 -1840006 -1836310 
1778.142 -1835881 -1840995 -1853500 -1872800 -1895465 -1915588 -1927958 
1781.517 -1930663 -1926144 -1919811 -1917468 -1923241 -1936964 -1954908 
1784.892 -1971071 -1980768 -1981922 -1975556 -1964738 -1952335 -1940625 
1788.268 -1930663 -1923208 -1920536 -1925946 -1943759 -1976546 -2022984 
1791.643 -2076739 -2127156 -2164347 -2181656 -2180370 -2166259 -2148653 
1795.018 -2135003 -2129860 -2133816 -2145356 -2161841 -2181260 -2202623 
1798.393 -2225962 -2250751 -2275835 -2299039 -2317891 -2331239 -2339313 
1801.769 -2344157 -2347288 -2349463 -2349562 -2345344 -2335094 -2318814 
1805.144 -2298676 -2279065 -2264298 -2257541 -2259486 -2268781 -2282658 
1808.519 -2298380 -2314496 -2330579 -2346267 -2360899 -2372366 -2378199 
1811.894 -2376749 -2368214 -2355395 -2341949 -2332063 -2327844 -2328701 
1815.270 -2331634 -2332524 -2327943 -2316342 -2298643 -2277219 -2254871 
1818.645 -2233445 -2213798 -2195733 -2179084 -2164248 -2152247 -2144466 
1822.020 -2141696 -2144334 -2151752 -2162699 -2175524 -2188414 -2199128 
1825.395 -2205721 -2207007 -2202886 -2195370 -2188348 -2187062 -2196128 
1828.771 -2217820 -2249861 -2285558 -2315848 -2331799 -2329591 -2310805 
1832.146 -2281735 -2250388 -2223028 -2203447 -2191315 -2183831 -2177534 
1835.521 -2170018 -2160457 -2149214 -2136751 -2121814 -2101602 -2073111 
1838.896 -2034230 -1985221 -1929542 -1872470 -1819219 -1773386 -1736227 
1842.271 -1706161 -1680252 -1654210 -1623841 -1586637 -1540581 -1485572 
1845.647 -1422695 -1354558 -1284362 -1217062 -1157154 -1108210 -1072383 
1849.022 -1049444 -1037776 -1035297 -1040552 -1053510 -1074895 -1105269 
1852.397 -1143671 -1187522 -1233153 -1277656 -1319643 -1360504 -1402781 
1855.772 -1449016 -1500134 -1554679 -1609449 -1661339 -1709297 -1754147 
1859.148 -1798596 -1845219 -1894046 -1942836 -1987265 -2022984 -2048180 
1862.523 -2064141 -2075024 -2085576 -2099228 -2116968 -2137377 -2158544 
1865.898 -2179546 -2201864 -2227973 -2259585 -2295842 -2331700 -2359053 
1869.273 -2370719 -2363535 -2339840 -2306916 -2273923 -2247488 -2231105 
1872.649 -2223490 -2221314 -2220820 -2220029 -2219073 -2219732 -2223853 
1876.024 -2231171 -2239873 -2247389 -2251575 -2252630 -2252894 -2255695 
1879.399 -2264134 -2279428 -2300555 -2325010 -2350946 -2377112 -2403474 
1882.774 -2430394 -2457444 -2482385 -2502579 -2515229 -2519611 -2518260 
1886.150 -2515658 -2516778 -2525376 -2541846 -2563257 -2585293 -2603079 
1889.525 -2613684 -2617570 -2616846 -2614508 -2613025 -2613552 -2615924 
1892.900 -2619909 -2625014 -2630843 -2636014 -2638648 -2635882 -2625178 
1896.275 -2605450 -2578244 -2546853 -2516218 -2489402 -2468185 -2451711 
1899.651 -2437709 -2424628 -2412436 -2403177 -2400014 -2404759 -2416654 
1903.026 -2431580 -2444397 -2449768 -2446044 -2434974 -2421860 -2412634 
1906.401 -2412008 -2421300 -2438697 -2460245 -2481627 -2499582 -2512957 
1909.776 -2521258 -2524486 -2522740 -2516020 -2504984 -2491708 -2479156 
1913.152 -2470458 -2467098 -2469569 -2476323 -2486107 -2498824 -2516152 
1916.527 -2541122 -2576499 -2621523 -2671745 -2719756 -2758312 -2783696 
1919.902 -2797819 -2806740 -2818987 -2841800 -2877086 -2921947 -2969140 
1923.277 -3011360 -3043540 -3065584 -3080751 -3093878 -3107958 -3122663 
1926.653 -3135032 -3142138 -3141710 -3134670 -3124407 -3114241 -3106412 
1930.028 -3101477 -3098253 -3095555 -3094799 -3097924 -3108057 -3126907 
1933.403 -3153092 -3181972 -3209304 -3231505 -3248409 -3264359 -3284024 
1936.778 -3310693 -3343771 -3378491 -3407521 -3426489 -3434444 -3435562 
1940.154 -3437896 -3448251 -3469683 -3499890 -3531146 -3555598 -3567297 
1943.529 -3565260 -3551687 -3530752 -3504721 -3473332 -3434905 -3389077 
1946.904 -3338116 -3287674 -3244857 -3214797 -3198056 -3190853 -3186116 
1950.279 -3178025 -3164604 -3149079 -3139374 -3143157 -3165591 -3206805 
1953.655 -3262715 -3327430 -3395652 -3464950 -3534860 -3605088 -3673957 
1957.030 -3737231 -3788869 -3825359 -3846805 -3858234 -3866576 -3878365 
1960.405 -3894161 -3910284 -3918592 -3912024 -3888118 -3851436 -3810415 
1963.780 -3776452 -3757401 -3755725 -3768700 -3790117 -3812977 -3832815 
1967.156 -3848086 -3859088 -3867988 -3877544 -3889957 -3908675 -3938096 
1970.531 -3980418 -4036721 -4103783 -4174017 -4239023 -4292306 -4331248 
1973.906 -4357721 -4376156 -4388719 -4390359 -4370317 -4313926 -4209852 
1977.281 -4058781 -3874063 -3680462 -3504360 -3366655 -3275704 -3228117 
1980.656 -3210324 -3206706 -3205654 -3199700 -3187925 -3173387 -3159769 
1984.032 -3150197 -3147730 -3154736 -3173091 -3204996 -3249100 -3300466 
1987.407 -3352188 -3394798 -3422018 -3432867 -3431880 -3426062 -3423399 
1990.782 -3426949 -3433162 -3434872 -3424056 -3397198 -3357844 -3314737 
1994.157 -3277743 -3254427 -3245548 -3245942 -3247653 -3243344 -3230222 
1997.533 -3210850 -3190853 -3175755 -3168881 -3169670 -3175689 -3184340 
2000.908 -3195589 -3211837 -3236241 -3269785 -3310956 -3353799 -3392792 
2004.283 -3422840 -3443123 -3455812 -3465213 -3474055 -3482042 -3486184 
2007.658 -3483751 -3474614 -3463733 -3457619 -3464128 -3485921 -3520366 
2011.034 -3559607 -3593554 -3613861 -3617016 -3604693 -3581132 -3551325 
2014.409 -3518723 -3483587 -3446574 -3409164 -3373921 -3344823 -3323648 
2017.784 -3308884 -3296257 -3280440 -3258439 -3232162 -3208811 -3197234 
2021.159 -3203417 -3228183 -3264490 -3299644 -3322958 -3327528 -3314376 
2024.535 -3291785 -3269686 -3256137 -3254592 -3262451 -3274784 -3289154 
2027.910 -3304478 -3322859 -3346106 -3372803 -3395620 -3405745 -3392727 
2031.285 -3350807 -3282084 -3194010 -3096246 -2998132 -2905162 -2818427 
2034.660 -2738359 -2666279 -2605351 -2560952 -2537268 -2534533 -2549060 
2038.036 -2572777 -2596557 -2613421 -2620370 -2617801 -2608711 -2596096 
2041.411 -2580813 -2562895 -2541945 -2517799 -2492136 -2467822 -2446011 
2044.786 -2427165 -2409174 -2389008 -2363107 -2329788 -2287767 -2237335 
2048.161 -2177897 -2110076 -2035385 -1958471 -1887679 -1833803 -1806383 
2051.537 -1810937 -1845152 -1899786 -1958866 -2005571 -2028096 -2022721 
2054.912 -1994390 -1954842 -1917633 -1891671 -1880784 -1882599 -1891209 
2058.287 -1900644 -1907374 -1910409 -1910211 -1907539 -1901667 -1890945 
2061.662 -1874120 -1851157 -1823904 -1795758 -1768898 -1744379 -1721376 
2065.038 -1697943 -1673090 -1648499 -1627307 -1613938 -1611000 -1617899 
2068.413 -1630179 -1642360 -1648301 -1644736 -1633084 -1616513 -1599743 
2071.788 -1586802 -1579275 -1575908 -1576436 -1579110 -1584326 -1592678 
2075.163 -1604233 -1617239 -1628958 -1634933 -1632259 -1619781 -1599611 
2078.539 -1574884 -1549397 -1525723 -1504525 -1485374 -1468268 -1453507 
2081.914 -1443237 -1439835 -1443798 -1454630 -1468962 -1482963 -1493332 
2085.289 -1499110 -1501686 -1503799 -1508686 -1517172 -1528002 -1539095 
2088.664 -1547250 -1551609 -1553127 -1554613 -1559301 -1569635 -1585217 
2092.040 -1604431 -1624469 -1641799 -1654375 -1660448 -1659161 -1649490 
2095.415 -1631368 -1605025 -1572375 -1537081 -1503700 -1475996 -1456545 
2098.790 -1445086 -1439208 -1435575 -1431579 -1425800 -1418964 -1412127 
2102.165 -1405654 -1398949 -1390296 -1377118 -1358687 -1336358 -1313036 
2105.541 -1292158 -1276631 -1266159 -1258923 -1251754 -1241743 -1227999 
2108.916 -1212139 -1196543 -1183656 -1174767 -1169083 -1163994 -1157848 
2112.291 -1149157 -1138615 -1127775 -1118654 -1111978 -1108409 -1107087 
2115.666 -1107318 -1109136 -1113002 -1119116 -1127775 -1137789 -1146976 
2119.042 -1154114 -1157848 -1158806 -1158410 -1158410 -1159137 -1160723 
2122.417 -1161384 -1159864 -1156658 -1154213 -1155865 -1165581 -1184779 
2125.792 -1212271 -1245179 -1278812 -1309964 -1338108 -1366020 -1397562 
2129.167 -1437458 -1488676 -1550849 -1621993 -1698207 -1775563 -1850629 
2132.542 -1920206 -1981032 -2029976 -2064471 -2082905 -2087653 -2083532 
2135.918 -2077761 -2077563 -2087390 -2107570 -2134838 -2164116 -2190425 
2139.293 -2211556 -2228764 -2244653 -2261925 -2281537 -2302071 -2321253 
2142.668 -2336545 -2348079 -2356812 -2365051 -2373817 -2381692 -2386240 
2146.043 -2384460 -2375926 -2363930 -2355066 -2357043 -2376123 -2415665 
2149.419 -2473654 -2545799 -2626957 -2712478 -2800420 -2890614 -2981810 
2152.794 -3073480 -3164637 -3254033 -3342291 -3432341 -3524212 -3616227 
2156.169 -3699189 -3756481 -3766401 -3710950 -3581132 -3384935 -3145493 
2159.544 -2893873 -2661701 -2471447 -2331173 -2238423 -2183568 -2153863 
2162.920 -2137575 -2128310 -2120199 -2110010 -2096887 -2079509 -2058799 
2166.295 -2038188 -2021137 -2010617 -2008803 -2014838 -2025656 -2039177 
2169.670 -2052468 -2064768 -2076475 -2087588 -2096656 -2101701 -2099393 
2173.045 -2086994 -2065131 -2037100 -2007945 -1982879 -1965562 -1956458 
2176.421 -1954479 -1958306 -1966948 -1981757 -2004284 -2033967 -2068132 
2179.796 -2100217 -2122408 -2128211 -2115253 -2086302 -2049533 -2013585 
2183.171 -1985221 -1967409 -1958471 -1953820 -1949037 -1941978 -1933006 
2186.546 -1923472 -1914961 -1906351 -1894178 -1874186 -1842480 -1797210 
2189.922 -1740187 -1675202 -1606874 -1539261 -1475368 -1416652 -1364930 
2193.297 -1321163 -1286840 -1263350 -1251424 -1250135 -1256974 -1268769 
2196.672 -1282149 -1293777 -1301507 -1303126 -1298270 -1286641 -1269396 
2200.047 -1249078 -1229816 -1214848 -1208273 -1211114 -1221919 -1236159 
2203.423 -1248714 -1254331 -1249375 -1232955 -1205993 -1170240 -1128205 
2206.798 -1081770 -1032355 -982438 -934103 -889929 -852265 -821840 -797896 
2210.655 -779606 -765086 -753708 -746629 -746001 -753212 -769320 -792637 
2214.513 -819128 -845552 -868072 -885432 -898493 -909239 -919390 -930268 
2218.370 -941245 -950998 -958734 -964586 -969181 -974967 -982901 -992521 
2222.228 -1002406 -1010042 -1013281 -1011827 -1007463 -1002439 -1000389 
2225.603 -1003199 -1011331 -1023727 -1038801 -1053675 -1066896 -1077110 
2228.978 -1083257 -1084811 -1081770 -1074168 -1063393 -1051097 -1039098 
2232.353 -1028884 -1021182 -1014769 -1008488 -1000885 -991331 -979827 
2235.729 -966999 -952651 -935657 -914563 -887747 -854547 -816879 -778217 
2239.586 -742925 -714742 -695324 -683514 -676599 -670909 -663763 -654566 
2243.443 -644508 -634947 -627635 -622837 -619462 -615856 -611257 -604838 
2247.301 -597459 -589948 -582701 -575058 -566289 -555468 -542992 -530383 
2251.158 -519264 -510990 -505761 -501591 -495336 -484844 -469123 -449826 
2255.016 -430628 -415898 -408615 -410403 -419572 -432813 -446781 -458597 
2258.873 -466674 -471274 -472995 -472466 -470778 -468196 -465283 -462900 
2262.730 -461444 -460716 -459855 -456446 -447906 -432912 -411296 -384846 
2266.588 -357236 -332306 -312738 -300057 -293766 -292408 -294693 -300057 
2270.445 -308335 -320155 -335253 -351906 -367731 -379517 -384251 -380212 
2274.303 -367797 -348033 -323499 -297011 -270355 -245685 -223862 -205382 
2278.160 -190280 -177495 -165704 -153416 -138676 -121021 -100417 -77791 
2282.018 -53773 -29090 -2915 25745 58220 94773 134611 175679 214794 249571 
2286.839 278580 301491 319430 333754 345161 354214 361145 366351 371060 
2291.179 377693 388836 406844 433078 466380 504559 544634 584148 621110 
2295.519 655886 689337 723222 758769 796941 837507 879804 923001 965969 
2299.858 1007979 1048432 1086663 1122838 1157455 1191542 1226496 1263580 
2303.716 1303259 1345501 1389276 1432956 1475311 1516073 1555144 1593652 
2307.573 1632763 1673207 1715053 1758300 1801717 1845106 1888033 1930565 
2311.430 1972535 2014043 2054423 2093109 2130101 2165896 2201695 2239828 
2315.288 2282528 2331727 2388762 2453635 2525649 2603642 2685916 2770807 
2319.145 2857315 2944208 3031118 3117411 3202020 3283172 3357929 3421811 
2323.003 3469737 3497226 3501368 3482562 3444487 3394160 3339998 3290383 
2326.860 3252892 3230593 3224117 3230627 3245915 3265545 3286010 3305007 
2330.718 3322168 3337327 3350616 3362069 3372454 3382004 3392790 3406883 
2334.575 3426386 3452937 3487406 3528591 3574458 3622601 3670382 3715662 
2338.432 3757338 3794371 3826593 3854205 3877907 3898535 3917224 3934477 
2342.290 3949322 3959153 3958618 3940696 3898401 3826560 3724786 3599147 
2346.147 3462189 3330382 3221881 3152988 3134999 3173815 3269418 3416567 
2350.005 3605127 3821646 4051718 4281074 4497763 4694262 4867528 5018439 
2353.862 5149317 5263701 5365568 5457124 5541619 5621733 5699277 5774988 
2357.719 5848059 5915331 5972872 6017183 6046211 6060390 6062070 6054544 
2361.577 6041138 6024373 6005223 5983689 5959569 5932227 5900821 5864448 
2365.434 5821394 5769649 5707636 5634723 5551989 5462325 5369728 5277921 
2369.292 5189487 5104961 5023165 4942190 4859587 4774086 4685621 4594763 
2373.149 4502484 4410158 4318554 4228006 4139151 4052888 3969686 3890578 
2377.007 3816298 3747177 3683448 3625441 3574124 3530596 3496457 3472876 
2380.864 3460786 3459850 3469035 3486504 3510286 3538412 3569112 3601152 
2384.721 3633059 3663666 3691802 3716698 3737452 3753995 3766094 3773648 
2388.579 3776322 3773681 3765125 3750653 3730701 3706272 3679004 3650267 
2392.436 3621298 3592432 3563901 3535406 3507346 3480224 3454740 3431896 
2396.294 3412059 3395128 3380969 3369682 3361568 3357662 3359331 3367846 
2400.151 3383373 3405447 3432598 3463458 3497292 3534070 3574758 3621365 
2404.009 3674760 3735480 3803262 3876604 3954104 4034694 4117675 4202981 
2407.866 4290845 4381138 4473827 4568845 4666363 4766884 4871382 4980329 
2411.723 5093193 5208567 5323101 5433202 5535276 5626667 5706092 5773980 
2415.581 5831536 5880333 5921713 5956277 5984327 6005626 6020341 6028875 
2419.438 6031630 6029546 6023096 6012513 5997631 5978347 5954900 5928028 
2423.296 5898705 5868914 5840502 5815450 5795470 5782006 5776096 5778547 
2427.153 5789796 5810078 5839428 5877579 5924199 5978482 6039727 6107264 
2431.010 6180424 6259110 6343391 6433910 6531074 6635526 6746970 6865175 
2434.868 6989035 7117174 7248754 7383070 7520361 7661303 7807048 7958544 
2438.725 8116947 8282872 8456495 8638198 8827821 9025275 9230196 9442292 
2442.583 9660861 9885606 10116234 10352245 10593544 10839767 11089801 
2445.958 11343040 11598469 11855512 12114274 12374964 12638096 12903571 
2449.333 13170473 13436889 13700118 13957348 14206547 14446265 14676243 
2452.708 14896331 15106101 15304749 15490199 15660029 15811713 15942965 
2456.084 16052283 16138624 16201250 16239669 16253119 16241046 16202318 
2459.459 16136287 16042175 15919350 15767388 15586491 15377312 15141816 
2462.834 14882924 14604311 14310500 14005698 13693450 13376711 13057608 
2466.209 12738124 12420513 12107392 11801817 11507751 11228609 10967213 
2469.585 10725978 10506432 10309287 10134854 9983173 9853203 9743805 9652628 
2473.442 9577491 9515509 9464235 9421671 9386220 9356460 9331069 9308083 
2477.300 9285639 9262250 9236424 9208604 9179194 9149922 9122039 9096560 
2481.157 9073519 9052610 9033225 9014754 8997096 8980148 8963540 8946797 
2485.014 8928668 8907969 8884025 8857071 8827686 8797660 8768853 8742008 
2488.872 8717837 8696033 8675547 8656112 8637453 8619777 8603621 8589495 
2492.729 8577126 8566007 8555565 8545123 8534309 8523159 8511500 8499303 
2496.587 8486429 8472037 8455515 8436528 8414501 8389401 8361128 8329344 
2500.444 8294050 8255888 8215332 8174105 8134131 8097030 8064151 8035865 
2504.302 8011328 7989829 7970221 7952166 7935699 7921559 7910087 7900943 
2508.159 7893721 7886939 7879685 7871217 7861837 7851748 7841155 7829651 
2512.016 7816393 7800199 7780161 7756246 7729801 7702482 7676142 7652097 
2515.874 7630278 7609877 7589713 7569180 7548040 7527305 7508494 7492447 
2519.731 7479503 7468985 7459648 7450244 7440503 7430626 7421829 7415729 
2523.589 7413504 7415796 7422773 7433761 7448053 7465109 7483817 7503201 
2527.446 7522316 7539881 7555120 7567764 7578114 7586915 7595075 7603639 
2531.303 7612946 7623298 7634797 7647274 7661067 7676277 7692566 7709868 
2535.161 7727373 7744305 7760294 7775540 7791125 7808397 7828639 7852120 
2539.018 7878471 7906645 7935057 7962358 7988108 8012340 8035832 8059290 
2542.876 8082987 8107326 8132274 8157629 8183559 8210808 8239072 8268553 
2546.733 8298576 8328263 8356535 8383118 8407474 8430075 8451291 8470955 
2550.591 8488761 8504236 8516908 8526504 8534006 8540527 8547556 8556376 
2554.448 8567156 8579627 8592875 8605548 8616769 8625860 8632756 8637048 
2558.305 8638839 8637386 8632181 8623022 8609638 8592502 8572394 8550023 
2562.163 8526098 8501297 8475821 8450143 8424670 8399637 8375416 8352177 
2566.020 8329918 8308302 8287363 8267876 8250013 8235255 8224180 8217527 
2569.878 8214860 8215602 8218709 8223403 8229144 8236032 8244643 8255280 
2573.735 8268147 8282972 8299184 8316138 8333363 8350927 8369032 8387881 
2577.593 8407813 8428724 8450346 8472543 8495349 8518969 8544210 8571989 
2581.450 8602878 8637115 8674568 8714288 8755059 8795834 8835463 8873473 
2585.307 8910066 8945816 8981941 9019930 9060730 9105053 9153069 9203899 
2589.165 9256394 9309200 9361234 9411648 9460240 9507109 9552833 9598155 
2593.022 9643312 9688575 9734215 9779590 9824292 9867676 9909064 9948253 
2596.880 9985851 10022504 10060008 10099820 10143164 10190752 10242281 
2600.255 10296632 10352177 10407696 10462203 10515630 10568386 10621997 
2603.630 10677482 10736438 10799852 10868100 10941523 11019241 11100271 
2607.005 11182946 11265400 11346373 11424912 11501390 11576553 11652002 
2610.381 11728860 11807128 11885818 11962956 12035951 12102792 12162386 
2613.756 12214625 12260533 12300991 12337090 12368793 12395828 12417614 
2617.131 12434287 12446596 12455905 12463782 12471863 12480968 12491130 
2620.506 12502076 12513739 12526187 12540374 12557290 12578095 12603166 
2623.882 12632364 12664636 12698956 12734201 12769892 12806302 12844286 
2627.257 12884730 12928455 12975974 13027219 13081886 13139804 13200120 
2630.632 13262767 13327166 13393079 13459993 13527737 13596175 13665343 
2634.007 13735205 13806105 13878248 13951976 14027599 14104947 14184363 
2637.383 14264992 14346697 14428624 14509778 14589473 14667126 14742326 
2640.758 14815173 14886284 14956000 15025212 15094677 15165078 15236452 
2644.133 15309382 15383285 15457682 15531989 15605415 15677376 15748249 
2647.508 15818518 15889276 15961938 16037500 16116926 16200356 16287312 
2650.884 16377140 16468983 16561877 16655276 16748589 16841646 16934242 
2654.259 17026444 17118632 17211598 17306098 17403106 17502998 17605912 
2657.634 17711580 17818756 17926650 18034190 18140584 18245344 18348434 
2661.009 18449652 18548746 18645476 18739392 18830352 18918492 19004296 
2664.385 19088354 19171456 19254506 19337884 19422038 19507284 19593552 
2667.760 19681120 19769884 19859674 19950452 20042186 20134460 20227450 
2671.135 20320978 20415048 20509450 20603804 20697624 20790454 20881810 
2674.510 20971724 21059920 21146426 21231280 21314272 21395226 21474038 
2677.885 21551122 21627244 21703274 21780364 21859630 21941416 22026044 
2681.261 22113300 22203472 22297148 22395484 22499810 22611702 22732140 
2684.636 22862042 23001066 23149150 23305292 23468902 23639400 23815912 
2688.011 23997748 24183762 24373148 24565036 24759254 24956052 25156060 
2691.386 25360028 25568588 25781854 25999730 26221480 26446688 26675008 
2694.762 26906198 27140686 27378900 27621056 27867376 28117690 28371898 
2698.137 28629792 28891100 29155504 29422516 29691184 29960904 30230828 
2701.512 30500244 30768476 31035022 31299702 31561836 31820956 32076452 
2704.887 32327454 32573100 32812100 33042864 33263444 33471360 33663588 
2708.263 33838208 33993296 34128440 34244044 34341400 34422016 34487160 
2711.638 34537420 34572756 34592316 34595256 34581084 34549368 34500540 
2715.013 34435144 34353804 34257168 34145716 34019312 33878256 33723100 
2718.388 33554544 33373956 33183466 32985304 32781870 32575530 32368362 
2721.764 32162148 31958598 31759568 31566824 31382184 31207732 31045130 
2725.139 30895680 30760046 30638676 30531312 30438152 30358940 30294028 
2728.514 30243864 30208342 30187386 30180210 30185574 30202020 30228340 
2731.889 30263616 30307422 30359972 30421306 30491464 30569988 30655744 
2735.265 30747528 30844134 30944424 31047798 31153904 31262316 31372354 
2738.640 31483136 31593088 31700540 31804450 31903822 31998188 32088186 
2742.015 32174386 32257284 32338090 32417342 32495714 32573496 32651536 
2745.390 32730024 32809454 32890114 32971754 33054516 33138010 33222024 
2748.766 33306372 33390988 33475764 33560628 33645688 33730656 33815716 
2752.141 33900536 33985412 34070664 34157040 34245588 34337560 34434432 
2755.516 34537064 34646208 34761920 34883480 35009560 35138588 35268844 
2758.891 35398488 35526264 35650732 35770560 35884452 35991024 36088476 
2762.267 36175296 36249452 36309064 36352944 36379964 36389620 36382052 
2765.642 36358528 36320268 36269296 36207672 36137196 36059280 35975544 
2769.017 35887112 35795748 35703288 35611708 35523204 35439616 35362036 
2772.392 35291088 35226616 35168660 35116532 35070224 35029856 34995588 
2775.768 34967396 34944524 34925992 34910156 34894720 34877160 34854936 
2779.143 34825280 34785864 34734748 34670396 34591812 34499356 34394116 
2782.518 34278360 34155108 34027840 33900000 33774528 33653780 33538758 
2785.893 33429564 33325512 33225492 33128462 33033352 32939366 32846618 
2789.269 32755070 32664790 32576028 32488682 32402954 32319066 32237760 
2792.644 32159794 32086332 32017950 31954962 31896870 31842456 31790406 
2796.019 31738930 31686674 31632644 31576410 31517692 31456418 31392228 
2799.394 31324916 31254444 31180960 31104746 31026482 30946594 30865264 
2802.770 30782312 30696780 30607816 30514712 30417184 30315558 30211148 
2806.145 30105236 29999460 29895340 29793338 29694234 29598062 29504784 
2809.520 29414824 29328710 29247504 29172230 29104304 29044396 28993350 
2812.895 28951342 28917626 28891418 28871728 28857176 28847190 28841276 
2816.271 28839718 28843048 28852324 28868862 28894216 28930092 28977870 
2819.646 29039082 29114650 29205044 29309992 29428296 29558372 29698634 
2823.021 29847246 30003044 30165186 30333180 30506500 30684120 30864836 
2826.396 31046482 31226602 31402596 31571958 31732582 31882678 32021086 
2829.771 32146842 32259672 32359474 32446582 32521818 32586244 32640964 
2833.147 32687190 32726380 32760180 32790658 32820318 32852304 32889042 
2836.522 32932896 32985266 33046938 33118092 33198882 33290562 33395138 
2839.897 33515744 33656856 33822556 34017628 34246484 34514136 34825640 
2843.272 35188064 35609660 36099532 36667752 37323080 38070964 38911932 
2846.648 39838920 40835956 41875128 42918956 43921740 44829404 45589752 
2850.023 46155868 46490152 46572912 46401428 45992216 45374852 44591268 
2853.398 43689812 42717140 41719208 40736264 39799152 38932152 38150404 
2856.773 37461284 36865584 36358708 35932244 35575532 35276568 35024788 
2860.149 34809880 34623744 34460432 34315508 34186724 34073136 33974628 
2863.524 33891760 33825528 33777248 33747772 33738820 33752144 33789388 
2866.899 33852536 33943348 34062060 34208408 34380344 34574588 34786040 
2870.274 35009024 35236896 35462264 35678216 35878728 36058884 36215920 
2873.650 36350028 36463704 36561804 36650376 36736620 36826452 36924596 
2877.025 37034532 37157736 37295096 37446404 37611600 37790596 37982936 
2880.400 38188716 38407764 38639600 38883556 39137980 39400828 39669024 
2883.775 39938296 40203736 40460320 40702640 40926568 41129044 41309060 
2887.151 41467604 41607644 41734492 41854480 41974680 42103056 42246076 
2890.526 42410884 42604148 42832568 43105384 43434060 43832992 44320452 
2893.901 44917216 45643672 46519432 47557484 48760628 50116464 51595752 
2897.276 53148804 54703672 56178780 57482172 58524120 59234640 59566376 
2900.652 59505148 59069896 58309620 57295024 56102616 54813384 53499452 
2904.027 52217288 51013672 49920016 48956516 48134912 47460012 46932024 
2907.402 46547868 46303220 46193900 46216236 46367472 46645620 47047952 
2910.777 47570756 48207804 48949544 49783548 50693060 51657024 52650888 
2914.153 53644928 54606232 55503020 56303920 56984592 57529908 57934584 
2917.528 58203300 58347440 58382912 58324928 58185188 57971464 57685824 
2920.903 57326896 56891476 56377256 55784516 55118772 54390124 53614264 
2924.278 52811496 52003260 51211924 50458164 49758204 49124596 48564640 
2927.654 48081016 47672324 47333772 47058476 46836940 46658972 46513900 
2931.029 46390148 46276940 46163904 46040840 45899252 45731612 45532164 
2934.404 45297356 45025700 44718104 44377116 44006724 43611372 43195444 
2937.779 42763756 42320912 41872320 41424444 40984640 40560236 40158956 
2941.155 39787024 39448432 39145124 38876236 38638552 38425828 38230544 
2944.530 38043260 37853352 37651128 37428092 37178492 36900756 36597816 
2947.905 36276356 35945452 35616064 35298564 35000976 34729224 34486080 
2951.280 34271760 34084136 33919344 33772668 33638600 33511770 33387374 
2954.656 33261370 33130716 32993704 32849442 32697442 32537996 32371394 
2958.031 32198544 32020912 31840534 31659372 31479966 31304546 31134290 
2961.406 30970718 30814786 30667442 30530208 30404852 30293104 30196266 
2964.781 30115358 30050304 30000736 29966158 29945852 29939570 29947342 
2968.156 29968926 30004146 30052328 30112838 30185396 30270046 30367364 
2971.532 30478314 30603728 30743544 30896428 31059436 31227600 31394188 
2974.907 31551186 31688672 31796038 31863208 31880430 31841066 31741600 
2978.282 31583004 31370432 31112934 30822790 30512544 30195164 29882774 
2981.657 29584904 29309320 29061258 28842800 28653860 28491646 28351100 
2985.033 28226194 28110870 28000202 27891544 27784538 27681052 27584088 
2988.408 27496184 27418286 27348092 27280698 27208552 27122486 27014364 
2991.783 26877998 26710984 26515468 26297652 26067488 25835304 25611640 
2995.158 25404746 25219158 25056290 24914536 24790720 24681002 24581692 
2998.534 24490500 24405742 24326432 24252324 24183236 24119204 24060644 
3001.909 24007764 23961334 23921490 23888266 23860926 23838524 23819902 
3005.284 23803942 23790258 23778776 23769816 23763798 23761068 23761698 
3008.659 23765372 23772092 23781296 23792916 23806846 23822842 23840344 
3012.035 23859038 23878290 23897822 23917990 23939102 23962314 23988750 
3015.410 24018970 24053534 24092514 24135352 24181554 24230496 24281476 
3018.785 24334074 24387726 24441880 24496040 24549748 24602414 24653436 
3022.160 24702678 24749748 24794754 24837696 24879028 24918958 24958366 
3025.536 24998060 25038740 25081460 25126710 25175266 25227200 25282300 
3028.911 25339690 25398564 25457304 25514858 25570450 25623486 25674312 
3032.286 25723246 25770570 25816630 25861078 25903950 25945032 25984744 
3035.661 26023934 26063866 26105664 26150214 26197758 26247878 26300010 
3039.037 26353908 26409432 26467078 26527794 26592042 26660000 26731350 
3042.412 26805248 26880746 26957316 27034534 27112470 27191092 27270008 
3045.787 27348834 27426790 27503632 27580064 27656862 27735582 27817282 
3049.162 27902462 27990272 28079020 28167042 28252680 28335290 28414946 
3052.538 28492176 28567472 28641154 28712620 28781756 28848428 28913552 
3055.913 28978756 29046202 29117662 29193988 29275290 29360118 29446912 
3059.288 29534078 29620694 29706580 29792168 29877842 29963958 30050942 
3062.663 30138692 30227170 30316838 30407730 30500350 30594768 30690876 
3066.039 30788214 30886430 30985308 31084422 31183916 31283430 31382896 
3069.414 31481710 31579726 31676978 31773790 31871088 31969622 32070208 
3072.789 32173030 32277804 32383960 32490824 32598208 32706090 32814492 
3076.164 32923356 33032350 33140584 33247310 33351738 33454220 33555368 
3079.540 33656608 33759628 33865432 33974664 34087116 34202104 34318732 
3082.915 34435972 34552992 34668820 34782632 34893712 35001372 35105792 
3086.290 35207536 35308268 35409668 35513820 35622140 35735268 35853000 
3089.665 35974680 36099172 36225464 36352728 36480604 36608484 36736008 
3093.041 36863024 36989284 37114716 37239964 37365688 37492996 37622840 
3096.416 37756224 37893264 38034040 38177788 38323180 38468508 38611932 
3099.791 38752104 38887580 39018744 39146140 39271616 39397236 39524200 
3103.166 39653488 39785104 39917992 40051356 40184220 40316576 40449040 
3106.542 40582572 40718072 40855756 40995748 41136952 41278156 41418648 
3109.917 41557252 41693568 41827368 41958660 42087688 42215040 42341440 
3113.292 42468172 42596588 42727412 42861092 42997560 43135608 43274068 
3116.667 43411836 43548512 43684388 43820200 43957044 44095212 44234964 
3120.042 44375428 44515196 44653360 44788776 44921112 45050800 45178292 
3123.418 45304456 45429992 45555716 45681768 45808664 45937004 46067476 
3126.793 46200868 46337540 46477796 46621120 46766488 46912240 47056632 
3130.168 47197968 47335508 47469212 47600076 47729420 47859216 47990752 
3133.543 48125064 48262084 48401556 48542960 48685380 48828620 48972464 
3136.919 49116988 49261932 49407256 49552520 49697904 49843336 49988932 
3140.294 50135056 50281940 50429580 50577532 50725604 50873096 51020008 
3143.669 51166480 51312628 51458868 51605712 51753320 51902056 52052224 
3147.044 52204244 52358408 52514828 52672844 52831592 52989680 53146032 
3150.420 53300344 53453020 53605080 53758240 53913368 54070280 54227844 
3153.795 54383928 54536128 54682964 54824364 54961484 55096992 55233636 
3157.170 55373820 55519024 55669432 55824076 55981264 56139376 56296564 
3160.545 56451772 56604316 56754272 56901976 57048368 57194360 57340396 
3163.921 57486708 57632884 57778240 57922088 58064012 58203752 58341680 
3167.296 58478364 58613796 58747832 58879976 59009652 59136596 59260920 
3170.671 59383340 59504732 59625780 59746784 59867328 59986836 60104480 
3174.046 60219676 60332164 60442052 60549228 60653880 60755924 60855516 
3177.422 60953032 61049312 61145304 61241668 61338892 61435984 61532292 
3180.797 61626560 61718028 61806988 61894444 61981412 62069208 62158320 
3184.172 62248480 62339196 62429280 62518388 62605984 62691720 62775216 
3187.547 62856084 62933868 63008292 63080088 63150860 63221908 63295008 
3190.923 63370636 63447984 63525372 63600892 63673048 63741884 63808316 
3194.298 63874140 63940928 64009076 64077964 64146056 64212084 64275012 
3197.673 64335220 64393780 64451740 64509660 64567940 64625500 64681560 
3201.048 64736284 64790100 64843952 64899044 64955412 65012404 65068400 
3204.424 65121868 65171412 65217308 65260008 65300828 65340684 65380236 
3207.799 65419184 65457664 65495960 65534876 65575220 65617688 65662048 
3211.174 65706952 65750048 65789252 65823608 65853068 65879636 65905428 
3214.549 65932736 65962316 65993904 66026040 66057244 66086412 66113992 
3217.925 66141084 66169716 66201784 66238524 66280396 66327020 66377328 
3221.300 66429952 66483656 66537140 66589124 66638528 66684776 66727428 
3224.675 66766760 66803472 66838288 66872456 66906816 66942684 66981116 
3228.050 67023292 67069768 67120968 67176232 67233864 67292160 67348800 
3231.426 67403008 67454528 67504680 67555088 67607416 67662632 67720296 
3234.801 67779432 67838800 67897032 67953984 68009976 68065352 68120816 
3238.176 68176752 68233128 68289848 68347432 68406112 68466360 68528272 
3241.551 68590896 68653024 68712832 68769232 68822144 68873432 68925072 
3244.927 68980456 69042336 69111472 69187672 69269392 69354240 69440152 
3248.302 69525344 69608760 69689472 69767136 69840944 69910336 69975104 
3251.677 70035096 70090928 70143536 70193928 70242888 70290952 70338368 
3255.052 70385000 70430672 70474864 70517264 70557456 70594992 70629528 
3258.427 70661728 70692032 70721544 70751024 70780784 70810656 70839408 
3261.803 70865344 70886488 70901544 70909576 70910744 70905944 70896544 
3265.178 70883992 70870176 70856368 70843736 70832848 70823688 70816000 
3268.553 70808904 70801224 70792128 70780704 70766432 70748960 70727552 
3271.928 70702088 70671872 70636744 70596944 70553560 70507640 70460952 
3275.304 70414544 70368712 70323912 70279304 70234552 70189456 70144584 
3278.679 70100040 70056240 70013184 69970008 69926288 69881768 69836704 
3282.054 69792032 69749432 69710056 69674384 69642488 69613232 69585584 
3285.429 69558984 69532424 69506128 69480000 69453640 69426816 69399024 
3288.805 69370328 69341608 69314360 69290064 69270088 69255128 69244128 
3292.180 69236208 69230176 69225984 69224192 69226720 69235072 69250272 
3295.555 69272072 69299232 69329944 69363064 69398008 69435216 69476000 
3298.930 69521568 69571936 69626536 69684112 69743080 69802848 69863320 
3302.306 69924976 69989272 70056816 70128232 70203672 70282928 70366144 
3305.681 70453272 70544552 70639936 70739136 70842056 70948120 71057336 
3309.056 71169656 71285096 71403264 71523336 71643984 71764248 71883600 
3312.431 72002504 72122824 72246696 72375920 72511304 72651896 72795504 
3315.807 72939320 73081024 73219056 73353048 73483584 73611416 73736504 
3319.182 73858984 73977936 74092824 74203376 74309880 74412664 74512176 
3322.557 74608208 74700672 74789504 74875352 74959768 75044200 75130384 
3325.932 75218744 75308152 75396432 75480480 75557752 75626720 75686712 
3329.308 75738384 75782928 75820840 75852208 75876312 75892456 75899752 
3332.683 75897856 75885984 75863968 75831328 75787656 75733376 75669160 
3336.058 75596520 75517736 75434552 75348032 75258104 75163912 75063696 
3339.433 74955872 74839648 74714168 74579128 74434496 74279448 74113456 
3342.809 73936640 73748872 73551448 73345440 73132072 72911216 72682680 
3346.184 72445296 72198448 71942792 71679944 71412992 71145384 70879776 
3349.559 70618104 70360424 70106040 69853512 69601688 69349608 69096872 
3352.934 68843344 68589152 68334752 68081248 67830096 67583264 67343112 
3356.310 67111296 66888572 66674536 66468096 66267660 66072404 65882488 
3359.685 65698428 65521656 65352784 65191740 65037072 64887152 64739788 
3363.060 64593276 64447044 64301288 64156888 64015448 63878244 63747144 
3366.435 63623368 63508144 63401392 63302940 63210720 63122196 63034804 
3369.811 62946052 62854400 62759556 62662324 62563048 62461876 62358244 
3373.186 62250084 62135764 62013212 61880764 61737468 61582460 61414608 
3376.561 61232400 61034436 60819608 60587704 60339208 60075140 59797048 
3379.936 59505644 59200460 58880772 58545240 58193032 57824148 57440000 
3383.312 57042172 56632964 56214264 55787228 55352744 54911248 54463100 
3386.687 54009112 53550388 53088404 52624740 52161200 51698712 51238468 
3390.062 50780612 50325504 49872664 49421960 48973540 48528256 48086900 
3393.437 47650764 47220612 46796528 46377540 45962196 45548832 45136560 
3396.813 44725376 44316268 43910740 43510092 43114456 42722840 42333404 
3400.188 41944024 41553276 41161100 40768804 40378640 39992968 39613120 
3403.563 39239156 38869964 38503772 38138756 37773972 37409024 37044740 
3406.938 36682104 36322176 35966044 35614408 35267296 34924988 34587360 
3410.313 34253868 33924288 33597716 33273820 32952666 32634500 32320492 
3413.689 32012102 31710412 31416342 31130090 30851070 30577988 30309588 
3417.064 30044338 29780776 29517870 29255054 28992074 28729504 28469038 
3420.439 28212510 27962320 27721136 27489900 27269338 27058442 26854980 
3423.814 26656476 26460106 26263718 26065658 25865652 25663310 25459588 
3427.190 25255714 25052324 24850782 24652070 24456392 24263570 24073322 
3430.565 23884766 23697482 23511152 23325990 23142824 22962638 22785912 
3433.940 22612888 22443424 22276744 22112324 21949990 21790190 21632954 
3437.315 21479120 21328228 21179440 21031226 20881532 20729178 20573648 
3440.691 20415638 20256852 20099720 19946428 19797940 19654286 19513488 
3444.066 19373150 19230468 19083298 18930778 18774334 18616458 18460610 
3447.441 18310796 18169568 18038474 17917086 17803290 17694496 17587762 
3450.816 17480194 17370136 17256656 17139174 17017968 16893696 16767185 
3454.192 16639678 16512278 16386362 16262716 16141754 16023438 15907183 
3457.567 15791509 15675556 15558775 15440619 15321498 15201793 15082396 
3460.942 14963957 14847402 14733414 14622507 14515773 14412868 14313924 
3464.317 14218153 14124458 14031637 13938701 13844791 13749876 13654230 
3467.693 13558263 13462795 13368442 13275715 13185331 13097935 13013699 
3471.068 12932381 12852920 12773782 12693292 12610295 12524107 12436060 
3474.443 12348543 12263907 12184910 12112911 12047874 11987990 11930941 
3477.818 11874104 11815061 11752792 11686550 11616880 11544975 11472402 
3481.194 11401577 11334980 11275500 11225277 11185055 11154185 11130014 
3484.569 11108904 11086673 11060094 11027772 10989607 10947708 10904963 
3487.944 10864058 10827334 10796082 10770437 10750296 10734978 10723736 
3491.319 10716027 10710864 10707706 10706042 10705567 10706891 10710491 
3494.695 10717963 10730155 10747443 10770063 10797373 10829168 10865247 
3498.070 10905779 10951581 11003370 11061385 11125119 11193792 11266182 
3501.445 11341305 11418993 11499858 11585264 11677257 11777610 11887623 
3504.820 12007746 12137750 12276211 12421297 12571069 12723248 12876163 
3508.196 13029131 13182564 13337793 13497247 13663325 13837437 14020139 
3511.571 14210827 14407593 14608526 14811985 15015746 15218299 15417616 
3514.946 15611288 15796594 15971322 16133776 16284456 16424624 16556611 
3518.321 16682440 16802900 16916570 17020344 17109980 17181538 17232006 
3521.697 17260828 17268482 17257208 17229454 17186984 17130558 17059182 
3525.072 16970762 16861934 16729580 16570689 16384020 16170228 15932102 
3528.447 15674388 15402648 15122122 14837287 14550651 14263520 13976715 
3531.822 13690510 13404664 13118596 12831420 12540749 12244582 11940920 
3535.198 11629574 11312636 10994059 10679316 10373555 10080286 9800906 
3538.573 9534746 9279749 9033902 8795462 8563676 8337957 8117554 7901010 
3542.430 7686597 7472255 7256672 7039613 6822224 6606391 6394600 6189096 
3546.288 5991617 5804335 5628446 5465244 5315185 5177147 5048507 4925333 
3550.145 4803031 4676879 4544904 4406878 4265314 4124165 3987743 3858819 
3554.002 3738588 3626310 3519706 3416567 3315457 3215171 3115409 3016237 
3557.860 2917755 2819829 2722491 2625909 2530515 2437041 2346218 2258646 
3561.717 2174155 2092077 2011480 1929599 1843509 1749916 1645202 1527012 
3565.575 1394927 1252249 1104833 961951 833158 724981 640323 577479 530800 
3569.914 493845 460210 425583 387410 344996 298507 248510 195236 139185 
3574.254 80390 19781 -41978 -104094 -165804 -227173 -288567 -349589 -410138 
3578.594 -468494 -522573 -570160 -609635 -640836 -665550 -686259 -706174 
3582.451 -727973 -753609 -784038 -820418 -864136 -917142 -981843 -1059360 
3586.308 -1149124 -1246633 -1344748 -1434188 -1506341 -1556627 -1584887 
3589.684 -1595616 -1595881 -1593603 -1595616 -1606213 -1627208 -1657841 
3593.059 -1695831 -1737811 -1780315 -1821100 -1858449 -1891869 -1921031 
3596.434 -1946233 -1967179 -1984132 -1997622 -2008770 -2018664 -2029317 
3599.809 -2042343 -2058338 -2077233 -2098568 -2120891 -2143147 -2164710 
3603.185 -2186205 -2208557 -2233643 -2263474 -2299632 -2343400 -2394511 
3606.560 -2451909 -2512660 -2572250 -2626002 -2669670 -2701283 -2721863 
3609.935 -2735429 -2747578 -2764205 -2788568 -2820534 -2857336 -2892885 
3613.310 -2920400 -2935671 -2937613 -2928563 -2914213 -2900455 -2892688 
3616.686 -2894597 -2907762 -2931195 -2963250 -3000402 -3038769 -3074171 
3620.061 -3102497 -3120690 -3128058 -3125690 -3117005 -3106313 -3098385 
3623.436 -3095917 -3100359 -3110787 -3125591 -3144309 -3168519 -3202989 
3626.811 -3254493 -3328054 -3424188 -3533512 -3638012 -3715845 -3750535 
3630.187 -3738151 -3687033 -3613401 -3534038 -3462320 -3407389 -3371357 
3633.562 -3352418 -3345054 -3343771 -3344133 -3345021 -3347256 -3353602 
3636.937 -3366293 -3386381 -3413011 -3444142 -3477177 -3509520 -3539527 
3640.312 -3566114 -3589183 -3608571 -3624968 -3638669 -3650169 -3660486 
3643.688 -3671230 -3683748 -3700010 -3722514 -3753623 -3795602 -3850287 
3647.063 -3918395 -3997589 -4083399 -4168701 -4243616 -4298671 -4326032 
3650.438 -4321570 -4286598 -4227144 -4152488 -4073092 -3998410 -3936586 
3653.813 -3892617 -3868612 -3863160 -3872159 -3888414 -3904209 -3913666 
3657.188 -3914060 -3906179 -3893307 -3879383 -3867430 -3859121 -3855016 
3660.564 -3854293 -3856395 -3860599 -3866412 -3873735 -3882109 -3891074 
3663.939 -3899973 -3907723 -3913929 -3918231 -3921416 -3924633 -3930478 
3667.314 -3941577 -3960653 -3988987 -4024115 -4059404 -4083202 -4081463 
3670.689 -4043615 -3965578 -3852520 -3715418 -3570222 -3432965 -3317795 
3674.065 -3236898 -3197431 -3199437 -3235780 -3294185 -3363696 -3437830 
3677.440 -3515502 -3598220 -3686770 -3779179 -3869958 -3951690 -4018173 
3680.815 -4065970 -4095938 -4111528 -4117732 -4118191 -4115401 -4110380 
3684.190 -4104012 -4098268 -4096594 -4103192 -4121572 -4153407 -4197153 
3687.566 -4247554 -4296670 -4336333 -4360837 -4368152 -4359099 -4336070 
3690.941 -4301722 -4257955 -4206570 -4150749 -4094165 -4041350 -3997031 
3694.316 -3963739 -3942496 -3932120 -3929789 -3932120 -3936750 -3942496 
3697.691 -3949687 -3960095 -3974968 -3995685 -4022014 -4052084 -4082480 
3701.067 -4109657 -4129515 -4139361 -4137818 -4125970 -4105883 -4080806 
3704.442 -4054086 -4028514 -4006355 -3988462 -3975428 -3967121 -3964101 
3707.817 -3966859 -3977069 -3996637 -4026938 -4068628 -4120029 -4177167 
3711.192 -4233609 -4281841 -4314484 -4327574 -4319930 -4294964 -4258381 
3714.568 -4217104 -4177364 -4144382 -4120686 -4106539 -4100172 -4098071 
3717.943 -4097218 -4095216 -4091703 -4087962 -4086091 -4088191 -4094986 
3721.318 -4105653 -4117732 -4128629 -4135882 -4138146 -4136079 -4130991 
3724.693 -4124296 -4116681 -4107459 -4094953 -4076736 -4051362 -4018830 
3728.069 -3981436 -3943678 -3910645 -3888874 -3882930 -3895606 -3926144 
3731.444 -3969387 -4018271 -4064492 -4102634 -4131221 -4153932 -4175888 
3734.819 -4201714 -4231804 -4262220 -4285318 -4294406 -4285942 -4261302 
3738.194 -4225865 -4185404 -4144841 -4106999 -4073289 -4044731 -4024772 
3741.570 -4019815 -4039150 -4092656 -4185109 -4310351 -4447100 -4563546 
3744.945 -4628919 -4630493 -4577119 -4491833 -4400462 -4323407 -4274163 
3748.320 -4257594 -4270554 -4303953 -4346994 -4390260 -4427094 -4454218 
3751.695 -4469238 -4468549 -4449397 -4410957 -4356376 -4293127 -4231148 
3755.071 -4179924 -4146187 -4132042 -4135521 -4151208 -4172442 -4193772 
3758.446 -4212313 -4227046 -4236791 -4239613 -4232066 -4210935 -4175657 
3761.821 -4129416 -4078574 -4032027 -3997228 -3978153 -3974115 -3979138 
3765.196 -3985080 -3984325 -3973392 -3954185 -3933171 -3917935 -3914553 
3768.572 -3925323 -3948340 -3977890 -4005993 -4026840 -4037082 -4037246 
3771.947 -4030418 -4020996 -4013347 -4009802 -4011509 -4017352 -4025034 
3775.322 -4031501 -4034390 -4032388 -4027332 -4021817 -4019716 -4024017 
3778.697 -4035079 -4050180 -4063967 -4070236 -4064886 -4047390 -4020931 
3782.073 -3990661 -3962623 -3940592 -3925816 -3916392 -3909135 -3900597 
3785.448 -3889104 -3875344 -3862306 -3853735 -3852717 -3860500 -3876559 
3788.823 -3898791 -3923517 -3947487 -3967384 -3981174 -3987609 -3987149 
3792.198 -3981633 -3974771 -3970405 -3972703 -3984260 -4004713 -4030681 
3795.573 -4055957 -4073191 -4076474 -4064065 -4038592 -4007537 -3980156 
3798.949 -3965479 -3970963 -3998640 -4044633 -4098170 -4144579 -4168536 
3802.324 -4161579 -4124394 -4066593 -4002415 -3946108 -3910382 -3902896 
3805.699 -3924601 -3968960 -4022999 -4071254 -4100697 -4106342 -4091146 
3809.074 -4063245 -4031239 -4001857 -3977529 -3958355 -3941872 -3926801 
3812.450 -3914126 -3908018 -3914191 -3938228 -3982519 -4043451 -4110905 
3815.825 -4169554 -4204372 -4207259 -4179563 -4130991 -4076014 -4030221 
3819.200 -4005796 -4009769 -4041645 -4091966 -4143660 -4177528 -4181105 
3822.575 -4151668 -4097054 -4030418 -3967187 -3919873 -3895244 -3894686 
3825.951 -3913042 -3941675 -3969781 -3990005 -3999329 -4000018 -3997786 
3829.326 -3998475 -4006978 -4024936 -4049655 -4075620 -4095675 -4103093 
3832.701 -4093246 -4065444 -4022474 -3971127 -3920135 -3879285 -3857282 
3836.076 -3858464 -3883028 -3924043 -3971028 -4011049 -4034948 -4039183 
3839.452 -4026840 -4005239 -3982618 -3965217 -3956713 -3956516 -3961901 
3842.827 -3969419 -3976117 -3979729 -3979959 -3976577 -3970109 -3960916 
3846.202 -3949687 -3936717 -3922631 -3907000 -3889432 -3868612 -3843784 
3849.577 -3815801 -3788507 -3769522 -3769324 -3799084 -3866510 -3970010 
3852.953 -4094395 -4211558 -4292864 -4320947 -4296801 -4235151 -4155967 
3856.328 -4076703 -4007602 -3953134 -3912484 -3882831 -3860664 -3843521 
3859.703 -3831468 -3825523 -3827297 -3838037 -3858004 -3886280 -3921580 
3863.078 -3960817 -4000018 -4033208 -4053200 -4053495 -4030845 -3987806 
3866.454 -3932908 -3878530 -3838792 -3824078 -3839022 -3878562 -3929821 
3869.829 -3973425 -3992763 -3980911 -3943218 -3893504 -3847068 -3816885 
3873.204 -3808214 -3818626 -3839383 -3859121 -3868513 -3863883 -3847429 
3876.579 -3825885 -3807689 -3800003 -3807196 -3829924 -3865590 -3907394 
3879.955 -3946863 -3975330 -3985737 -3974935 -3944565 -3900597 -3851929 
3883.330 -3808116 -3777898 -3766500 -3773102 -3790806 -3807590 -3811597 
3886.705 -3794682 -3757204 -3705924 -3652929 -3610181 -3587573 -3590399 
3890.080 -3617936 -3662951 -3714038 -3759207 -3790051 -3802729 -3799346 
3893.456 -3784828 -3765317 -3744589 -3725536 -3708684 -3694491 -3682467 
3896.831 -3673267 -3667945 -3667320 -3671986 -3681809 -3695312 -3711114 
3900.206 -3728164 -3746002 -3765120 -3786569 -3810415 -3835869 -3860139 
3903.581 -3878726 -3886871 -3880927 -3859482 -3823815 -3777668 -3726160 
3906.957 -3674417 -3627071 -3587836 -3558424 -3539823 -3531508 -3531935 
3910.332 -3538968 -3549649 -3561710 -3572489 -3580639 -3585700 -3587902 
3913.707 -3588625 -3589380 -3591352 -3595098 -3600224 -3605548 -3609524 
3917.082 -3610740 -3608834 -3603872 -3596774 -3588000 -3578306 -3567560 
3920.458 -3555532 -3542255 -3528484 -3516093 -3507318 -3504491 -3509191 
3923.833 -3520826 -3537259 -3554875 -3569269 -3576959 -3576794 -3569269 
3927.208 -3557438 -3544259 -3533315 -3526643 -3525197 -3528057 -3534137 
3930.583 -3541433 -3548269 -3553560 -3556682 -3557241 -3555203 -3550964 
3933.958 -3545180 -3538541 -3532198 -3526775 -3522535 -3519183 -3515863 
3937.334 -3511229 -3504919 -3496504 -3486972 -3477999 -3471852 -3469617 
3940.709 -3472247 -3479182 -3488944 -3498838 -3506233 -3509290 -3506200 
3944.084 -3497195 -3483291 -3466330 -3448875 -3433524 -3422544 -3417153 
3947.459 -3417547 -3421755 -3427508 -3431782 -3432078 -3427245 -3418106 
3950.835 -3406107 -3394140 -3383784 -3376255 -3370995 -3366951 -3362644 
3954.210 -3357120 -3350512 -3343935 -3338642 -3336242 -3336833 -3340187 
3957.585 -3344396 -3347750 -3348703 -3346698 -3341568 -3334532 -3326673 
3960.960 -3319472 -3313718 -3309936 -3307667 -3306780 -3306221 -3305300 
3964.336 -3303228 -3299644 -3294350 -3287970 -3281361 -3275441 -3271068 
3967.711 -3268700 -3267746 -3267220 -3265740 -3262287 -3256499 -3248573 
3971.086 -3239464 -3230584 -3222921 -3216606 -3211278 -3206081 -3200161 
3974.461 -3192760 -3184077 -3174966 -3166611 -3160164 -3156118 -3154572 
3977.837 -3154638 -3154999 -3154572 -3152302 -3147960 -3141841 -3134572 
3981.212 -3126710 -3119308 -3112794 -3107300 -3103188 -3100457 -3099207 
3984.587 -3099734 -3101675 -3104964 -3108517 -3111774 -3113978 -3114604 
3987.962 -3113880 -3112465 -3111412 -3111643 -3113814 -3118222 -3124144 
3991.338 -3130920 -3137138 -3141841 -3144045 -3143881 -3140953 -3136118 
3994.713 -3129999 -3123848 -3118387 -3114899 -3114011 -3116347 -3121874 
3998.088 -3130262 -3140427 -3151842 -3163157 -3173847 -3182991 
##END=
