
##TITLE=Z197_2_e
##JCAMP-DX=5.01  $$ Nicolet v. 1
##DATATYPE=INFRARED SPECTRUM
##ORIGIN=UniL
##OWNER=Nicolet
##LONGDATE=2011/09/08
##TIME=10:36:41
##SPECTROMETER/DATA SYSTEM=Nicolet iS5
##DATA PROCESSING=
Ratio against background
%Transmittance->Absorbance
Truncated
ElementMultiply or ElementDivide
##COMMENTS=
Number of sample scans: 32
Collection length: 51.14 sec
Sample gain: 2.0
Background collected on: Jeu Sep 08 10:26:36 2011 (GMT+02:00);
Number of background scans: 32
Background gain: 2.0
Sample spacing:  1.000
Number of scan points: 12415
Resolution points: 8192
Number of FFT points: 65536
Apodization: N-B fort;
Phase correction: Mertz;
Laser frequency: 15798.0 cm-1
Number of rejected sample scans: 0
Number of rejected background scans: 0
Bench serial number: ASB1000141;
##RESOLUTION=4.000
##XUNITS=1/CM
##YUNITS=ABSORBANCE
##FIRSTX=649.893372
##LASTX=4000.122314
##FIRSTY=0.097720
##MAXX=4000.122314
##MINX=649.893372
##MAXY=0.213447
##MINY=-0.002107
##XFACTOR=1.000000
##YFACTOR=1.000000E-009
##NPOINTS=6950
##DELTAX=0.482117
##ZPD=6100
##XYDATA=(X++(Y..Y))
649.893 97720440 97684096 97741728 97913224 98185224 98524568 98894504 
653.268 99276832 99674928 100107512 100590440 101125592 101697000 102280600 
656.643 102858736 103432304 104015896 104630584 105285064 105967352 
659.536 106646472 107287592 107870352 108398864 108900000 109407944 
662.428 109951136 110540528 111170640 111830688 112514848 113226560 
665.321 113965776 114712632 115403984 115917512 116103920 115846336 
668.214 115137264 114093944 112892256 111674608 110497400 109346056 
671.107 108165656 106902168 105527792 104054672 102523504 100985848 99475896 
674.481 97999584 96540480 95077352 93603800 92137160 90712568 89367896 
677.856 88129192 86999992 85964848 84999424 84084280 83211752 82385304 
681.231 81613360 80901464 80248808 79649552 79098816 78597696 78152608 
684.606 77772016 77457920 77201728 76983856 76780952 76575504 76362848 
687.981 76153248 75964352 75813424 75705840 75633584 75577472 75518168 
691.355 75442832 75349768 75246016 75139992 75035032 74926888 74806392 
694.730 74666720 74509968 74348136 74198352 74074120 73978600 73901600 
698.105 73825448 73731472 73610008 73463416 73302872 73140976 72984240 
701.480 72830056 72669912 72495360 72305400 72107568 71916048 71743680 
704.855 71594248 71461584 71332424 71193904 71040752 70878168 70717688 
708.229 70571024 70443024 70329136 70219008 70104600 69987328 69880368 
711.604 69805184 69782696 69826472 69935864 70097624 70288536 70483472 
714.979 70655968 70778872 70825240 70767520 70585048 70275952 69866976 
718.354 69417600 69006048 68714112 68594936 68650304 68821328 68998440 
721.729 69054920 68869008 68366360 67531744 66407516 65074564 63629896 
725.104 62169944 60766824 59468672 58300564 57267276 56362052 55570796 
728.478 54878272 54268728 53729404 53251648 52830092 52460948 52138932 
731.853 51855460 51597992 51352684 51107920 50857524 50602736 50350472 
735.228 50108916 49883252 49673200 49473828 49278112 49081152 48883164 
738.603 48688380 48502760 48329852 48168524 48013176 47856700 47693512 
741.978 47521772 47344268 47165832 46990316 46819556 46653252 46491404 
745.352 46336064 46192316 46066704 45963964 45884708 45824536 45775604 
748.727 45729768 45682392 45633072 45584416 45538236 45493016 45442792 
752.102 45379560 45297356 45196932 45085388 44975052 44879000 44804204 
755.477 44750976 44713480 44684060 44656776 44631180 44610616 44600188 
758.852 44601548 44612892 44628572 44644068 44658756 44677488 44708628 
762.227 44760124 44835576 44932944 45046320 45171192 45308796 45468032 
765.601 45663068 45908168 46213100 46580696 47008668 47495084 48044412 
768.976 48672408 49411120 50306944 51423208 52846256 54676840 57027812 
772.351 60007340 63678464 68020168 72873952 77940088 82752360 86733688 
775.726 89340216 90126680 88890976 85720056 80977920 75217248 69028072 
779.101 62988416 57531572 52909208 49219364 46420348 44389188 42962736 
782.475 41987968 41337448 40912296 40648024 40500468 40438604 40441224 
785.850 40492176 40578680 40692996 40830640 40990872 41175600 41389088 
789.225 41636128 41921072 42246772 42614052 43022400 43470648 43958400 
792.600 44487296 45060320 45682060 46357336 47092376 47893808 48770784 
795.975 49735688 50802996 51990336 53317764 54805644 56478904 58370028 
799.350 60518304 62977380 65812968 69092328 72882808 77231488 82150680 
802.724 87597608 93459800 99551808 105590368 111228808 116085352 119764280 
806.099 121956560 122482952 121339480 118701176 114897696 110367128 
808.992 105551664 100880840 96714072 93287752 90730944 89045392 88123920 
812.367 87757768 87671072 87575432 87178880 86252744 84664088 82376288 
815.742 79453880 76033032 72302696 68456576 64672796 61103200 57848264 
819.116 54964716 52469700 50348200 48565084 47074724 45832712 44797668 
822.491 43934972 43219272 42629444 42148292 41760936 41453464 41214252 
825.866 41035476 40913424 40849204 40846804 40912076 41049500 41261288 
829.241 41546680 41902496 42322116 42795636 43310344 43849596 44394032 
832.616 44926512 45432972 45905220 46341004 46738408 47090308 47379220 
835.990 47573384 47631096 47512792 47187328 46646172 45906436 45010704 
839.365 44016696 42985636 41977528 41037260 40195192 39468024 38859892 
842.740 38366972 37979900 37686580 37473816 37327700 37236900 37191776 
846.115 37185568 37213036 37269640 37349580 37447088 37556324 37673896 
849.490 37799744 37937412 38092092 38268284 38468184 38690564 38932404 
852.865 39190160 39463272 39753184 40063816 40398896 40759960 41146384 
856.239 41556268 41988076 42442852 42924844 43441020 43999168 44606984 
859.614 45272716 46006876 46823800 47745624 48801220 50024328 51454428 
862.989 53131092 55091876 57369700 59983260 62926016 66148148 69547816 
866.364 72955344 76130632 78809432 80718320 81632872 81435744 80129336 
869.739 77846368 74806664 71298376 67616944 64010420 60682000 57757116 
873.113 55289476 53280600 51692812 50469476 49544684 48859432 48363780 
876.488 48017248 47791816 47666556 47624920 47653872 47740812 47874308 
879.863 48045668 48249012 48482016 48745240 49040900 49371248 49738212 
883.238 50143240 50587584 51072592 51599968 52170468 52783508 53436984 
886.613 54127960 54855080 55619076 56424416 57278692 58192996 59179804 
889.987 60254160 61434376 62737816 64179548 65762268 67467912 69246304 
893.362 71010936 72652592 74040992 75055544 75611704 75667944 75236992 
896.737 74374328 73168080 71715976 70111256 68442576 66782176 65189780 
900.112 63716560 62398216 61257616 60302584 59526964 58913560 58439468 
903.487 58083596 57828204 57660808 57573184 57558352 57608632 57717532 
906.862 57879572 58093252 58361272 58689344 59083560 59548548 60087200 
910.236 60702304 61398808 62186572 63079128 64092176 65240868 66535480 
913.611 67982312 69584448 71343824 73262632 75341336 77574728 79947384 
916.986 82430648 84986136 87565056 90113504 92574680 94876576 96930016 
920.361 98625928 99831176 100418592 100294096 99425200 97867352 95764592 
923.736 93343280 90855624 88558992 86682232 85384432 84765768 84864496 
927.110 85667992 87122872 89141432 91613984 94396960 97325840 100234200 
930.485 102946424 105304024 107177224 108455392 109060376 108946112 
933.378 108101952 106562488 104415368 101812256 98950680 96070832 93442824 
936.753 91315648 89917384 89432376 89974200 91593568 94261672 97872128 
940.128 102216536 106984016 111795280 116183232 119673232 121863192 
943.020 122452992 121331024 118583656 114488472 109443672 103891800 98274792 
946.395 92935648 88113320 83944000 80465016 77649088 75428520 73722680 
949.770 72446152 71519944 70879856 70469880 70245144 70173480 70229216 
953.145 70394080 70655144 71000408 71417912 71896072 72422432 72986312 
956.520 73580176 74199024 74840720 75503352 76184208 76878984 77582016 
959.894 78287688 78991968 79693616 80393240 81092200 81791528 82490896 
963.269 83188992 83884752 84578288 85271960 85968808 86672112 87382640 
966.644 88099240 88819664 89542272 90267952 91001336 91748912 92518296 
970.019 93314984 94141768 94999576 95889736 96815096 97782848 98801360 
973.394 99879336 101022848 102233352 103508920 104846200 106243640 107702136 
976.768 109225288 110815712 112472432 114188152 115949880 117739944 
979.661 119539952 121333424 123104344 124837136 126514272 128114448 
982.554 129616648 131002784 132262424 133395312 134410976 135325520 
985.447 136155840 136918304 137628160 138298864 138946512 139588784 
988.339 140241872 140918288 141622272 142349728 143089808 143830864 
991.232 144565344 145291296 146012448 146733616 147456512 148177952 
994.125 148889792 149583088 150251776 150894144 151511568 152104304 
997.017 152668096 153192528 153665776 154077472 154425840 154719536 
999.910 154976800 155220016 155468928 155740352 156045696 156394272 
1002.803 156797424 157268112 157819392 158460512 159193264 160011296 
1005.695 160903488 161860800 162881360 163973488 165153392 166441568 
1008.588 167857088 169413456 171120592 172984960 175008256 177181696 
1011.481 179473440 181820656 184113248 186204288 187934576 189148336 
1014.374 189742304 189687488 189040080 187926160 186516800 185004400 
1017.266 183554784 182299568 181326144 180672032 180338048 180295504 
1020.159 180502096 180906624 181460448 182127072 182880448 183708368 
1023.052 184607824 185579056 186620416 187725936 188885056 190086592 
1025.945 191322448 192588256 193882496 195203376 196544128 197893136 
1028.838 199235232 200555168 201842432 203091088 204296736 205453280 
1031.731 206547472 207560000 208470256 209262224 209931392 210486272 
1034.624 210946256 211334784 211671424 211971424 212243744 212494400 
1037.517 212729024 212951040 213157856 213333280 213445472 213447184 
1040.410 213277968 212880848 212205216 211213504 209884576 208208688 
1043.303 206187696 203835072 201180448 198273712 195180064 191982592 
1046.196 188768320 185614320 182587792 179737344 177093952 174678496 
1049.089 172501872 170567440 168869856 167393248 166111888 164990448 
1051.982 163992608 163085392 162242528 161447680 160690064 159959248 
1054.875 159242608 158522128 157775984 156983488 156124816 155182992 
1057.768 154142160 152984192 151688512 150235584 148609616 146805904 
1060.661 144833328 142714352 140480096 138164096 135800160 133416400 
1063.554 131037640 128687624 126388000 124159416 122019568 119980040 
1066.448 118046000 116217264 114491584 112866864 111344400 109927704 
1069.341 108621296 107427000 106342200 105358920 104465296 103649520 
1072.234 102899976 102208488 101568288 100973304 100416000 99887848 99379960 
1075.609 98886104 98404528 97938592 97495848 97086992 96723592 96416056 
1078.984 96174560 96008176 95923784 95926056 96013840 96178368 96401208 
1082.359 96655328 96908728 97126056 97275848 97333920 97283928 97120920 
1085.735 96850128 96488624 96063024 95609752 95173408 94798384 94528424 
1089.110 94401648 94446496 94684648 95132408 95803544 96713200 97878648 
1092.485 99317528 101046008 103073648 105397944 107996696 110822512 
1095.378 113799960 116811400 119707320 122313376 124432920 125890512 
1098.271 126552968 126353472 125310880 123525816 121168328 118431784 
1101.164 115520512 112620128 109867960 107364336 105165712 103290768 
1104.057 101733848 100471904 99475144 98709432 98143272 97750032 97506128 
1107.433 97392216 97390600 97481872 97645088 97857024 98091856 98325936 
1110.808 98539200 98716344 98849120 98934368 98972320 98962080 98896752 
1114.183 98757512 98511720 98108384 97484488 96579496 95343616 93758624 
1117.558 91847552 89679272 87357240 84997376 82717928 80608608 78723072 
1120.934 77080032 75666600 74451720 73397696 72473208 71656448 70937704 
1124.309 70317760 69806272 69420168 69180640 69112752 69239976 69576208 
1127.684 70117792 70833784 71663568 72509464 73248936 73751936 73884872 
1131.059 73540688 72652168 71198192 69211952 66774912 64012684 61065672 
1134.435 58078748 55185548 52484356 50043028 47896584 46051452 44495480 
1137.810 43205692 42156764 41322432 40678988 40206204 39884608 39696400 
1141.185 39626296 39660168 39786444 39995512 40277784 40622736 41018944 
1144.560 41452656 41910780 42381512 42855572 43327256 43793848 44254336 
1147.936 44709732 45162224 45616252 46077536 46553548 47051496 47576008 
1151.311 48128024 48704100 49297968 49901728 50508444 51113512 51714016 
1154.686 52307796 52891804 53460816 54007912 54525344 55004732 55438792 
1158.061 55819480 56137112 56380572 56535736 56587520 56522680 56330512 
1161.437 56004748 55543608 54948248 54222252 53371224 52403412 51329896 
1164.812 50164700 48925404 47630580 46298244 44945804 43587780 42236584 
1168.187 40904212 39601324 38338812 37127128 35974752 34887716 33868944 
1171.562 32918420 32033964 31213144 30453896 29755546 29117734 28540154 
1174.938 28021018 27556798 27143084 26774412 26446828 26156758 25901628 
1178.313 25679304 25486958 25322022 25182534 25069206 24985882 24939522 
1181.688 24938960 24993356 25109122 25290132 25538296 25854222 26239324 
1185.063 26696044 27227636 27837066 28526674 29298968 30159290 31118380 
1188.438 32193798 33410776 34795844 36370164 38141320 40095176 42192872 
1191.814 44368012 46538792 48613444 50499732 52125672 53443840 54441916 
1195.189 55144092 55610752 55930948 56203104 56533244 57015760 57718024 
1198.564 58678688 59896304 61330608 62898868 64487368 65964824 67183768 
1201.939 68010944 68338744 68093024 67247056 65817632 63863048 61468388 
1205.315 58741308 55803768 52771008 49754788 46851552 44130236 41638644 
1208.690 39399304 37412924 35664508 34129152 32779760 31588882 30534438 
1212.065 29600368 28775030 28050956 27423508 26889068 26445314 26091096 
1215.440 25825808 25648968 25559522 25554144 25628020 25774578 25986924 
1218.816 26259704 26589540 26975050 27415778 27911152 28459202 29056440 
1222.191 29698314 30379942 31096524 31842242 32609962 33390988 34174676 
1225.566 34951312 35714080 36461220 37197440 37932568 38681072 39457320 
1228.941 40275820 41149296 42088344 43102020 44197952 45380808 46652296 
1232.317 48010440 49450956 50968808 52561012 54229048 55978552 57818360 
1235.692 59757732 61805040 63965536 66242068 68634432 71137616 73738152 
1239.067 76405864 79091776 81721408 84193632 86398824 88221464 89559168 
1242.442 90343984 90548416 90198120 89367080 88181312 86801096 85393272 
1245.818 84131328 83164072 82602296 82527008 82981936 83984728 85537400 
1249.193 87635344 90271864 93436176 97107584 101241576 105751808 110510568 
1252.568 115330728 119965232 124142256 127555448 129902688 130940080 
1255.461 130492064 128497960 125019280 120235976 114413744 107850936 
1258.354 100870720 93766272 86782568 80128808 73952904 68348832 63365696 
1261.729 59006960 55242480 52016928 49264160 46911904 44889072 43136376 
1265.105 41603308 40250444 39051660 37989120 37053188 36241452 35557728 
1268.480 35011824 34617324 34391712 34351368 34507212 34861040 35400176 
1271.855 36096328 36901404 37753948 38581260 39300924 39837140 40124032 
1275.230 40115856 39797632 39185772 38327524 37286936 36140040 34959964 
1278.606 33802928 32710232 31703960 30790634 29967826 29228366 28565066 
1281.981 27971332 27441580 26970786 26553576 26184772 25860236 25576216 
1285.356 25330768 25121970 24947698 24805034 24691278 24603712 24541194 
1288.731 24503260 24490010 24499824 24528678 24570050 24616580 24661678 
1292.107 24701590 24736876 24771532 24811348 24861764 24927064 25009782 
1295.482 25111474 25234082 25379488 25549856 25746098 25967260 26210780 
1298.857 26472924 26751506 27046348 27359702 27695108 28055374 28441300 
1302.232 28851050 29281140 29728436 30192108 30673380 31174480 31697296 
1305.608 32241188 32802414 33375602 33954816 34535768 35116100 35694224 
1308.983 36268288 36834100 37385836 37917016 38422392 38899468 39348984 
1312.358 39774316 40180328 40571512 40952344 41327608 41700644 42073192 
1315.733 42441648 42793700 43104836 43339776 43458452 43420184 43197420 
1319.109 42781160 42184148 41436912 40581700 39665032 38727004 37800176 
1322.484 36909484 36071340 35299028 34603292 33991900 33469572 33037104 
1325.859 32691476 32426876 32237478 32118228 32065180 32074132 32140560 
1329.234 32257606 32417164 32611530 32833430 33077184 33337034 33605552 
1332.610 33872668 34125928 34351508 34538460 34679512 34772976 34821152 
1335.985 34828044 34797136 34729620 34625184 34483716 34307688 34104388 
1339.360 33884668 33660260 33441696 33235152 33041752 32860234 32688546 
1342.735 32526426 32376214 32241330 32125968 32033824 31967766 31931068 
1346.111 31928678 31967018 32053408 32194938 32396100 32658826 32982908 
1349.486 33367730 33813064 34318804 34883948 35503288 36166724 36860356 
1352.861 37567376 38272624 38964340 39632684 40268256 40858596 41384500 
1356.236 41823832 42153256 42355064 42422756 42363760 42199592 41960264 
1359.612 41682696 41405348 41162448 40987844 40912696 40964252 41167764 
1362.987 41541212 42092468 42819296 43709052 44739920 45878448 47079856 
1366.362 48284304 49413084 50383176 51115336 51551348 51671504 51496728 
1369.737 51084216 50506400 49841700 49159104 48507652 47922592 47424084 
1373.113 47021328 46712652 46483660 46306504 46136048 45918624 45602228 
1376.488 45141928 44514204 43719932 42787920 41767688 40721928 39717020 
1379.863 38805400 38025720 37403136 36952052 36683252 36605960 36727640 
1383.238 37057192 37608964 38407404 39493972 40922124 42740792 44969432 
1386.614 47564288 50404164 53285696 55972368 58244332 59925668 60920624 
1389.989 61206000 60821704 59852456 58414184 56642404 54665864 52616700 
1393.364 50627716 48820244 47307760 46173120 45451184 45126160 45142112 
1396.739 45427748 45907060 46516152 47207648 47944536 48701800 49462692 
1400.115 50213944 50944440 51641764 52290528 52875184 53381864 53801852 
1403.490 54136292 54396472 54601948 54773656 54930760 55087324 55251132 
1406.865 55427876 55621108 55831236 56052244 56267636 56451772 56570120 
1410.240 56590312 56491432 56269216 55937620 55522148 55052912 54554496 
1413.615 54043296 53529100 53016148 52507092 52003296 51503036 50999100 
1416.991 50479932 49934100 49359404 48774492 48220836 47753984 47420464 
1420.366 47237788 47192240 47246580 47359008 47492720 47628212 47765704 
1423.741 47921888 48119696 48376184 48693572 49057520 49442900 49821820 
1427.116 50173328 50484324 50751040 50976932 51171848 51352532 51540980 
1430.492 51768960 52074340 52492732 53054148 53774364 54655684 55692560 
1433.867 56882596 58236184 59776516 61532520 63517928 65707760 68028152 
1437.242 70375968 72656008 74808592 76806584 78635544 80277032 81690296 
1440.617 82813784 83584968 83947016 83869240 83352912 82428248 81148000 
1443.993 79573296 77773040 75809080 73727944 71564320 69340560 67080520 
1447.368 64827100 62647896 60630448 58866164 57422076 56332552 55597384 
1450.743 55189008 55058704 55139536 55355376 55616216 55825508 55892244 
1454.118 55721000 55219900 54309392 52947044 51174496 49146784 47124060 
1457.494 45365584 44024584 43121556 42587120 42328512 42266164 42347540 
1460.869 42538368 42810812 43138904 43492036 43835996 44140436 44381300 
1464.244 44550184 44656588 44727620 44799244 44903840 45068152 45308464 
1467.619 45632188 46039076 46522196 47068116 47653316 48244608 48796292 
1470.995 49243892 49515048 49542676 49287320 48755772 47996488 47078268 
1474.370 46062616 44998356 43924340 42875504 41893484 41022116 40296616 
1477.745 39739204 39353596 39128156 39045168 39088600 39250652 39533744 
1481.120 39949192 40510728 41229956 42110068 43146444 44328744 45649632 
1484.496 47109252 48719960 50506548 52500808 54732648 57222100 59975500 
1487.871 62989444 66259436 69787904 73584376 77648056 81959000 86460640 
1491.246 91066512 95677560 100204576 104581040 108742496 112627600 116157296 
1494.621 119214096 121668432 123404384 124368808 124602888 124246128 
1497.514 123497456 122543224 121539096 120596584 119788424 119174160 
1500.407 118802528 118706408 118899672 119365152 120054816 120879192 
1503.301 121709160 122371912 122612128 122095928 120429096 117241096 
1506.194 112392976 106138576 99079824 91873512 84951120 78443344 72286616 
1509.569 66358984 60575664 54921024 49466736 44342140 39674688 35569812 
1512.944 32069460 29150686 26748474 24777038 23153204 21799632 20656026 
1516.319 19681952 18851840 18157306 17597734 17169472 16858766 16638542 
1519.695 16468776 16310051 16134463 15943961 15770309 15660854 15649723 
1523.070 15740348 15909761 16121877 16345900 16563462 16776586 17002254 
1526.445 17263654 17575928 17938978 18340452 18763990 19199126 19644822 
1529.820 20109542 20604846 21138842 21713308 22321810 22954008 23600844 
1533.196 24259646 24934152 25628232 26341162 27062850 27776236 28458530 
1536.571 29086660 29641870 30107262 30472022 30730350 30881202 30924784 
1539.946 30862276 30701722 30459618 30160642 29828578 29475742 29098318 
1543.321 28677222 28190766 27626212 26992644 26320816 25652974 25023576 
1546.697 24443142 23897544 23355636 22785074 22167206 21509408 20842074 
1550.072 20208426 19641424 19150540 18722198 18331120 17954276 17582830 
1553.447 17225248 16901756 16631933 16421769 16259689 16117992 15962385 
1556.822 15753953 15453493 15029741 14473292 13819034 13146190 12544092 
1560.198 12066952 11720691 11480159 11308691 11171795 11039395 10891780 
1563.573 10722004 10537628 10358387 10208052 10104330 10050241 10034203 
1566.948 10035423 10034711 10020808 9995718 9972968 9973103 10013552 
1570.323 10100668 10230746 10395037 10585565 10797237 11027331 11272780 
1573.698 11527622 11784317 12037552 12288993 12551663 12846402 13195030 
1577.074 13606158 14074383 14586046 15128709 15695961 16289067 16914124 
1580.449 17575792 18271538 18989344 19706116 20392128 21018566 21557842 
1583.824 21988120 22293938 22464392 22494438 22385612 22147296 21796878 
1587.199 21359306 20866200 20348512 19832030 19332686 18853016 18386458 
1590.575 17921470 17449460 16967110 16477173 15985107 15495864 15011939 
1593.950 14534891 14069146 13625441 13219180 12868586 12587271 12378782 
1597.325 12236710 12148552 12101838 12090357 12115910 12185795 12307945 
1600.700 12485571 12716220 12994136 13316302 13686611 14117167 14623946 
1604.076 15222622 15923200 16728753 17637934 18648726 19761526 20975516 
1607.451 22284488 23671344 25102978 26535086 27920128 29213800 30387192 
1610.826 31430200 32350868 33169628 33910280 34591452 35219500 35787544 
1614.201 36275240 36655676 36897940 36975356 36872076 36587252 36131328 
1617.577 35519324 34760808 33859304 32813884 31622846 30286530 28806576 
1620.952 27193736 25467810 23664240 21843880 20083584 18464000 17049224 
1624.327 15868828 14916048 14156703 13546777 13042277 12609066 12228088 
1627.702 11893139 11607964 11379195 11211540 11103466 11048062 11034230 
1631.078 11049116 11080725 11116315 11143204 11148576 11118049 11039429 
1634.453 10906798 10727506 10524253 10330562 10177591 10080117 10034507 
1637.828 10024199 10029659 10032676 10020944 9989547 9940320 9880251 9817750 
1641.686 9759427 9707210 9657371 9602016 9530817 9433387 9301244 9130295 
1645.543 8922681 8689812 8451561 8232453 8055948 7936475 7876446 7867640 
1649.400 7895409 7938836 7972279 7966711 7887817 7705112 7411583 7045270 
1653.258 6688082 6418878 6270035 6222404 6236320 6273800 6310309 6333204 
1657.115 6337911 6325505 6298912 6261094 6213396 6155689 6086598 6004114 
1660.973 5907270 5797015 5676449 5552962 5436322 5336853 5262728 5217856 
1664.830 5200117 5202766 5215509 5226777 5224396 5198944 5144590 5061882 
1668.688 4957908 4844878 4738008 4650086 4588769 4555786 4547416 4555284 
1672.545 4567941 4572763 4557427 4512829 4438409 4345260 4253804 4184613 
1676.402 4150457 4150457 4174109 4206226 4234397 4253034 4264110 4275219 
1680.260 4295296 4328393 4370595 4408785 4422944 4393388 4309016 4178725 
1684.117 4033256 3915018 3854740 3857114 3906692 3980955 4060781 4132193 
1687.975 4187758 4224861 4244535 4250591 4248785 4247111 4253670 4274348 
1691.832 4311192 4360789 4414208 4457456 4476170 4459532 4407212 4333680 
1695.689 4266686 4235066 4251997 4310690 4388033 4455883 4486046 4458796 
1699.547 4372302 4249654 4133464 4062420 4052855 4094629 4164574 4237375 
1703.404 4293355 4319993 4312061 4273244 4214423 4151059 4095733 4055898 
1707.262 4031886 4019244 4012021 4005466 3997373 3988846 3982861 3982359 
1711.119 3989448 4003861 4023424 4044962 4065129 4081885 4093726 4100048 
1714.977 4098543 4085765 4057203 4009981 3946581 3876704 3815830 3779864 
1718.834 3777659 3808576 3863933 3932370 4002356 4065998 4120017 4164942 
1722.691 4204118 4242394 4283417 4329297 4380636 4436836 4497562 4561981 
1726.549 4629088 4696540 4761356 4819716 4869573 4911258 4948122 4983983 
1730.406 5021523 5058664 5087025 5092154 5056015 4964711 4816667 4631365 
1734.264 4445372 4298710 4213419 4187323 4201274 4230650 4254205 4255844 
1738.121 4228241 4172436 4098241 4020013 3951261 3900340 3868212 3850093 
1741.979 3838861 3828733 3816031 3800320 3783274 3767866 3756602 3751088 
1745.836 3751422 3756569 3765326 3776155 3788020 3799886 3810348 3817401 
1749.693 3818738 3811819 3796243 3774851 3753628 3739858 3739424 3754163 
1753.551 3780968 3813356 3841369 3856010 3851297 3827229 3789725 3749517 
1757.408 3717233 3698753 3693506 3695478 3696113 3687024 3663532 3625207 
1761.266 3577130 3527556 3485034 3456811 3446491 3453839 3476584 3510420 
1765.123 3549469 3587019 3616287 3632057 3632257 3619294 3599214 3578768 
1768.980 3561997 3547565 3529092 3498161 3447226 3374892 3288714 3203689 
1772.838 3135867 3094919 3080870 3085675 3098656 3110503 3116544 3116977 
1776.695 3114575 3112539 3111805 3110403 3104963 3092850 3073695 3050704 
1780.553 3029917 3017004 3014502 3021275 3032686 3043297 3048502 3046267 
1784.410 3037525 3025079 3012434 3002124 2996052 2995184 3000389 3011966 
1788.268 3029817 3051772 3073195 3088078 3089045 3070959 3032820 2979404 
1792.125 2920590 2867522 2828867 2808056 2802487 2806556 2814192 2821096 
1795.982 2824631 2823731 2818895 2810691 2799586 2786213 2771307 2755602 
1799.840 2740230 2726059 2713022 2700752 2688683 2676781 2665446 2656045 
1803.697 2650011 2648377 2650911 2657245 2665880 2675748 2686083 2696518 
1807.555 2706420 2714689 2719457 2718857 2711188 2696318 2675548 2651511 
1811.412 2627342 2605375 2586675 2571143 2558511 2548145 2540646 2537414 
1815.270 2539780 2548545 2563644 2583776 2606609 2630609 2654545 2677881 
1819.127 2701053 2724592 2749099 2774975 2802153 2830101 2857215 2881163 
1822.984 2898375 2905913 2902110 2888435 2870290 2855281 2849911 2857449 
1826.842 2875660 2897207 2911751 2909849 2886400 2843474 2790482 2740130 
1830.699 2703920 2687216 2687516 2696918 2706187 2708188 2699585 2681649 
1834.557 2658178 2634110 2613075 2596642 2584842 2577109 2573310 2574110 
1838.414 2580809 2594075 2613775 2638610 2666179 2694018 2719624 2739896 
1842.271 2752100 2753568 2743364 2723558 2699686 2680082 2672414 2681215 
1846.129 2706521 2744131 2787747 2831468 2872258 2910383 2949379 2993483 
1849.986 3045432 3104663 3167540 3228490 3282404 3326742 3362169 3391989 
1853.844 3419673 3448161 3479055 3512223 3548000 3587387 3632525 3685754 
1857.701 3748347 3819373 3895793 3974401 4051617 4126506 4199802 4272575 
1861.559 4345661 4418291 4487686 4550496 4604273 4647909 4681836 4706622 
1865.416 4721561 4723269 4707392 4668071 4602431 4512361 4405572 4293891 
1869.273 4189665 4102322 4034761 3984432 3945377 3911574 3878409 3843241 
1873.131 3804465 3761148 3711786 3655145 3590494 3519104 3443151 3366343 
1876.988 3291886 3220879 3152788 3085241 3015770 2943207 2868622 2794417 
1880.846 2724125 2659979 2603075 2552845 2508519 2469529 2436541 2410752 
1884.703 2393226 2383598 2380300 2380733 2381732 2381932 2380366 2377534 
1888.561 2374836 2373703 2375735 2382765 2396658 2418581 2448736 2484958 
1892.418 2522716 2555745 2577909 2585009 2577343 2559278 2537780 2520350 
1896.275 2511652 2511918 2518317 2526649 2533414 2537814 2541980 2548445 
1900.133 2559511 2576009 2596275 2618775 2642677 2669247 2700919 2740163 
1903.990 2787147 2839472 2892971 2942473 2985009 3020641 3051539 3080936 
1907.848 3111104 3141774 3170177 3193174 3208228 3215038 3215038 3210932 
1911.705 3204323 3196212 3186231 3174816 3163735 3156192 3155057 3162133 
1915.563 3175250 3189302 3197780 3195377 3180891 3159296 3139371 3128758 
1919.420 3132229 3148382 3171078 3192440 3206192 3210264 3207026 3202053 
1923.277 3200517 3205958 3218209 3235166 3254628 3276128 3300399 3329013 
1927.135 3362370 3398768 3434568 3466063 3491280 3510821 3528090 3546363 
1930.992 3567843 3592298 3616788 3638171 3655312 3668979 3682412 3699020 
1934.850 3720107 3744203 3767899 3787686 3802192 3813824 3827697 3848188 
1938.707 3877606 3913513 3949824 3979818 3998711 4005934 4006001 4006269 
1942.564 4013225 4030046 4055463 4084896 4113996 4139853 4162734 4185115 
1946.422 4209906 4238412 4271103 4307845 4348741 4395095 4449590 4513934 
1950.279 4587898 4668506 4750435 4827991 4897686 4958142 5011165 5059636 
1954.137 5105966 5150893 5194282 5235094 5272555 5307437 5340275 5371472 
1957.994 5400759 5426290 5447394 5465009 5482692 5505242 5536753 5578536 
1961.852 5627641 5678228 5723416 5759844 5787613 5812025 5838454 5871400 
1965.709 5910864 5952246 5989433 6018527 6039525 6057803 6081457 6115732 
1969.566 6161772 6215379 6269094 6315520 6352267 6380948 6407277 6437609 
1973.424 6475645 6521824 6574870 6633609 6700599 6780826 6878808 6996039 
1977.281 7126167 7255998 7369387 7454086 7502392 7516619 7504887 7478424 
1981.139 7446738 7416100 7388968 7365276 7345089 7329285 7319276 7315873 
1984.996 7318940 7325713 7333497 7341180 7349302 7362748 7386407 7424256 
1988.854 7477211 7541870 7612912 7685113 7755638 7825771 7898850 7979400 
1992.711 8069079 8167150 8269498 8371701 8469536 8561344 8647932 8731495 
1996.568 8814904 8900055 8988673 9081605 9178449 9278362 9379347 9478323 
2000.426 9570649 9652459 9720527 9773897 9814328 9844797 9870049 9894454 
2004.283 9921844 9956525 10002329 10063025 10140213 10234817 10343218 
2007.658 10458096 10572290 10678093 10772713 10858588 10942679 11032972 
2011.034 11137153 11259042 11397325 11548820 11708437 11872367 12038234 
2014.409 12204709 12369202 12528711 12678281 12814731 12936954 13047808 
2017.784 13152166 13255593 13361642 13469459 13575321 13673822 13760000 
2021.159 13830937 13885842 13924433 13946056 13949615 13932371 13893095 
2024.535 13834119 13758255 13671840 13579868 13486002 13389969 13290883 
2027.910 13186013 13073827 12955559 12833809 12712058 12593240 12480251 
2031.285 12374179 12277131 12192168 12123303 12073289 12043650 12030910 
2034.660 12029104 12030092 12027980 12020861 12011357 12004135 12004681 
2038.036 12015512 12033839 12054415 12071347 12080170 12080817 12076525 
2041.411 12071210 12067770 12066202 12063136 12053086 12032443 11998584 
2044.786 11951512 11893684 11827761 11756979 11684473 11614498 11551985 
2048.161 11500811 11462469 11432872 11403652 11361509 11294169 11193588 
2051.537 11059211 10897591 10720578 10541227 10368329 10205135 10048139 
2054.912 9890691 9727235 9556592 9382868 9214425 9060223 8925420 8810035 
2058.769 8708945 8614843 8520928 8424028 8324514 8225564 8130822 8042278 
2062.627 7960435 7884511 7814031 7749904 7693578 7646600 7609001 7578451 
2066.484 7551007 7522248 7489380 7450715 7406729 7357727 7302867 7239759 
2070.342 7165577 7077937 6977048 6865815 6749999 6635560 6527676 6428933 
2074.199 6338886 6256724 6180424 6108776 6041474 5977642 5915667 5853230 
2078.056 5787814 5717641 5643853 5569407 5497860 5432866 5375464 5323973 
2081.914 5275674 5227515 5178254 5128831 5081828 5039221 5001378 4966420 
2085.771 4930795 4891118 4846118 4796800 4746784 4699420 4655880 4614721 
2089.629 4572327 4523543 4465055 4397003 4322402 4246777 4176116 4114765 
2093.486 4065163 4028006 4002022 3985502 3976774 3972829 3970321 3965640 
2097.344 3955240 3937051 3911574 3881752 3851431 3824588 3803195 3787519 
2101.201 3775954 3766896 3759009 3752792 3748882 3747679 3748414 3749316 
2105.058 3748247 3744169 3738087 3732339 3730133 3732974 3739992 3748013 
2108.916 3752993 3752324 3746074 3737285 3730467 3729598 3735881 3746943 
2112.773 3757906 3763554 3760780 3749584 3732974 3714961 3699120 3687458 
2116.631 3678903 3671752 3664501 3656415 3647995 3640143 3633059 3625207 
2120.488 3615217 3600918 3581641 3558656 3534370 3511255 3491247 3474312 
2124.345 3458748 3443151 3426553 3408953 3391989 3376728 3363805 3352686 
2128.203 3342001 3330215 3317093 3303438 3290150 3278598 3269351 3262240 
2132.060 3257633 3257099 3263709 3281636 3313387 3358463 3411959 3466397 
2135.918 3513192 3547131 3568077 3580037 3590126 3604225 3624773 3649799 
2139.775 3674559 3693440 3703164 3703999 3697617 3686288 3670583 3648563 
2143.633 3618091 3578433 3532633 3487272 3450299 3427488 3419907 3423614 
2147.490 3429792 3430661 3420375 3398601 3367846 3332018 3293121 3250489 
2151.347 3201085 3143042 3076465 3006027 2938070 2877828 2828099 2788214 
2155.205 2756102 2732961 2726226 2749133 2817861 2943708 3125388 3346108 
2159.062 3577398 3788020 3953970 4064928 4125770 4151059 4158452 4161965 
2162.920 4169124 4181803 4196791 4209772 4217735 4218705 4210776 4194148 
2166.777 4169191 4136876 4100048 4062219 4026601 3994297 3965071 3935948 
2170.635 3904753 3870252 3834215 3801824 3779096 3771308 3781469 3808643 
2174.492 3849325 3899270 3954672 4012021 4068875 4121321 4164273 4192408 
2178.349 4201676 4191840 4167652 4138381 4114865 4106737 4120719 4156546 
2182.207 4210107 4274985 4343854 4410526 4469943 4517985 4551601 4568611 
2186.064 4568376 4553275 4528866 4500743 4475299 4455281 4440451 4426995 
2189.922 4410927 4389405 4361626 4331271 4301487 4275687 4254908 4237609 
2193.779 4220880 4203081 4183944 4164441 4146176 4130152 4114464 4096034 
2197.636 4071651 4040079 4003760 3968148 3939826 3924647 3924747 3938556 
2201.494 3961159 3985970 4007907 4023458 4031618 4032588 4028140 4020214 
2205.351 4010884 4003794 4003293 4012990 4035966 4073056 4121388 4176216 
2209.209 4232256 4284554 4329932 4366880 4395095 4414208 4423815 4423246 
2213.066 4413840 4397941 4380335 4366244 4359183 4360421 4367315 4375248 
2216.924 4378661 4373842 4360354 4339637 4314605 4287868 4260128 4229847 
2220.781 4195386 4155709 4111153 4064761 4020515 3981924 3951529 3929929 
2224.638 3916823 3911139 3912476 3919765 3931534 3945243 3956946 3962430 
2228.496 3959587 3947985 3930765 3912777 3899036 3893520 3896930 3907996 
2232.353 3923811 3942534 3962630 3984834 4009646 4037203 4065765 4092890 
2236.211 4115702 4132193 4142663 4148885 4153334 4158586 4165478 4173807 
2240.068 4183075 4192575 4202646 4214222 4228575 4245974 4266017 4287499 
2243.926 4308882 4329196 4347803 4364337 4378226 4387899 4391280 4386929 
2247.783 4374779 4357208 4338566 4323975 4317383 4320327 4331170 4345996 
2251.640 4360655 4371867 4378929 4383012 4386527 4390409 4394393 4396033 
2255.498 4392886 4382778 4366345 4346130 4326385 4311627 4304733 4306172 
2259.355 4314438 4326284 4337596 4344825 4345327 4337362 4321097 4297672 
2263.213 4269865 4241223 4215661 4196590 4186152 4184412 4189665 4199367 
2267.070 4210575 4221081 4230114 4236974 4241558 4243632 4242394 4237174 
2270.927 4227538 4214958 4201040 4188896 4180967 4178625 4182506 4192040 
2274.785 4206594 4224795 4246509 4270634 4296267 4321633 4344490 4362931 
2278.642 4376453 4385422 4391982 4398677 4407647 4419463 4433689 4448318 
2282.500 4461005 4470880 4477275 4480790 4482698 4483970 4485109 4485979 
2286.357 4486414 4485678 4483769 4480522 4475601 4468838 4459934 4448954 
2290.215 4436869 4425086 4415212 4408953 4407413 4410158 4416249 4424317 
2294.072 4433254 4442995 4453774 4466763 4482263 4500475 4520094 4539882 
2297.929 4558331 4574839 4589472 4603536 4618204 4635183 4655344 4679559 
2301.787 4708230 4741525 4779513 4821760 4867763 4916452 4966554 5017400 
2305.644 5068754 5121020 5174901 5231271 5290163 5351244 5413709 5476351 
2309.502 5539069 5601426 5663893 5726773 5789661 5851652 5911334 5967228 
2313.359 6018460 6065228 6109213 6152026 6196188 6244085 6296929 6355899 
2317.217 6421569 6493537 6570800 6652080 6735057 6817714 6898131 6975095 
2321.074 7047627 7115019 7175649 7227192 7266578 7290871 7298621 7291241 
2324.931 7272878 7250978 7233829 7229213 7242858 7276989 7329992 7397495 
2328.789 7473772 7552625 7628930 7699345 7761778 7815582 7860724 7898513 
2332.646 7930333 7958106 7983619 8007986 8031511 8053384 8072354 8087409 
2336.504 8097671 8103613 8106178 8106617 8105840 8103849 8100203 8094026 
2340.361 8084776 8072522 8057502 8039679 8018045 7989424 7948454 7888255 
2344.219 7802258 7685787 7539206 7368410 7186159 7009339 6856759 6746365 
2348.076 6691547 6699993 6772883 6905369 7087131 7303170 7538161 7776721 
2351.933 8006400 8219654 8413150 8586825 8741907 8879798 9001053 9106576 
2355.791 9197029 9274199 9340243 9396750 9444391 9482014 9507990 9520961 
2359.648 9520623 9508668 9488042 9461594 9431829 9399391 9364348 9326363 
2363.506 9285402 9242313 9198619 9155167 9111888 9067902 9021317 8970542 
2367.363 8914665 8853758 8788767 8720102 8647527 8570130 8487004 8397138 
2371.220 8301412 8201590 8099966 7998300 7897231 7795645 7691048 7581250 
2375.078 7464435 7340506 7210987 7078375 6945634 6815425 6689630 6569925 
2378.935 6457249 6352637 6256219 6167956 6087002 6012043 5942270 5876907 
2382.793 5816592 5762127 5715123 5675878 5644021 5617873 5595351 5574643 
2386.650 5555446 5538834 5527356 5523699 5529202 5544069 5566253 5592901 
2390.508 5621028 5648452 5674367 5699076 5723349 5748093 5773409 5799063 
2394.365 5824517 5849436 5873717 5897697 5921646 5945931 5970487 5995178 
2398.222 6019669 6043725 6066841 6088380 6107399 6122789 6133576 6139256 
2402.080 6139928 6137037 6132266 6127393 6123696 6121714 6121210 6121479 
2405.937 6122151 6122688 6123091 6123461 6123965 6124604 6125645 6127292 
2409.795 6129880 6134249 6140432 6148229 6157470 6167351 6178072 6190406 
2413.652 6206304 6228287 6258405 6297298 6344266 6396786 6451599 6506083 
2417.510 6558589 6608746 6657631 6706252 6755215 6804251 6852485 6898737 
2421.367 6942436 6983883 7023583 7061940 7099088 7133880 7164803 7190673 
2425.224 7210684 7225238 7235379 7242252 7246631 7249159 7249293 7246969 
2429.082 7242454 7236861 7231336 7227394 7225945 7226821 7229988 7234772 
2432.939 7241241 7249967 7262130 7277797 7297239 7319175 7342158 7364568 
2436.797 7385834 7406056 7426278 7448289 7472997 7500673 7530947 7562706 
2440.654 7594535 7625861 7656211 7685484 7713949 7741742 7769232 7796860 
2444.511 7825535 7855865 7888424 7922673 7957330 7990301 8019293 8042346 
2448.369 8059324 8070903 8078801 8085114 8091831 8099426 8108069 8117082 
2452.226 8125387 8132578 8138149 8142267 8145002 8146723 8147703 8148851 
2456.084 8151181 8155637 8163470 8175186 8190616 8209254 8230224 8253085 
2459.941 8277907 8305364 8335965 8370045 8407745 8447777 8489335 8531539 
2463.799 8574186 8617952 8664088 8713611 8767602 8826671 8890416 8958703 
2467.656 9030992 9107015 9186030 9267970 9351822 9437450 9524586 9614212 
2471.513 9707549 9806295 9911539 10023928 10143266 10268743 10399414 
2474.889 10535761 10679180 10832123 10997831 11179036 11377664 11594317 
2478.264 11828544 12079420 12346259 12628953 12927295 13241930 13572792 
2481.639 13919164 14279305 14650642 15029363 15409891 15785599 16148942 
2485.014 16491078 16803828 17079548 17312030 17497062 17632102 17716412 
2488.390 17750822 17737464 17680036 17583070 17452634 17295066 17117082 
2491.765 16924976 16724553 16520470 16316758 16117064 15924403 15741687 
2495.140 15571276 15415075 15274752 15151971 15048572 14967249 14911247 
2498.515 14884192 14889302 14928771 15003775 15114232 15259754 15440619 
2501.891 15658209 15914641 16212806 16555475 16943442 17375516 17848826 
2505.266 18358840 18899804 19465110 20047182 20636222 21219728 21782630 
2508.641 22306078 22770268 23155056 23440890 23612458 23658818 23575026 
2512.016 23363540 23032508 22597600 22077392 21494124 20870476 20226510 
2515.392 19580172 18945592 18332190 17746024 17190396 16665811 16171329 
2518.767 15704997 15264284 14846373 14448491 14069010 13706958 13362975 
2522.142 13037975 12733757 12452052 12193940 11959992 11750001 11562908 
2525.517 11397392 11251492 11123045 11009351 10908395 10817686 10736404 
2528.893 10664103 10601014 10548084 10505447 10472860 10449407 10433692 
2532.268 10424121 10419778 10420117 10424699 10433150 10444859 10458367 
2535.643 10472453 10486031 10498658 10510471 10522522 10535354 10549578 
2539.018 10564618 10579556 10593374 10605291 10615206 10623321 10630723 
2542.394 10638057 10646410 10656530 10669162 10685123 10705465 10730732 
2545.769 10761199 10796625 10836234 10878632 10922870 10967961 11013906 
2549.144 11060569 11108191 11157244 11207970 11261013 11317533 11378311 
2552.519 11444200 11515645 11591901 11671335 11751634 11830996 11908464 
2555.895 11984107 12059559 12136932 12218170 12305183 12398147 12497132 
2559.270 12602040 12712331 12828314 12950165 13077925 13211597 13350674 
2562.645 13495128 13644998 13800803 13962789 14131475 14306356 14485796 
2566.020 14667504 14849424 15029466 15206735 15380642 15551289 15718017 
2569.396 15879687 16034028 16178483 16310705 16428823 16531862 16619572 
2572.771 16692219 16749794 16792706 16821394 16836274 16838650 16830074 
2576.146 16812372 16787262 16756406 16721454 16684093 16646702 16612034 
2579.521 16583255 16563393 16555062 16559744 16578091 16610106 16655482 
2582.896 16713947 16785300 16869444 16965836 17074070 17193878 17325238 
2586.272 17469330 17627514 17801600 17993230 18202428 18428356 18668960 
2589.647 18921158 19182746 19451594 19726054 20004956 20286154 20566978 
2593.022 20843742 21112336 21368530 21608822 21829942 22029180 22203506 
2596.397 22349332 22463032 22541060 22580532 22579730 22538894 22459124 
2599.773 22343262 22194858 22018340 21818132 21599384 21367138 21126180 
2603.148 20880870 20634796 20390356 20149420 19913506 19684344 19464416 
2606.523 19256928 19065088 18892500 18741570 18614072 18510846 18432088 
2609.898 18377748 18347986 18343044 18362952 18407370 18474992 18564064 
2613.274 18671798 18795196 18930744 19074816 19223818 19374050 19522290 
2616.649 19665970 19803314 19933662 20057350 20175554 20289832 20401642 
2620.024 20512610 20623748 20735922 20849894 20965744 21083360 21202124 
2623.399 21320780 21437414 21549972 21656010 21752530 21836354 21903780 
2626.775 21950234 21971076 21961700 21917372 21835412 21714248 21553872 
2630.150 21356348 21124928 20864114 20578894 20274662 19957354 19632342 
2633.525 19304626 18979306 18659934 18349852 18051116 17765148 17492648 
2636.900 17233972 16989334 16758610 16541364 16337091 16145192 15964447 
2640.276 15794326 15633477 15481099 15336395 15198533 15066650 14940225 
2643.651 14818876 14702291 14590535 14483707 14382008 14285536 14194017 
2647.026 14107412 14025786 13949136 13877495 13811440 13751450 13697690 
2650.401 13650298 13609338 13574774 13546298 13524216 13508014 13497281 
2653.777 13491061 13488566 13488736 13491232 13495743 13502887 13513381 
2657.152 13527839 13546675 13569544 13596004 13625304 13656657 13689962 
2660.527 13725253 13762804 13802616 13844586 13888750 13934527 13981779 
2663.902 14030679 14081707 14135172 14191655 14251673 14314951 14381699 
2667.278 14451779 14525126 14601707 14681418 14763888 14848430 14934327 
2670.653 15020788 15107508 15194587 15282027 15370550 15460498 15552215 
2674.028 15645774 15741104 15838310 15937498 16039321 16144162 16252568 
2677.403 16364891 16481131 16601086 16724586 16851258 16980824 17113290 
2680.779 17248830 17387896 17531148 17679552 17834048 17995198 18163834 
2684.154 18339830 18522950 18712374 18907868 19109302 19317374 19533380 
2687.529 19759064 19996178 20246124 20510076 20788648 21082318 21391398 
2690.904 21716406 22057556 22414918 22788216 23176026 23576880 23988364 
2694.280 24408056 24832502 25258032 25680674 26094968 26494794 26872958 
2697.655 27221006 27529968 27790894 27994830 28134694 28205298 28204448 
2701.030 28133846 27998436 27806474 27567778 27293788 26995746 26683710 
2704.405 26366898 26052782 25747364 25455512 25180534 24924676 24688858 
2707.781 24472692 24275062 24094090 23927722 23774402 23632752 23501954 
2711.156 23381896 23272534 23173614 23084744 23005362 22934306 22870598 
2714.531 22813324 22761504 22714614 22672754 22636310 22605976 22582802 
2717.906 22567164 22559486 22559278 22565664 22577496 22593622 22613202 
2721.281 22635610 22660326 22686822 22714368 22741986 22768592 22793488 
2724.657 22816570 22838328 22860330 22884288 22912302 22945870 22986566 
2728.032 23035304 23092538 23158830 23234642 23320046 23415012 23519162 
2731.407 23631458 23750918 23876154 24006364 24140710 24278742 24420358 
2734.782 24565878 24715234 24868570 25025928 25186888 25350860 25516966 
2738.158 25684084 25851198 26017460 26182378 26345494 26506662 26665354 
2741.533 26820476 26969832 27111130 27241184 27356984 27456438 27537662 
2744.908 27600048 27643798 27669328 27678014 27671164 27650612 27618726 
2748.283 27578158 27531626 27482312 27433180 27386944 27346080 27312948 
2751.659 27289412 27276958 27276358 27287614 27309878 27341670 27381052 
2755.034 27425732 27474158 27524566 27575158 27625152 27673106 27718134 
2758.409 27759140 27795664 27827422 27854518 27877340 27896102 27910906 
2761.784 27921824 27929068 27933096 27935428 27937796 27942460 27951542 
2765.160 27966878 27989354 28019216 28056504 28101254 28153784 28215128 
2768.535 28286732 28370164 28466844 28577736 28703484 28844038 28999194 
2771.910 29168686 29351894 29547910 29755936 29975140 30204400 30443164 
2775.285 30690806 30946844 31210936 31482742 31760958 32044842 32332558 
2778.661 32622784 32913954 33204604 33493516 33779468 34060988 34336520 
2782.036 34604728 34863768 35112472 35349564 35574088 35785816 35984940 
2785.411 36172340 36349340 36517908 36679868 36837412 36992604 37147196 
2788.786 37303436 37463232 37628692 37802020 37984604 38177428 38380184 
2792.162 38590820 38806196 39021968 39232992 39434352 39621760 39791780 
2795.537 39943200 40076500 40194248 40300504 40401148 40502872 40612476 
2798.912 40736556 40881276 41051612 41251268 41482876 41747804 42046472 
2802.287 42377676 42740024 43131292 43549100 43991180 44455216 44939192 
2805.663 45441104 45958108 46487200 47024208 47564212 48102076 48632380 
2809.038 49149900 49649948 50127844 50579020 50999624 51385352 51732492 
2812.413 52037920 52298564 52512400 52677444 52792264 52855988 52868712 
2815.788 52831288 52745868 52615240 52443452 52234324 51992728 51723084 
2819.164 51430968 51122384 50803924 50482424 50165148 49858056 49566412 
2822.539 49293628 49042236 48813640 48608328 48426336 48267528 48131248 
2825.914 48016468 47922480 47848600 47794444 47760528 47747804 47757124 
2829.289 47789376 47844456 47921704 48019948 48137500 48272896 48425080 
2832.665 48593208 48775900 48972576 49181956 49403172 49635684 49879836 
2836.040 50136844 50408668 50697604 51006220 51336868 51692628 52076360 
2839.415 52492356 52945436 53441028 53985064 54582940 55239956 55961512 
2842.790 56753552 57623348 58579932 59632964 60792548 62065920 63455148 
2846.166 64953952 66544600 68198232 69870128 71505872 73043744 74416480 
2849.541 75563944 76437352 77004424 77255672 77203464 76881008 76333768 
2852.916 75618048 74794264 73917280 73039904 72207216 71452512 70802080 
2856.291 70270936 69864960 69581888 69413448 69347904 69371376 69470520 
2859.667 69633616 69849784 70109192 70402928 70721232 71054176 71392056 
2863.042 71723912 72040480 72332872 72593576 72817600 73002584 73149368 
2866.417 73262744 73350576 73422648 73489632 73561416 73646432 73749968 
2869.792 73874936 74022088 74190528 74378296 74583072 74802880 75035856 
2873.167 75280416 75535832 75801072 76074920 76355456 76639656 76923720 
2876.543 77203584 77475464 77737216 77988656 78232664 78473352 78717312 
2879.918 78971664 79243504 79539832 79866696 80229160 80630904 81074072 
2883.293 81558984 82083872 82645496 83238912 83858632 84498824 85153392 
2886.668 85815808 86480048 87140120 87790040 88425992 89045344 89647584 
2890.044 90233896 90806408 91367784 91920064 92465248 93004520 93539520 
2893.419 94072880 94607344 95146312 95694368 96255200 96833440 97433760 
2896.794 98061040 98720208 99416080 100151784 100929120 101747416 102603944 
2900.169 103494208 104412208 105351192 106303520 107260224 108212248 
2903.063 109149104 110061264 110940432 111780752 112579544 113336544 
2905.956 114053784 114734384 115381760 115999648 116592272 117164720 
2908.849 117723784 118276704 118831720 119396032 119975152 120571616 
2911.742 121184264 121807744 122431296 123038360 123608744 124117080 
2914.635 124536544 124843232 125017304 125047608 124932552 124680232 
2917.528 124306248 123829904 123272992 122654312 121988272 121284184 
2920.421 120544800 119768128 118948824 118081568 117164320 116200816 
2923.314 115201672 114185352 113175872 112196912 111271872 110419160 
2926.207 109649920 108969840 108379304 107874808 107450208 107097808 
2929.100 106808304 106571464 106377168 106216136 106080656 105966296 
2931.993 105870608 105792640 105731984 105687184 105655272 105632288 
2934.886 105613440 105594000 105569920 105536960 105490912 105427432 
2937.779 105341608 105229376 105088432 104918720 104722752 104504712 
2940.672 104269584 104021664 103763448 103496176 103219488 102932360 
2943.565 102633240 102319944 101989936 101639544 101265504 100864664 
2946.458 100435496 99978936 99498688 99001328 98494968 97989864 97497544 
2949.834 97029928 96600944 96225384 95917168 95690360 95556200 95521888 
2953.209 95591008 95762568 96031400 96387384 96817168 97301912 97817176 
2956.584 98336080 98828104 99263176 99617448 99874336 100028280 100084520 
2959.959 100058488 99972056 99849064 99713736 99586984 99483520 99412832 
2963.335 99377464 99373840 99392704 99420656 99442696 99442696 99407448 
2966.710 99327352 99196840 99015472 98786760 98517952 98218328 97898784 
2970.085 97570840 97244880 96929896 96632320 96355576 96100640 95866264 
2973.460 95650136 95448904 95259144 95076736 94896984 94714888 94525200 
2976.836 94323256 94106216 93873072 93625176 93365584 93098272 92827760 
2980.211 92558648 92295112 92042048 91804408 91587392 91395880 91233760 
2983.586 91102920 91003592 90934176 90891528 90871712 90870448 90882208 
2986.961 90900840 90919592 90930048 90923432 90891360 90825320 90717720 
2990.337 90562216 90353536 90088592 89767024 89392480 88971976 88516824 
2993.712 88040512 87555896 87074200 86602584 86143360 85695440 85255312 
2997.087 84819424 84385056 83951920 83521072 83095144 82676928 82268832 
3000.462 81873296 81492184 81127224 80779696 80450816 80140768 79848976 
3003.838 79574288 79315128 79069872 78837632 78617704 78409328 78211720 
3007.213 78023032 77840936 77662448 77483984 77301520 77112120 76912448 
3010.588 76700216 76474216 76233920 75980264 75714912 75440864 75161032 
3013.963 74878544 74596288 74316608 74042016 73775336 73519224 73276352 
3017.339 73048960 72837856 72642296 72460168 72287824 72121528 71957152 
3020.714 71791288 71620776 71442712 71254096 71051680 70832224 70592728 
3024.089 70330728 70045024 69735304 69402008 69046568 68670408 68275664 
3027.464 67864336 67438544 67000440 66551588 66092968 65625012 65148004 
3030.840 64662180 64167948 63666260 63158712 62646480 62130524 61611632 
3034.215 61090120 60566752 60042800 59520732 59003580 58494588 57996640 
3037.590 57511332 57039188 56579520 56131532 55694556 55268556 54853912 
3040.965 54451568 54061684 53683808 53316600 52958012 52605928 52258092 
3044.341 51913144 51570192 51228736 50888596 50549464 50211264 49873964 
3047.716 49537552 49202068 48867404 48532736 48197436 47860324 47520444 
3051.091 47177280 46830996 46482036 46131440 45779544 45426312 45071424 
3054.466 44714028 44353628 43990588 43626024 43261912 42900516 42543628 
3057.842 42192288 41846672 41506356 41170752 40839524 40513456 40193340 
3061.217 39880868 39577512 39284200 39001632 38730228 38469740 38220736 
3064.592 37983444 37758608 37546320 37346912 37159544 36983188 36816640 
3067.967 36658668 36508356 36365732 36231080 36105184 35989044 35883332 
3071.343 35788444 35704436 35630880 35567188 35513032 35467836 35431236 
3074.718 35403124 35382956 35370020 35363688 35362720 35366172 35372964 
3078.093 35382276 35393384 35405532 35417900 35429908 35440404 35448708 
3081.468 35454352 35456976 35456616 35453384 35447308 35438424 35426560 
3084.844 35411644 35393920 35373972 35352832 35331880 35311896 35293568 
3088.219 35276820 35261044 35245196 35228520 35210376 35190972 35170276 
3091.594 35148972 35127092 35104820 35081720 35057008 35030320 35001656 
3094.969 34970956 34939244 34907324 34876516 34847756 34821728 34798608 
3098.344 34778220 34760232 34744224 34730012 34717808 34708192 34701800 
3101.720 34699432 34701408 34707760 34718096 34731736 34748316 34767952 
3105.095 34791320 34819788 34855080 34898704 34951920 35015560 35089840 
3108.470 35174412 35268952 35372748 35485060 35604732 35730628 35861632 
3111.845 35996708 36135288 36276932 36421544 36568188 36715812 36862556 
3115.221 37005668 37142616 37271304 37390640 37500112 37600436 37692000 
3118.596 37775124 37849956 37915500 37971328 38017004 38053028 38080516 
3121.971 38101172 38116616 38128296 38137236 38143708 38148052 38150404 
3125.346 38151128 38150804 38150368 38150436 38151704 38154420 38158324 
3128.722 38162704 38166684 38168888 38167984 38163212 38153948 38140344 
3132.097 38123020 38103052 38081024 38057440 38032084 38004060 37972020 
3135.472 37935208 37892868 37844892 37792148 37735332 37675376 37612976 
3138.847 37548556 37481872 37412524 37340192 37264192 37184016 37099844 
3142.223 37012088 36921748 36830564 36740156 36652248 36567788 36487272 
3145.598 36410192 36335544 36262164 36189772 36118036 36047576 35979180 
3148.973 35913456 35850152 35788836 35728432 35667784 35606280 35543740 
3152.348 35480780 35418256 35357436 35299244 35244080 35192268 35143260 
3155.724 35096376 35050432 35003956 34955620 34904484 34849836 34791788 
3159.099 34731484 34670004 34609036 34549904 34493148 34439164 34388200 
3162.474 34339964 34294276 34250860 34209236 34168440 34127688 34085324 
3165.849 34040632 33993224 33943424 33891688 33839068 33785916 33732308 
3169.225 33677588 33621308 33562884 33503358 33443664 33385440 33330164 
3172.600 33278502 33230108 33183824 33138260 33091810 33043650 32993168 
3175.975 32940262 32885112 32828036 32769218 32709408 32649610 32590818 
3179.350 32534424 32481394 32431730 32384924 32339554 32294508 32248966 
3182.726 32202754 32156546 32111556 32069032 32029756 31994052 31961988 
3186.101 31933348 31907924 31885814 31866952 31851120 31837892 31826128 
3189.476 31814504 31801850 31787194 31770334 31751834 31733118 31716044 
3192.851 31702750 31695086 31694050 31700112 31711944 31727626 31744954 
3196.227 31761744 31776716 31790548 31804950 31822562 31845878 31876650 
3199.602 31914592 31958066 32004040 32049768 32092754 32131854 32167322 
3202.977 32200042 32231376 32262064 32293010 32324314 32355796 32387532 
3206.352 32419662 32451582 32483074 32513034 32540888 32565780 32587636 
3209.728 32606960 32624428 32640822 32656648 32671470 32684974 32696440 
3213.103 32705658 32713090 32719806 32726842 32735028 32744564 32755036 
3216.478 32765466 32775332 32784120 32792050 32799664 32807310 32815422 
3219.853 32823782 32832112 32840080 32847478 32854412 32860808 32866884 
3223.229 32872566 32877676 32882250 32886576 32891470 32898012 32906912 
3226.604 32919030 32934364 32952770 32974112 32998528 33026270 33058486 
3229.979 33095636 33138440 33186398 33238582 33293352 33348982 33403940 
3233.354 33456940 33507332 33554688 33599400 33641568 33682712 33724032 
3236.729 33767400 33814172 33864824 33918988 33974988 34030744 34083564 
3240.105 34131952 34174892 34212572 34245768 34275452 34302416 34327124 
3243.480 34349860 34371236 34392000 34413160 34435576 34459284 34483748 
3246.855 34507644 34529704 34549112 34566048 34581588 34597732 34616208 
3250.230 34637956 34663008 34690316 34718452 34746236 34773228 34799864 
3253.606 34827112 34856408 34888724 34924772 34964308 35007080 35052592 
3256.981 35100544 35150444 35202112 35255008 35308556 35362180 35415528 
3260.356 35467980 35519464 35569920 35619332 35667676 35714764 35760524 
3263.731 35804924 35848460 35891356 35933648 35975472 36016616 36056864 
3267.107 36095316 36131688 36165464 36196256 36223948 36248440 36269480 
3270.482 36287016 36301104 36312016 36319908 36324984 36327580 36327652 
3273.857 36325348 36320808 36313964 36305644 36296456 36287416 36279060 
3277.232 36272180 36266992 36263532 36261480 36260580 36260292 36259680 
3280.608 36258132 36254384 36247864 36237600 36223660 36206448 36187108 
3283.983 36167264 36148252 36131180 36116524 36103996 36093016 36082428 
3287.358 36071484 36059672 36047108 36034364 36022196 36011328 36002220 
3290.733 35994692 35988180 35981736 35974072 35964420 35952436 35938612 
3294.109 35924148 35910288 35898196 35888660 35881280 35875452 35869408 
3297.484 35861888 35851632 35838204 35821584 35802044 35779844 35755200 
3300.859 35727820 35697676 35664656 35629908 35594372 35560208 35529608 
3304.234 35503968 35484340 35470568 35461688 35456188 35452304 35448924 
3307.610 35445112 35440836 35436772 35433680 35432420 35433680 35437960 
3310.985 35445508 35456152 35469776 35486100 35504764 35524968 35546544 
3314.360 35568988 35592324 35616888 35643576 35673288 35707244 35746352 
3317.735 35790820 35840328 35894096 35950852 36009452 36068856 36128408 
3321.111 36187828 36246860 36305860 36364580 36423204 36481648 36539996 
3324.486 36597852 36654992 36710948 36765612 36818840 36870708 36921928 
3327.861 36972940 37024572 37076640 37128392 37178384 37224768 37265780 
3331.236 37300112 37327700 37348932 37364460 37375112 37380996 37381360 
3334.612 37375472 37362724 37343264 37318204 37289100 37257656 37224696 
3337.987 37190296 37153188 37111828 37064660 37010936 36950860 36885568 
3341.362 36816064 36743868 36669480 36592840 36513544 36431056 36344692 
3344.737 36254352 36159956 36061872 35960568 35856668 35751064 35644728 
3348.113 35538848 35433824 35330012 35227012 35123788 35019076 34912312 
3351.488 34803096 34691788 34579396 34467036 34355492 34245516 34137076 
3354.863 34030168 33924436 33819940 33716584 33614436 33513344 33412710 
3358.238 33311990 33210684 33108402 33005464 32902480 32800522 32700550 
3361.614 32603316 32508854 32416948 32326776 32237158 32147162 32056116 
3364.989 31963448 31869448 31774968 31680580 31588100 31498346 31412032 
3368.364 31329476 31250316 31173804 31099016 31025094 30951112 30876576 
3371.739 30801056 30724340 30646214 30566504 30485672 30403608 30321066 
3375.115 30238394 30155562 30072780 29989590 29905670 29821090 29735996 
3378.490 29650988 29567060 29485208 29406066 29329666 29255654 29183250 
3381.865 29111498 29039612 28967102 28893544 28818792 28742672 28665294 
3385.240 28586758 28507850 28429628 28353364 28280438 28211734 28147492 
3388.615 28087186 28029430 27972674 27915464 27856636 27795734 27733674 
3391.991 27671482 27611100 27554256 27501868 27454146 27410168 27367748 
3395.366 27324414 27277382 27224886 27166470 27102876 27036014 26968350 
3398.741 26902074 26838486 26778146 26720426 26664192 26608528 26552274 
3402.116 26494828 26435666 26374400 26310746 26244780 26176818 26107600 
3405.492 26038110 25969054 25900996 25833332 25764662 25693610 25618916 
3408.867 25540122 25457586 25372708 25287392 25203110 25121092 25041724 
3412.242 24964718 24889728 24816610 24745258 24675882 24608058 24541650 
3415.617 24475356 24407984 24338418 24265566 24188980 24108662 24024922 
3418.993 23938504 23849970 23760368 23670958 23583492 23499436 23420258 
3422.368 23346512 23277882 23213040 23150024 23086562 23021362 22953764 
3425.743 22883940 22813360 22743416 22675756 22611492 22550762 22493320 
3429.118 22438190 22384286 22330808 22277372 22223906 22171040 22119682 
3432.494 22070734 22025068 21983100 21944764 21909426 21876424 21844646 
3435.869 21813008 21780434 21745458 21707210 21664892 21617772 21565536 
3439.244 21508296 21446326 21379772 21308530 21232360 21151052 21064544 
3442.619 20973394 20878716 20781556 20682402 20581292 20477112 20368062 
3445.995 20252790 20130850 20003394 19872992 19743288 19617366 19497164 
3449.370 19382920 19273554 19166918 19060830 18954452 18846822 18738216 
3452.745 18628666 18518074 18406368 18293344 18179520 18065898 17953790 
3456.120 17844890 17739846 17638660 17540394 17443630 17347548 17251484 
3459.496 17155788 17060594 16966112 16871716 16776517 16679341 16579675 
3462.871 16478207 16376453 16276166 16178861 16084604 15992360 15900275 
3466.246 15806593 15710458 15612558 15515094 15420465 15331246 15248737 
3469.621 15172833 15102465 15036018 14971741 14908367 14844590 14779451 
3472.997 14711786 14640944 14566447 14488845 14409545 14330910 14255268 
3476.372 14185048 14121103 14063568 14011447 13962925 13915949 13868976 
3479.747 13820470 13769712 13716567 13661479 13605338 13549716 13495983 
3483.122 13445263 13397521 13351870 13306120 13257678 13204287 13143867 
3486.498 13075808 13000520 12919272 12833672 12745153 12655152 12564521 
3489.873 12474148 12384748 12296594 12209685 12123916 12038131 11951580 
3493.248 11863582 11774070 11682907 11590539 11497136 11402563 11306038 
3496.623 11207290 11105981 11002487 10897930 10793365 10690046 10588111 
3499.999 10487150 10386078 10283705 10179388 10073606 9967340 9862659 
3503.374 9761596 9666078 9577153 9495154 9419775 9350060 9284048 9219366 
3507.231 9153441 9083229 9007040 8924372 8836883 8747621 8660269 8578444 
3511.089 8503493 8435582 8372444 8311477 8249978 8186767 8121876 8056657 
3514.946 7993271 7933303 7877053 7824084 7772774 7721167 7667576 7611226 
3518.803 7552018 7490694 7428469 7366691 7306573 7248754 7193301 7139809 
3522.661 7087468 7035168 6981796 6926814 6869551 6810141 6748518 6685121 
3526.518 6620017 6553409 6485365 6416491 6347426 6279179 6212724 6148766 
3530.376 6088312 6031428 5978516 5929606 5884364 5842349 5802422 5763370 
3534.233 5723516 5681551 5636469 5588168 5537491 5485813 5434946 5385662 
3538.091 5338531 5293417 5249917 5207595 5166418 5126551 5088567 5052730 
3541.948 5019210 4987569 4956936 4925936 4892894 4856103 4813384 4763299 
3545.805 4705182 4640139 4570486 4500676 4435363 4378728 4332576 4296367 
3549.663 4266920 4239817 4210207 4175413 4134467 4089177 4042554 3997708 
3553.520 3956143 3917659 3881016 3844009 3805401 3765025 3724151 3684116 
3557.378 3646291 3611041 3577465 3543791 3508583 3471173 3431696 3391822 
3561.235 3353821 3320064 3292687 3272990 3260871 3255096 3252125 3246984 
3565.093 3233664 3205758 3158662 3091181 3006428 2911817 2816694 2729960 
3568.950 2656845 2598909 2554145 2518517 2487824 2458733 2429410 2400057 
3572.807 2371338 2344386 2320201 2299149 2280829 2264741 2249986 2235498 
3576.665 2220012 2202628 2181981 2157339 2128702 2096306 2061248 2024795 
3580.522 1988545 1953763 1921312 1892525 1868499 1850263 1838418 1832362 
3584.380 1830432 1828901 1822812 1806641 1776132 1728792 1666821 1595548 
3588.237 1523222 1457723 1404966 1367804 1345202 1333403 1327088 1321106 
3592.094 1310704 1292658 1265840 1231481 1192439 1152538 1115763 1085003 
3595.952 1061652 1045509 1035313 1028571 1022592 1014688 1002267 983238 
3599.809 956804 923034 883854 842022 801389 765474 736896 717048 705399 
3604.149 700720 700355 701185 699857 692888 677224 650610 611952 562682 
3608.489 505621 446080 388836 337170 292108 252223 214098 174552 132191 
3612.828 88046 46456 12723 -8117 -13783 -5533 11961 31577 45594 46986 31279 
3618.132 -2418 -50957 -108069 -165737 -216212 -254792 -279362 -291316 
3621.990 -293667 -290289 -283832 -275587 -264925 -249692 -228167 -200215 
3625.847 -169149 -141558 -128209 -141094 -189551 -275455 -389150 -511817 
3629.704 -621084 -701708 -749739 -770510 -774579 -773553 -776133 -786750 
3633.562 -805668 -829877 -854580 -875809 -891285 -901502 -907950 -913339 
3637.419 -918861 -925738 -933739 -942732 -952287 -962503 -973512 -985612 
3641.277 -998968 -1012719 -1026206 -1037908 -1046965 -1052551 -1053939 
3644.652 -1051493 -1045610 -1037776 -1029347 -1023198 -1022703 -1031892 
3648.027 -1054567 -1093767 -1149124 -1217095 -1290209 -1358092 -1410476 
3651.402 -1440397 -1445384 -1428277 -1396175 -1358852 -1326580 -1308081 
3654.778 -1310030 -1333187 -1372890 -1419129 -1460310 -1487949 -1497987 
3658.153 -1492869 -1478637 -1462787 -1451328 -1448125 -1454069 -1467278 
3661.528 -1484350 -1501488 -1515455 -1524139 -1526450 -1522389 -1512318 
3664.903 -1496832 -1476458 -1451856 -1424182 -1395448 -1368596 -1347126 
3668.279 -1334178 -1330610 -1333649 -1335003 -1321691 -1281587 -1205762 
3671.654 -1092313 -945675 -775670 -595540 -419837 -266282 -153648 -97535 
3675.511 -106479 -177032 -296614 -448999 -621348 -804676 -991232 -1173115 
3679.369 -1340751 -1483822 -1595121 -1672628 -1720683 -1747415 -1762001 
3682.744 -1771175 -1777213 -1778302 -1771241 -1754114 -1727878 -1697712 
3686.119 -1670879 -1655497 -1657147 -1677117 -1711376 -1752101 -1791535 
3689.494 -1824333 -1849145 -1867950 -1883291 -1896652 -1907341 -1913708 
3692.870 -1914401 -1908990 -1898500 -1885832 -1872734 -1860824 -1849970 
3696.245 -1838917 -1826082 -1810871 -1794274 -1778896 -1768304 -1765862 
3699.620 -1773551 -1790809 -1814731 -1840632 -1862936 -1877650 -1882368 
3702.995 -1877551 -1864651 -1846208 -1824531 -1801599 -1778203 -1755467 
3706.371 -1734115 -1715336 -1700056 -1689593 -1684642 -1686160 -1694973 
3709.746 -1712762 -1740616 -1780084 -1829744 -1886129 -1942077 -1989706 
3713.121 -2020775 -2031064 -2020511 -1993202 -1955403 -1914796 -1878112 
3716.496 -1849343 -1829810 -1818196 -1811432 -1806350 -1800708 -1794174 
3719.872 -1787509 -1781503 -1776487 -1771439 -1764014 -1752662 -1736788 
3723.247 -1717746 -1698834 -1684246 -1677183 -1679493 -1690385 -1706656 
3726.622 -1723323 -1735072 -1738240 -1731211 -1714907 -1692134 -1666687 
3729.997 -1643185 -1624568 -1613014 -1608359 -1609085 -1612552 -1617767 
3733.373 -1625294 -1638399 -1661405 -1697349 -1745765 -1801764 -1857129 
3736.748 -1903085 -1934127 -1949136 -1950422 -1941450 -1924759 -1900842 
3740.123 -1868940 -1828259 -1781173 -1733785 -1697481 -1686292 -1712564 
3743.498 -1781074 -1881609 -1989475 -2071924 -2107076 -2091611 -2038485 
3746.874 -1967640 -1898368 -1845944 -1818922 -1818856 -1841292 -1878409 
3750.249 -1922087 -1966123 -2006956 -2041980 -2067142 -2078321 -2071990 
3753.624 -2047719 -2008803 -1961802 -1913939 -1870722 -1835617 -1809419 
3756.999 -1790908 -1779358 -1775267 -1780447 -1797309 -1825719 -1861187 
3760.375 -1894970 -1916809 -1919085 -1899325 -1861847 -1815886 -1772990 
3763.750 -1742497 -1729726 -1733158 -1746722 -1761011 -1768502 -1765928 
3767.125 -1755335 -1742002 -1731772 -1728835 -1734049 -1744675 -1756028 
3770.500 -1763123 -1763189 -1756226 -1744148 -1730584 -1719165 -1712564 
3773.875 -1712432 -1719000 -1730716 -1744874 -1758899 -1770086 -1777313 
3777.251 -1780711 -1782460 -1784836 -1789885 -1798101 -1807670 -1815457 
3780.626 -1818196 -1813874 -1802688 -1786486 -1768667 -1752563 -1740550 
3784.001 -1734313 -1733488 -1737316 -1744246 -1752728 -1761077 -1767578 
3787.376 -1770911 -1769789 -1763585 -1753190 -1740253 -1726821 -1714709 
3790.752 -1704412 -1694610 -1683652 -1669789 -1653451 -1637111 -1625657 
3794.127 -1624568 -1637772 -1665927 -1704445 -1744775 -1775465 -1787773 
3797.502 -1777840 -1748735 -1708406 -1669030 -1643086 -1639587 -1662693 
3800.877 -1707911 -1762463 -1809386 -1833572 -1828457 -1796814 -1748603 
3804.253 -1696392 -1653550 -1630377 -1632391 -1658567 -1701343 -1748504 
3807.628 -1786684 -1808000 -1810574 -1797375 -1773815 -1744577 -1712135 
3811.003 -1677018 -1638432 -1596442 -1553226 -1513176 -1483425 -1470712 
3814.378 -1480420 -1512846 -1562207 -1615325 -1656553 -1674344 -1664178 
3817.754 -1630245 -1582741 -1535067 -1499771 -1486628 -1500101 -1536883 
3821.129 -1585251 -1629618 -1656850 -1661042 -1644736 -1616414 -1586142 
3824.504 -1563065 -1552038 -1553755 -1564154 -1577096 -1585812 -1586076 
3827.879 -1577360 -1562405 -1545732 -1530742 -1519384 -1511228 -1503898 
3831.255 -1494454 -1480982 -1462357 -1439670 -1414340 -1388645 -1364236 
3834.630 -1343361 -1328661 -1323442 -1330709 -1352973 -1389503 -1436467 
3838.005 -1486529 -1531138 -1563593 -1580629 -1582741 -1574587 -1561414 
3841.380 -1548439 -1539591 -1537180 -1541010 -1549958 -1561843 -1574026 
3844.756 -1583567 -1588189 -1585878 -1575776 -1557882 -1532426 -1500761 
3848.131 -1463645 -1421804 -1375797 -1327175 -1278382 -1235168 -1205332 
3851.506 -1199616 -1227635 -1295330 -1397562 -1516379 -1626515 -1705633 
3854.881 -1742761 -1740187 -1708274 -1659491 -1604200 -1550189 -1502577 
3858.257 -1463612 -1434353 -1414571 -1403177 -1398388 -1397926 -1400138 
3861.632 -1404003 -1410047 -1420681 -1438548 -1464900 -1497261 -1528497 
3865.007 -1548802 -1548076 -1520870 -1468665 -1400138 -1329388 -1271313 
3868.382 -1239034 -1238803 -1267381 -1311385 -1352147 -1374442 -1371602 
3871.758 -1347126 -1311484 -1277094 -1254232 -1247195 -1254595 -1269363 
3875.133 -1283173 -1288657 -1283305 -1268471 -1249673 -1233747 -1226776 
3878.508 -1233252 -1254265 -1287005 -1324532 -1357861 -1377844 -1378142 
3881.883 -1357630 -1320337 -1275046 -1232228 -1203416 -1197171 -1216632 
3885.259 -1257073 -1306430 -1349604 -1373055 -1370512 -1344087 -1302498 
3888.634 -1256644 -1218086 -1195221 -1191917 -1206522 -1232426 -1261038 
3892.009 -1283899 -1296354 -1297114 -1288591 -1273955 -1256082 -1236688 
3895.384 -1216798 -1196708 -1177047 -1159071 -1144200 -1134253 -1129989 
3898.760 -1131080 -1135641 -1141688 -1146744 -1150049 -1152197 -1155369 
3902.135 -1161846 -1173842 -1191487 -1213130 -1236192 -1257338 -1274253 
3905.510 -1285750 -1292158 -1294636 -1294372 -1292059 -1287170 -1279473 
3908.885 -1268438 -1254067 -1237250 -1219111 -1200838 -1183028 -1165514 
3912.260 -1147141 -1127114 -1105170 -1082067 -1060352 -1043197 -1033446 
3915.636 -1032851 -1041478 -1056980 -1075622 -1092974 -1105731 -1111515 
3919.011 -1109400 -1099386 -1082067 -1058369 -1029809 -998736 -968355 
3922.386 -942369 -924845 -918563 -924283 -940154 -962206 -985744 -1005645 
3926.244 -1019066 -1025215 -1025281 -1020917 -1014438 -1006934 -999034 
3929.619 -991166 -984257 -979595 -979198 -984356 -995827 -1012058 -1029909 
3933.476 -1045874 -1056253 -1059063 -1054435 -1044321 -1031099 -1017050 
3936.852 -1003893 -991629 -979397 -966041 -950733 -934136 -918200 -905205 
3940.709 -898030 -898559 -906858 -921506 -938996 -955329 -966603 -969942 
3944.566 -964884 -952684 -935955 -918200 -903155 -893632 -891119 -895815 
3948.424 -906528 -920878 -936417 -951196 -963495 -971958 -976719 -977479 
3952.281 -974802 -969677 -963197 -956618 -951725 -949543 -951031 -956155 
3956.139 -964255 -973711 -982901 -989744 -992488 -990108 -982405 -969942 
3959.996 -954403 -937608 -921804 -908842 -900047 -895153 -893599 -893897 
3963.854 -894624 -894955 -894624 -893864 -893632 -894790 -897402 -901304 
3967.711 -905536 -909239 -911322 -911620 -909669 -905635 -899783 -892343 
3971.568 -883382 -873660 -863872 -855373 -849719 -847701 -849355 -854381 
3975.426 -860896 -867179 -871643 -873561 -872470 -869262 -864666 -859507 
3979.283 -854414 -849619 -845287 -841782 -839401 -838574 -839335 -841418 
3983.141 -844262 -846775 -848396 -848230 -846775 -844461 -842079 -840261 
3986.998 -839434 -839698 -840393 -841352 -841980 -842046 -841683 -840724 
3990.855 -839235 -837747 -836127 -834539 -833151 -831795 -830306 -828454 
3994.713 -825908 -822667 -818632 -814531 -810728 -807818 -805602 -804246 
3998.570 -803154 -801765 -799616 -796771 -793663 
##END=
