
##TITLE=Z197_3_c
##JCAMP-DX=5.01  $$ Nicolet v. 1
##DATATYPE=INFRARED SPECTRUM
##ORIGIN=UniL
##OWNER=Nicolet
##LONGDATE=2011/09/08
##TIME=11:00:45
##SPECTROMETER/DATA SYSTEM=Nicolet iS5
##DATA PROCESSING=
Ratio against background
%Transmittance->Absorbance
Truncated
ElementMultiply or ElementDivide
##COMMENTS=
Number of sample scans: 32
Collection length: 51.14 sec
Sample gain: 2.0
Background collected on: Jeu Sep 08 10:53:33 2011 (GMT+02:00);
Number of background scans: 32
Background gain: 2.0
Sample spacing:  1.000
Number of scan points: 12415
Resolution points: 8192
Number of FFT points: 65536
Apodization: N-B fort;
Phase correction: Mertz;
Laser frequency: 15798.0 cm-1
Number of rejected sample scans: 0
Number of rejected background scans: 0
Bench serial number: ASB1000141;
##RESOLUTION=4.000
##XUNITS=1/CM
##YUNITS=ABSORBANCE
##FIRSTX=649.893372
##LASTX=4000.122314
##FIRSTY=0.103102
##MAXX=4000.122314
##MINX=649.893372
##MAXY=0.228366
##MINY=0.000633
##XFACTOR=1.000000
##YFACTOR=1.000000E-009
##NPOINTS=6950
##DELTAX=0.482117
##ZPD=6100
##XYDATA=(X++(Y..Y))
649.893 103102432 103271272 103507152 103821640 104197768 104606128 
652.786 105020488 105437608 105878512 106375944 106950616 107599352 
655.679 108292304 108989808 109662584 110309416 110952928 111629192 
658.571 112361384 113145944 113952032 114736792 115469416 116145608 
661.464 116788944 117433192 118106360 118813464 119535768 120242832 
664.357 120909216 121521336 122070784 122542736 122894504 123050008 
667.250 122922600 122462480 121705304 120765672 119774680 118813552 
670.142 117886928 116943024 115905616 114713192 113337272 111796232 
673.035 110140544 108434464 106726360 105036568 103363576 101701352 
675.928 100055944 98453320 96929896 95518464 94233224 93065760 91991224 
679.302 90983280 90027448 89126344 88294296 87545920 86886408 86307064 
682.677 85790416 85319104 84884480 84489088 84141744 83848176 83602808 
686.052 83388720 83183576 82970984 82747512 82525680 82325784 82165208 
689.427 82046960 81956920 81868176 81756008 81606008 81421360 81219056 
692.802 81020240 80839760 80680176 80533096 80386664 80234256 80078288 
696.177 79927904 79792744 79675584 79569712 79463744 79346944 79217576 
699.551 79084344 78962568 78863824 78789328 78726888 78655880 78556920 
702.926 78421000 78253088 78070464 77892512 77730880 77585464 77446200 
706.301 77299536 77138280 76964864 76789296 76623768 76475208 76340488 
709.676 76211928 76082376 75953504 75838360 75758656 75734912 75780160 
713.051 75892728 76057112 76247672 76437320 76598192 76703336 76727496 
716.425 76645744 76439648 76109152 75681112 75214808 74785880 74474176 
719.800 74329736 74351600 74477520 74596480 74581368 74311968 73716912 
723.175 72786016 71565920 70141280 68611456 67073672 65600304 64239740 
726.550 63017256 61938308 60996800 60178416 59465712 58839984 58283852 
729.925 57785540 57337748 56937596 56583140 56270652 55992120 55736784 
733.300 55492892 55252636 55013528 54778580 54552840 54339920 54138804 
736.674 53944840 53751492 53553648 53350916 53147008 52947232 52755556 
740.049 52572232 52393768 52216352 52037808 51860272 51689008 51529820 
743.424 51386096 51257148 51138264 51024440 50913068 50805752 50706876 
746.799 50621312 50551064 50492960 50440556 50386412 50326140 50260292 
750.174 50193112 50129144 50070468 50014624 49956404 49890908 49817956 
753.548 49741968 49671976 49616660 49579184 49556568 49539856 49519208 
756.923 49487492 49443900 49393076 49342772 49299160 49265384 49241000 
760.298 49226264 49222668 49236508 49274736 49343036 49441600 49564664 
763.673 49703032 49849356 50003544 50174332 50377596 50630580 50947344 
767.048 51335416 51796320 52330636 52944388 53653704 54489996 55500496 
770.423 56749476 58325840 60332508 62883428 66084868 69994024 74578936 
773.797 79665312 84934352 89899048 93962000 96566472 97262080 95853376 
777.172 92442864 87417528 81354496 74865872 68548136 62846816 58019476 
780.547 54165272 51238880 49111684 47612868 46582540 45888316 45428116 
783.922 45137260 44972740 44905384 44915744 44987292 45106268 45262200 
787.297 45447208 45657288 45892036 46153992 46447372 46776488 47144340 
790.671 47551904 47998784 48484644 49010336 49579408 50198356 50875036 
794.046 51617768 52434480 53331812 54316228 55395464 56578572 57877604 
797.421 59308548 60891080 62652984 64632608 66877088 69449328 72421960 
800.796 75866336 79849728 84414912 89566088 95249200 101339680 107640064 
804.171 113855864 119630896 124576712 128293472 130471288 130933624 
807.063 129683104 126903784 122935488 118227800 113233184 108390992 
809.956 104070288 100514208 97856440 96100312 95135920 94747776 94650608 
813.331 94545352 94129376 93165776 91516576 89142856 86110552 82558456 
816.706 78679776 74673008 70722048 66984704 63567408 60532280 57901000 
820.081 55660356 53775488 52198452 50881776 49780240 48856428 48083088 
823.455 47439644 46910096 46482444 46145516 45890084 45709044 45597852 
826.830 45554944 45580592 45675696 45840628 46074736 46376176 46742428 
830.205 47169564 47651432 48178928 48738720 49313784 49887120 50443800 
833.580 50972720 51467524 51921548 52321852 52646512 52859804 52918448 
836.955 52782872 52424460 51838732 51046576 50094900 49044204 47958112 
840.329 46898064 45910304 45026764 44265452 43631596 43121484 42724632 
843.704 42427032 42212080 42063304 41966980 41913076 41895816 41912200 
847.079 41960960 42039540 42144640 42271532 42416508 42577544 42755196 
850.454 42950960 43166352 43400924 43652956 43919536 44199712 44494824 
853.829 44808980 45147628 45515092 45913064 46340892 46796380 47278540 
857.204 47789120 48332704 48916096 49546800 50231016 50976188 51792252 
860.578 52694356 53705820 54857856 56186248 57731800 59534600 61631488 
863.953 64053544 66816688 69910608 73280128 76816544 80341856 83606304 
867.328 86337256 88254792 89131504 88851744 87423768 84989552 81779608 
870.703 78092792 74234944 70462080 66983976 63930416 61357244 59265972 
874.078 57616920 56350468 55396860 54693112 54186104 53832608 53602792 
877.452 53474756 53431360 53460176 53550164 53692620 53882080 54116064 
880.827 54393996 54716412 55082624 55489956 55934604 56412568 56921468 
884.202 57462088 58037696 58652136 59308204 60006504 60745748 61524504 
887.577 62343368 63206428 64121360 65099924 66155628 67305272 68568432 
890.952 69964048 71507480 73200824 75023800 76921712 78801040 80544624 
894.327 82013664 83080856 83657640 83702472 83231496 82305680 81019920 
897.701 79478632 77780408 76018192 74267184 72589624 71037712 69647696 
901.076 68442192 67428320 66599132 65937212 65420724 65030260 64750404 
904.451 64570784 64484680 64484328 64560944 64705752 64910852 65172956 
907.826 65493456 65877668 66330888 66857384 67459088 68138416 68899952 
911.201 69755072 70719048 71810096 73045312 74436416 75989384 77705912 
914.575 79585712 81628232 83831664 86189216 88683944 91286296 93956984 
917.950 96646104 99297912 101853776 104238872 106360360 108105608 109336888 
921.325 109923184 109768328 108839888 107196528 104988288 102450296 99845152 
924.700 97440936 95477176 94121152 93478824 93590808 94442712 95976304 
928.075 98095592 100681760 103581928 106623136 109633200 112432032 114858504 
931.450 116781008 118087272 118697560 118565064 117679552 116078592 
934.342 113854392 111165808 108217824 105258968 102567272 100398216 98985680 
937.717 98517952 99110704 100813928 103594424 107338496 111826144 116732720 
941.092 121664784 126140816 129675432 131860256 132393896 131168992 
943.985 128280160 124016640 118789160 113052264 107258192 101757512 96793648 
947.359 92504976 88927936 86033880 83752576 82001104 80692664 79747120 
950.734 79099216 78691736 78478192 78424528 78503680 78695944 78988160 
954.109 79368224 79824608 80345440 80917432 81529128 82171736 82839968 
957.484 83531712 84246200 84981624 85734264 86498328 87266896 88034912 
960.859 88799496 89560624 90320032 91079384 91839280 92599288 93358152 
964.233 94116128 94874888 95637176 96405920 97182008 97964376 98750440 
967.608 99538232 100328072 101124128 101932616 102761048 103615448 104498720 
970.983 105412352 106357528 107337736 108360000 109433736 110568472 
973.876 111771416 113045384 114389416 115800824 117277552 118819952 
976.768 120429880 122108256 123852464 125654128 127500520 129374992 
979.661 131261320 133144752 135009888 136840208 138615120 140308752 
982.554 141895376 143353424 144671120 145849504 146901664 147847616 
985.447 148707824 149500336 150240352 150940576 151616112 152284608 
988.339 152963408 153667056 154402448 155166352 155948512 156736384 
991.232 157520944 158298528 159071632 159844480 160618976 161391744 
994.125 162155600 162901264 163623296 164319744 164991600 165638320 
997.017 166254032 166826720 167342400 167789200 168164976 168478496 
999.910 168748928 168999744 169251920 169522464 169823648 170165136 
1002.803 170559888 171022336 171567568 172206560 172941680 173766528 
1005.695 174669264 175640080 176676944 177789344 178995152 180316528 
1008.588 181774192 183381984 185149456 187081296 189177840 191428336 
1011.481 193798544 196222944 198587616 200740848 202518368 203759584 
1014.374 204358192 204284512 203596720 202425216 200946624 199360000 
1017.266 197837696 196517344 195491712 194802336 194452000 194412192 
1020.159 194638608 195076640 195674224 196391392 197200912 198089904 
1023.052 199056016 200099904 201219408 202407152 203650032 204934672 
1025.945 206251808 207596720 208968400 210365968 211782880 213206752 
1028.838 214620896 216008528 217358336 218664128 219922400 221127424 
1031.731 222265920 223317184 224258592 225071792 225750288 226301424 
1034.624 226744144 227101792 227393712 227634672 227833072 227995184 
1037.517 228127728 228236304 228320400 228366112 228342656 228202368 
1040.410 227884640 227331888 226494576 225337424 223842608 222004752 
1043.303 219829328 217332752 214546608 211522032 208324976 205038544 
1046.196 201750016 198535232 195459808 192569680 189893328 187448672 
1049.089 185245040 183285008 181562944 180063760 178761712 177621376 
1051.982 176605680 175680848 174819648 174005264 173226048 172471568 
1054.875 171728432 170978176 170198432 169368624 168468864 167482128 
1057.768 166392672 165181328 163825904 162304832 160600320 158706976 
1060.661 156633712 154405136 152054784 149618992 147133664 144628496 
1063.554 142129040 139659744 137243200 134901568 132654744 130515768 
1066.448 128491592 126582640 124785688 123097648 121517400 120046824 
1069.341 118688544 117443488 116308856 115277584 114339448 113484272 
1072.234 112702504 111986448 111329800 110724296 110160064 109625696 
1075.127 109110040 108605776 108111472 107632384 107178376 106761736 
1078.020 106395120 106088192 105849840 105687312 105606808 105612728 
1080.913 105705016 105876568 106110400 106380176 106653800 106894328 
1083.806 107067960 107147672 107114512 106961088 106691584 106323240 
1086.699 105884768 105415216 104963312 104577376 104304344 104184584 
1089.592 104247000 104512840 104997576 105714232 106677944 107907056 
1092.485 109420776 111236560 113364368 115800304 118519176 121468264 
1095.378 124565544 127685744 130671528 133341896 135494832 136952416 
1098.271 137581872 137319824 136190976 134303040 131832600 128978880 
1101.164 125950408 122936320 120076752 117474536 115189280 113241440 
1104.057 111626616 110321416 109293768 108506608 107924984 107519896 
1106.950 107266128 107144280 107137192 107226256 107390632 107606488 
1109.844 107846864 108086776 108304760 108484520 108616872 108698360 
1112.737 108728152 108705256 108622240 108459896 108185216 107746424 
1115.630 107078768 106120008 104817352 103151168 101143824 98866336 96425904 
1119.005 93944064 91545008 89323528 87336776 85604912 84114808 82834272 
1122.380 81723936 80750920 79892144 79136864 78484984 77945400 77534760 
1125.755 77274360 77190008 77305912 77636448 78177832 78897040 79730840 
1129.131 80577408 81309392 81792288 81887816 81485592 80515752 78956128 
1132.506 76841104 74255272 71329536 68211024 65051428 61990628 59131624 
1135.881 56544680 54266252 52302788 50642792 49264012 48142312 47252784 
1139.256 46572024 46078680 45750644 45566128 45506148 45553396 45694356 
1142.632 45919212 46218628 46583424 47002500 47462340 47949600 48452308 
1146.007 48961156 49471004 49979116 50484476 50987028 51487032 51986904 
1149.382 52490300 53003868 53534912 54088964 54669284 55274164 55899028 
1152.757 56536944 57181620 57828768 58475064 59117880 59753092 60374008 
1156.133 60972096 61538056 62062288 62536836 62953556 63302940 63573584 
1159.508 63751288 63820212 63766444 63578912 63251348 62782340 62173344 
1162.883 61428272 60551972 59551552 58436436 57219340 55917380 54549876 
1166.258 53136408 51697332 50250060 48809748 47390568 46004592 44662764 
1169.634 43375696 42151176 40994944 39909564 38894968 37949020 37069680 
1173.009 36254960 35504616 34818676 34196724 33636776 33135116 32686796 
1176.384 32286584 31930320 31615146 31339482 31101792 30899878 30730990 
1179.759 30592386 30483218 30405776 30365728 30371094 30431258 30553494 
1183.135 30742834 31002068 31332396 31735256 32213032 32768860 33406376 
1186.510 34129228 34942008 35852460 36873664 38024380 39329944 40816048 
1189.885 42501676 44391608 46468836 48691308 50988928 53276592 55458484 
1193.260 57438184 59140924 60517120 61554972 62281328 62761472 63091048 
1196.635 63374320 63722892 64234556 64977384 65988468 67262952 68755448 
1200.011 70377520 72009040 73513184 74737672 75545728 75828568 75512416 
1203.386 74572480 73028608 70942696 68403208 65521776 62424152 59229744 
1206.761 56054732 52999712 50136884 47516380 45161008 43070732 41228644 
1210.136 39607604 38178984 36914428 35791680 34795448 33914940 33143592 
1213.512 32477148 31912134 31446300 31077838 30805538 30628366 30543752 
1216.887 30547770 30634302 30796752 31028758 31325806 31686354 32110128 
1220.262 32597494 33147200 33755620 34416784 35123716 35869156 36647096 
1223.637 37451460 38275736 39112096 39951628 40785652 41608740 42419836 
1227.013 43223808 44029900 44851448 45701352 46592864 47538112 48547852 
1230.388 49632860 50802584 52063772 53419596 54868384 56405552 58024780 
1233.763 59722144 61498204 63358216 65310420 67363424 69523792 71794856 
1237.138 74176776 76666808 79258296 81936920 84672104 87414736 90089984 
1240.514 92596296 94823488 96655744 97991072 98762552 98944560 98564560 
1243.889 97698904 96475640 95057392 93613792 92321296 91331800 90759368 
1247.264 90687376 91160712 92196480 93794728 95946840 98641608 101861768 
1250.639 105580440 109746536 114267072 119009048 123781864 128337640 
1253.532 132407024 135688960 137889584 138773632 138174096 136036448 
1256.426 132425416 127521096 121586656 114917208 107832376 100623016 
1259.319 93533072 86772168 80489624 74780960 69696864 65241448 61385180 
1262.694 58072348 55236644 52805732 50708552 48886096 47288068 45875540 
1266.069 44622808 43512288 42535260 41690320 40982788 40423696 40027776 
1269.444 39812592 39793524 39979744 40369952 40948560 41684304 42526928 
1272.820 43413336 44269600 45012208 45563772 45856536 45842616 45505380 
1276.195 44860268 43955392 42856960 41644076 40393912 39166664 38006916 
1279.570 36939172 35971300 35100400 34318840 33617836 32989162 32426160 
1282.945 31923186 31475012 31077446 30727006 30421448 30158970 29937368 
1286.321 29753522 29603382 29482868 29388728 29319812 29276248 29258880 
1289.696 29266784 29296026 29339698 29389756 29438650 29482550 29521700 
1293.071 29560536 29605300 29662126 29735534 29828436 29942232 30079102 
1296.446 30241200 30431008 30649840 30897104 31169996 31464682 31778674 
1299.822 32111198 32464184 32841046 33244378 33674904 34130516 34607740 
1303.197 35103092 35615160 36144792 36693784 37263468 37852848 38458552 
1306.572 39075696 39699560 40326680 40955512 41584564 42210876 42829172 
1309.947 43431680 44010540 44559728 45076680 45562556 46021648 46459248 
1313.323 46880236 47289140 47690000 48086164 48478832 48863736 49228308 
1316.698 49547024 49783472 49896264 49843560 49596828 49146632 48505652 
1320.073 47705236 46788372 45803288 44791864 43789268 42823208 41913116 
1323.448 41074884 40321516 39661476 39099476 38635688 38265532 37982612 
1326.823 37779828 37652104 37595020 37604520 37675268 37799528 37968400 
1330.199 38173156 38406028 38661188 38933168 39214928 39496620 39765856 
1333.574 40008300 40212168 40369476 40477340 40536916 40551468 40523860 
1336.949 40455080 40345404 40195560 40009208 39794504 39563140 39327184 
1340.324 39097012 38878412 38672924 38479224 38296072 38123812 37964968 
1343.700 37823060 37701508 37603400 37530964 37487468 37478840 37512612 
1347.075 37597944 37743104 37953540 38231304 38575684 38985684 39460184 
1350.450 39999292 40601456 41261436 41969132 42709864 43466176 44221980 
1353.825 44964104 45681436 46363308 46995484 47557484 48025688 48376000 
1357.201 48590024 48661064 48596616 48418596 48157344 47851264 47540776 
1360.576 47263392 47057256 46958936 47000504 47211228 47610984 48206952 
1363.951 48994348 49956292 51066960 52288400 53571792 54853196 56049080 
1367.326 57072400 57840124 58292304 58409676 58216180 57773240 57157620 
1370.702 56451660 55727368 55035456 54412396 53879984 53448600 53118136 
1374.077 52874924 52690460 52516996 52297256 51974836 51500724 50848624 
1377.452 50018376 49039452 47963740 46857276 45790368 44819372 43986628 
1380.827 43320448 42837728 42551520 42472152 42607512 42965844 43559976 
1384.203 44413372 45566720 47073544 48983368 51315352 54023636 56982400 
1387.578 59980940 62773764 65133220 66876324 67903544 68190168 67776792 
1390.953 66750920 65232016 63360364 61268680 59094076 56974768 55037716 
1394.328 53403408 52161272 51350520 50956888 50922276 51170988 51621200 
1397.704 52203496 52866244 53570780 54292684 55017596 55735880 56438640 
1401.079 57114268 57746748 58318600 58813540 59220932 59541060 59785072 
1404.454 59974588 60132600 60281112 60436036 60606292 60797500 61012132 
1407.829 61248956 61499308 61744192 61955316 62095776 62131252 62039776 
1411.205 61817112 61478276 61050420 60565952 60052196 59528256 59006652 
1414.580 58493792 57993952 57508684 57035336 56564872 56082892 55575652 
1417.955 55039444 54492848 53978496 53554136 53267600 53135772 53142212 
1421.330 53246776 53404644 53576440 53742228 53903088 54078496 54294412 
1424.706 54570840 54911812 55302988 55718892 56130476 56516376 56863752 
1428.081 57169412 57437392 57678444 57909404 58152612 58440188 58810276 
1431.456 59298520 59934872 60734200 61697552 62817640 64090556 65525396 
1434.831 67144560 68976576 71034976 73294904 75682368 78093944 80433912 
1438.207 82640648 84684464 86547016 88205792 89615736 90712616 91433664 
1441.582 91725040 91561496 90950512 89928920 88553912 86888872 85002776 
1444.957 82955864 80792064 78543104 76229064 73873280 71520760 69243312 
1448.332 67134928 65293432 63790472 62662288 61908348 61498048 61379112 
1451.708 61479652 61718944 62001672 62226644 62298004 62114964 61579216 
1455.083 60605264 59145824 57243952 55064232 52886000 50987996 49536772 
1458.458 48554856 47967768 47674248 47586988 47647844 47818896 48070100 
1461.833 48374148 48700056 49013600 49285428 49494216 49634676 49719676 
1465.208 49778344 49846200 49953280 50122524 50366952 50690900 51092340 
1468.584 51563364 52090628 52651072 53212356 53730492 54143840 54384416 
1471.959 54390352 54127172 53604140 52868636 51985968 51013596 49996740 
1475.334 48972020 47973616 47043228 46225372 45555752 45057528 44734672 
1478.709 44576764 44566632 44689312 44938012 45315672 45833300 46503684 
1482.085 47336584 48333148 49486828 50786308 52223636 53799868 55528548 
1485.460 57436408 59556608 61919852 64545648 67438424 70591408 73996240 
1488.835 77651624 81562992 85726512 90119624 94684112 99332184 103964072 
1492.210 108489672 112841088 116952344 120760688 124186360 127114456 
1495.104 129421232 131000992 131814288 131914664 131449584 130618528 
1497.997 129603472 128551992 127567664 126718176 126059936 125641968 
1500.890 125498312 125644760 126065072 126710504 127489048 128266840 
1503.783 128865136 129020528 128392320 126583176 123227448 118201784 
1506.676 111781736 104587416 97281232 90287368 83721920 77506952 71508568 
1510.051 65635144 59868468 54282732 49014044 44197732 39948504 36314864 
1513.426 33276752 30769188 28704158 26995042 25561560 24342272 23296726 
1516.802 22401310 21649880 21042564 20575108 20231372 19980392 19778312 
1520.177 19582182 19363000 19123948 18901152 18746276 18695804 18753264 
1523.552 18892916 19075542 19267494 19449136 19623050 19808310 20030944 
1526.927 20308896 20643240 21021522 21426172 21844994 22275106 22722958 
1530.302 23198570 23708504 24253198 24826116 25417358 26020590 26636218 
1533.678 27271384 27931506 28615070 29309214 29994134 30645326 31238814 
1537.053 31756892 32184806 32514568 32742780 32870316 32896798 32823424 
1540.428 32657110 32415058 32122578 31804238 31471950 31121156 30731844 
1543.803 30281662 29757710 29168438 28543198 27921718 27335600 26792808 
1547.179 26278290 25761146 25211294 24614232 23980312 23342282 22742858 
1550.554 22212120 21755352 21354434 20980522 20609918 20234078 19864426 
1553.929 19524820 19239404 19017140 18848034 18704348 18550992 18347710 
1557.304 18053878 17637106 17087890 16442105 15780685 15194999 14740304 
1560.680 14421294 14211238 14071337 13965252 13861519 13739582 13592347 
1564.055 13428517 13269395 13140077 13059315 13029746 13038828 13063822 
1567.430 13084037 13086769 13073178 13057539 13061569 13104936 13196055 
1570.805 13333043 13507980 13713797 13945373 14200077 14474971 14763854 
1574.181 15059171 15355205 15652884 15964206 16309293 16709676 17173988 
1577.556 17697636 18267944 18873052 19506832 20169828 20866790 21600568 
1580.931 22366146 23149254 23924920 24661854 25329818 25899942 26348944 
1584.306 26660140 26822272 26830908 26689488 26410314 26014294 25529406 
1587.682 24990232 24429716 23875034 23342876 22836128 22347970 21866460 
1591.057 21381964 20889806 20391156 19889746 19389018 18890978 18397382 
1594.432 17914530 17455048 17037162 16681613 16403394 16206374 16083675 
1597.807 16021170 16005389 16028527 16090965 16198844 16358836 16573066 
1601.183 16837824 17147308 17498892 17897888 18358770 18900116 19539896 
1604.558 20289660 21152862 22127526 23210348 24399434 25692274 27081082 
1607.933 28547372 30057796 31567432 33028704 34396876 35642104 36753024 
1611.308 37736056 38610448 39398576 40118256 40775204 41361136 41854076 
1614.684 42224824 42440364 42472812 42307468 41947784 41410156 40715156 
1618.059 39876400 38898340 37780080 36518624 35113048 33563956 31880644 
1621.434 30081908 28201692 26300432 24455970 22750854 21253132 19995482 
1624.809 18974044 18155818 17496338 16951020 16484607 16076833 15720490 
1628.185 15418543 15177225 15000449 14886181 14827104 14811848 14827687 
1631.560 14862625 14903910 14938270 14951473 14927056 14850179 14712574 
1634.935 14520638 14298583 14083761 13912253 13802274 13750937 13740437 
1638.310 13748406 13753809 13741840 13706513 13649648 13579526 13506613 
1641.686 13439624 13382349 13331916 13280122 13215217 13125016 12998233 
1645.061 12828519 12616469 12374111 12123542 11893207 11710274 11590778 
1648.436 11536877 11538374 11577778 11631547 11671233 11666161 11580194 
1651.811 11383548 11070631 10684885 10313630 10038611 9891165 9848864 
1655.187 9868422 9909708 9947134 9968492 9970358 9955305 9928319 9893945 
1659.044 9854491 9809176 9754818 9687288 9602795 9499659 9380396 9252637 
1662.901 9128029 9019253 8936278 8883145 8857376 8850884 8852202 8849497 
1666.759 8831067 8789037 8719662 8625084 8512954 8394840 8284054 8191426 
1670.616 8123496 8082109 8064084 8062024 8064522 8058616 8030634 7970828 
1674.474 7878302 7765286 7654592 7569011 7522620 7514090 7531486 7557412 
1678.331 7577946 7586308 7584588 7581486 7586814 7605797 7634190 7658538 
1682.188 7657964 7612271 7510719 7363995 7204856 7077196 7010956 7008902 
1686.046 7053992 7122092 7193941 7256032 7301923 7329757 7341281 7340439 
1689.903 7333564 7328678 7334575 7357929 7401506 7461806 7529261 7588263 
1693.761 7622185 7617329 7570865 7495919 7421223 7378723 7385126 7436188 
1697.618 7509943 7577541 7609540 7584891 7500538 7379397 7264994 7196838 
1701.476 7192324 7241106 7319546 7401101 7465075 7497807 7494268 7458266 
1705.333 7402584 7344449 7298823 7273687 7269003 7278943 7295083 7310044 
1709.190 7319715 7323388 7323455 7322916 7324466 7328779 7334912 7340911 
1713.048 7345157 7347414 7348156 7347583 7343842 7331913 7305360 7258929 
1716.905 7193099 7117848 7050894 7011528 7011091 7049951 7118353 7202565 
1720.763 7288040 7364062 7425335 7471783 7507449 7538566 7571506 7610720 
1724.620 7658335 7714118 7776586 7843753 7912550 7979265 8039579 8089839 
1728.478 8128291 8156819 8180014 8203515 8230528 8258691 8278785 8274698 
1732.335 8226915 8120795 7955676 7753817 7555153 7402921 7320119 7303271 
1736.192 7330902 7375959 7415324 7431469 7415358 7367331 7296532 7217355 
1740.050 7144524 7088276 7051130 7029948 7018364 7010653 7002302 6991392 
1743.907 6978126 6963715 6950314 6938732 6929710 6922976 6917960 6913449 
1747.765 6908433 6901599 6891196 6875139 6851610 6819700 6781264 6741518 
1751.622 6708238 6688990 6688284 6705815 6736100 6769282 6793784 6799876 
1755.479 6781903 6741687 6688048 6634854 6594819 6574433 6571944 6578806 
1759.337 6584121 6576922 6550919 6505511 6446790 6384849 6330851 6293870 
1763.194 6278170 6283616 6306309 6340130 6377686 6410572 6431388 6434986 
1767.052 6420123 6391002 6355293 6321269 6293331 6269800 6243547 6204826 
1770.909 6145473 6064355 5969916 5878519 5807156 5766056 5754842 5765049 
1774.767 5785262 5805914 5822502 5835062 5846211 5858067 5870661 5880501 
1778.624 5883121 5875027 5855917 5829756 5803093 5782644 5771496 5768575 
1782.481 5769212 5767970 5760482 5745709 5725766 5704850 5687560 5677154 
1786.339 5675408 5682357 5697598 5720427 5748764 5778916 5804638 5818574 
1790.196 5813402 5784524 5733119 5666814 5598976 5543062 5508832 5498732 
1794.054 5509068 5531954 5559406 5585249 5604950 5616094 5617302 5608139 
1797.911 5588605 5559876 5524403 5485578 5447159 5412602 5383918 5361408 
1801.769 5344569 5332795 5325684 5323772 5327092 5335277 5346581 5358658 
1805.626 5368687 5375196 5377678 5377376 5375598 5373351 5370298 5365031 
1809.483 5356108 5342791 5325549 5306967 5289861 5276278 5266987 5261286 
1813.341 5257966 5256222 5256155 5259408 5268094 5283623 5306397 5334673 
1817.198 5365501 5396062 5424042 5448166 5468700 5486417 5502222 5517155 
1821.056 5531719 5546049 5559641 5571119 5578335 5579308 5573334 5561688 
1824.913 5548532 5539974 5540814 5553264 5574643 5598237 5614449 5614718 
1828.771 5594210 5555211 5506181 5459339 5425552 5410220 5411461 5421962 
1832.628 5433370 5438972 5435617 5423673 5405925 5385729 5364930 5344535 
1836.485 5324342 5305122 5288989 5280000 5281946 5297911 5327730 5368687 
1840.343 5415286 5461050 5499437 5524672 5532189 5520309 5491081 5451319 
1844.200 5411931 5385461 5381670 5404483 5451252 5514806 5585416 5654058 
1848.058 5715459 5768473 5815652 5861089 5908412 5958494 6009456 6057769 
1851.915 6100913 6138415 6172594 6207649 6247245 6293399 6345207 6400585 
1855.772 6456576 6511700 6565956 6620588 6676439 6733947 6792168 6850196 
1859.630 6908029 6967519 7031665 7103567 7184846 7274023 7367365 7459379 
1863.487 7545309 7621376 7685146 7735029 7768186 7780060 7765252 7718940 
1867.345 7640125 7533138 7409325 7283391 7169822 7078813 7011966 6964758 
1871.202 6928565 6895000 6857938 6813810 6761643 6701642 6634921 6562525 
1875.060 6486307 6409059 6333641 6262640 6196759 6134652 6072251 6005659 
1878.917 5931991 5851820 5768406 5687090 5613241 5549506 5495812 5449273 
1882.774 5406462 5365467 5326556 5291739 5263936 5244886 5234523 5230432 
1886.632 5230365 5231740 5233987 5236502 5240057 5244752 5249883 5255551 
1890.489 5261688 5270408 5283455 5302472 5327461 5355638 5382643 5404416 
1894.347 5417769 5422331 5420620 5415856 5411461 5408878 5408006 5408542 
1898.204 5410622 5416225 5428303 5449743 5480948 5520141 5562762 5603574 
1902.062 5638818 5667318 5691085 5713008 5736543 5763001 5792347 5823611 
1905.919 5855581 5888092 5921948 5957117 5992793 6026388 6054208 6074133 
1909.776 6085624 6091370 6095637 6102829 6115430 6133476 6154681 6176829 
1913.634 6198204 6219110 6239883 6260758 6278876 6290239 6289096 6272624 
1917.491 6241631 6203010 6166847 6141944 6133610 6140768 6157974 6178139 
1921.349 6195616 6208354 6218136 6228185 6241160 6257564 6275313 6291751 
1925.206 6305905 6319453 6335826 6358891 6390565 6429034 6469659 6507832 
1929.063 6540627 6568983 6597107 6629975 6670854 6719208 6770561 6818791 
1932.921 6858745 6888268 6907995 6920721 6929070 6934390 6936342 6934793 
1936.778 6931460 6930148 6936208 6954220 6985432 7026042 7069282 7107070 
1940.636 7134319 7150823 7161265 7173460 7194346 7226754 7269273 7316514 
1944.493 7362849 7404775 7441581 7474817 7506370 7537959 7569685 7601683 
1948.351 7634460 7670948 7713983 7766905 7830157 7901887 7977679 8052405 
1952.208 8123564 8190582 8255078 8318739 8381733 8441257 8493660 8535357 
1956.065 8564926 8585744 8603588 8625760 8657058 8699480 8750799 8806417 
1959.923 8862009 8913786 8961747 9006229 9048517 9089014 9128570 9167180 
1963.780 9206709 9248372 9292748 9338517 9381277 9415474 9436637 9444053 
1967.638 9441311 9436502 9438465 9454178 9485503 9530039 9582166 9637790 
1971.495 9695419 9755699 9822359 9897708 9981444 10071300 10164804 10262331 
1975.353 10368668 10490783 10634696 10800804 10980805 11158095 11312805 
1978.728 11428960 11498021 11520783 11505642 11464986 11410114 11350046 
1982.103 11289578 11231907 11179207 11133686 11098707 11077088 11070291 
1985.478 11078040 11099896 11135589 11185496 11250846 11332599 11429028 
1988.854 11535754 11646046 11753201 11852209 11941908 12023960 12102860 
1992.229 12182184 12264384 12350555 12440391 12534611 12634514 12741912 
1995.604 12858654 12983143 13111288 13236771 13352621 13455516 13544008 
1998.979 13620996 13690954 13757572 13822181 13884782 13942430 13992763 
2002.354 14035334 14071680 14105187 14140751 14183233 14236677 14303925 
2005.730 14387077 14486173 14599753 14724331 14854361 14983539 15107268 
2009.105 15222074 15329598 15433477 15537449 15646426 15762027 15884636 
2012.480 16013606 16148666 16289271 16435258 16585045 16734745 16878882 
2015.855 17011558 17129386 17233384 17329098 17423558 17523662 17632722 
2019.231 17748786 17865950 17976928 18075812 18159170 18226166 18276616 
2022.606 18309242 18322064 18311316 18275754 18216318 18138164 18047522 
2025.981 17950960 17852312 17752652 17650598 17543600 17430800 17313374 
2029.356 17193844 17075310 16959496 16846436 16736157 16629694 16530864 
2032.732 16445961 16382026 16344454 16333755 16345073 16368814 16395101 
2036.107 16416194 16430028 16437735 16443998 16452601 16465886 16483299 
2039.482 16503295 16524635 16546974 16570862 16595958 16620159 16637750 
2042.857 16642157 16626665 16588142 16526701 16446957 16355807 16260445 
2046.233 16166996 16080478 16003087 15935607 15877591 15824806 15770033 
2049.608 15704310 15617161 15501221 15354107 15181102 14992560 14802146 
2052.983 14622747 14461440 14318205 14185733 14052753 13908832 13747927 
2056.358 13569612 13379821 13186423 12997072 12817086 12649830 12496108 
2059.734 12357919 12237459 12136966 12057583 11997493 11951035 11910439 
2063.109 11867702 11816866 11756366 11688218 11616642 11546064 11479411 
2066.484 11416918 11357597 11299781 11241529 11182029 11120020 11053704 
2069.859 10981316 10901226 10813610 10720306 10625494 10533453 10447370 
2073.235 10368228 10293340 10218771 10140756 10057024 9968120 9876285 
2076.610 9784369 9694335 9605742 9517372 9428138 9338449 9251181 9170056 
2080.467 9098522 9038637 8989044 8946627 8907394 8868806 8829816 8791100 
2084.325 8753537 8716958 8679536 8638468 8590813 8535459 8473624 8408116 
2088.182 8342010 8277232 8212833 8147028 8076944 8000966 7920547 7838794 
2092.040 7760833 7691183 7633347 7588600 7557042 7537150 7526935 7523664 
2095.897 7523428 7521574 7513483 7496358 7469558 7436020 7401236 7370702 
2099.754 7347516 7331307 7317457 7300710 7276011 7242521 7203677 7166723 
2103.612 7138327 7124045 7124820 7137586 7157762 7180028 7201218 7220521 
2107.469 7238006 7253033 7264489 7270014 7267453 7256436 7239017 7218803 
2111.327 7200140 7185924 7176559 7170428 7164971 7157796 7148667 7138765 
2115.184 7129771 7123304 7119835 7118084 7116130 7112392 7106026 7096932 
2119.042 7085818 7072347 7056350 7037491 7015502 6992469 6970516 6952099 
2122.899 6938732 6929104 6920115 6907625 6888268 6861741 6830269 6798597 
2126.756 6771638 6752287 6740677 6734182 6728764 6720857 6708069 6690773 
2130.614 6670619 6650431 6632398 6620286 6617729 6629369 6659313 6710088 
2134.471 6779749 6861438 6944759 7018566 7073963 7108518 7125595 7133409 
2138.329 7141089 7154663 7175515 7201117 7226451 7246497 7259839 7266948 
2142.186 7269475 7268498 7262703 7248855 7224396 7188012 7141392 7089792 
2146.043 7038973 6993749 6956476 6926612 6901565 6879683 6859789 6841175 
2149.901 6823638 6805160 6782139 6750638 6707565 6651575 6584424 6508168 
2153.758 6424427 6334313 6238740 6139928 6047421 5979120 5957050 6006668 
2157.616 6144767 6372172 6670753 7005736 7337103 7628693 7858935 8020744 
2161.473 8120222 8169344 8181702 8169007 8139634 8100237 8055780 8011294 
2165.331 7970053 7934011 7902967 7875164 7848712 7822397 7796252 7771020 
2169.188 7747307 7724506 7701402 7676142 7647915 7618172 7590186 7568775 
2173.045 7557514 7559301 7574877 7602897 7641946 7688991 7741539 7795443 
2176.903 7844259 7882149 7902866 7904215 7890145 7869766 7856607 7863726 
2180.760 7899862 7967488 8060033 8165732 8271895 8367209 8444535 8501600 
2184.618 8538534 8556714 8558302 8545258 8520287 8487815 8452677 8420278 
2188.475 8393422 8373221 8357108 8342314 8325899 8307289 8287599 8270072 
2192.333 8255415 8244474 8234175 8219891 8198551 8168095 8129033 8085249 
2196.190 8041738 8002924 7972279 7951930 7942077 7942650 7952133 7968297 
2200.047 7987905 8007142 8021487 8028271 8026314 8016492 8001371 7983754 
2203.905 7965463 7947779 7931244 7916228 7905160 7901550 7908670 7929152 
2207.762 7962189 8004105 8048523 8089569 8123193 8148716 8168906 8187442 
2211.620 8208276 8232183 8257272 8280237 8297259 8305803 8306074 8299757 
2215.477 8289862 8279494 8271153 8266053 8264973 8267809 8273787 8280845 
2219.334 8285674 8284324 8272773 8248898 8212496 8166812 8116879 8068168 
2223.192 8025165 7990099 7962763 7941671 7924563 7910290 7898108 7888020 
2227.049 7880124 7873477 7867134 7860183 7852087 7843618 7836601 7832383 
2230.907 7831743 7834677 7840177 7846857 7854448 7863423 7875906 7892777 
2234.764 7915587 7943257 7974270 8006232 8036338 8063308 8086801 8106820 
2238.622 8124408 8141052 8157798 8176164 8197267 8221343 8248155 8275780 
2242.479 8301277 8322049 8335897 8342381 8343463 8342111 8341571 8343969 
2246.336 8349812 8357210 8363898 8367377 8366735 8361905 8354440 8345253 
2250.194 8335558 8325697 8315867 8307121 8301277 8300366 8306411 8319684 
2254.051 8338126 8357683 8373896 8382510 8381463 8371532 8354643 8334445 
2257.909 8313537 8293274 8274158 8255449 8236370 8216684 8196187 8174949 
2261.766 8153105 8130451 8107394 8084641 8063915 8047206 8036237 8032052 
2265.624 8033908 8040253 8048354 8055983 8061484 8064320 8064557 8062936 
2269.481 8059695 8055341 8050278 8045687 8043055 8044135 8049670 8059695 
2273.338 8072252 8084641 8094936 8101452 8104693 8106583 8109081 8114280 
2277.196 8122889 8134570 8148074 8162659 8177751 8193453 8209998 8227624 
2281.053 8244913 8260785 8273720 8282635 8287701 8289896 8289457 8286992 
2284.911 8281453 8271423 8255280 8232756 8204797 8173667 8142335 8113538 
2288.768 8088860 8069079 8053654 8041975 8033604 8028338 8026179 8026617 
2292.625 8028440 8030059 8029924 8027056 8021825 8015445 8009337 8005421 
2296.483 8004409 8006197 8010147 8015378 8021082 8026819 8032457 8037418 
2300.340 8040895 8042110 8040624 8036979 8033030 8031308 8034650 8045013 
2304.198 8062835 8087308 8116205 8147095 8177921 8207667 8236235 8263723 
2308.055 8290369 8315834 8339511 8360858 8379301 8395212 8408893 8421292 
2311.913 8433082 8444670 8456055 8467171 8478084 8488930 8500351 8512853 
2315.770 8527044 8543602 8562830 8584797 8609165 8635426 8662804 8690455 
2319.627 8718141 8745964 8774601 8804355 8834550 8863023 8885411 8896335 
2323.485 8891161 8866878 8824440 8768650 8708067 8651785 8608928 8585744 
2327.342 8584662 8604568 8641273 8690015 8745964 8805200 8865356 8924541 
2331.200 8980723 9032413 9077748 9115677 9145895 9168974 9185421 9196183 
2335.057 9201124 9200210 9193306 9180819 9163864 9144338 9124137 9104274 
2338.915 9084853 9065297 9044423 9021655 8997197 8971894 8947101 8923357 
2342.772 8899750 8873980 8843140 8804490 8757459 8703909 8648371 8597842 
2346.629 8559553 8539750 8542859 8570536 8621602 8692449 8777812 8870835 
2350.487 8964216 9051493 9127893 9191106 9241670 9282052 9315733 9345219 
2354.344 9372068 9396106 9416456 9432201 9443071 9449572 9452959 9454314 
2358.202 9454889 9455295 9456548 9458986 9463118 9468367 9473176 9475038 
2362.059 9471280 9460037 9441378 9417776 9393567 9374065 9362892 9361741 
2365.917 9369155 9381784 9394921 9404808 9409210 9407246 9399797 9387811 
2369.774 9372304 9354496 9335165 9315970 9298638 9285267 9277042 9274164 
2373.631 9275620 9279614 9284150 9287772 9289159 9289024 9287196 9283947 
2377.489 9279580 9273928 9267022 9259576 9252569 9246815 9243025 9241095 
2381.346 9239741 9238015 9234563 9228978 9221904 9214661 9208975 9206268 
2385.204 9207283 9211920 9219874 9230772 9244040 9259881 9278463 9299417 
2389.061 9322605 9347522 9373726 9400846 9428951 9457937 9487670 9517337 
2392.918 9546262 9573935 9600153 9625763 9652154 9681019 9713377 9749769 
2396.776 9789249 9830358 9871337 9910522 9946694 9978664 10005753 10026708 
2400.633 10040543 10046680 10045120 10037254 10025319 10011891 9999244 
2404.009 9988937 9981275 9975647 9971272 9967136 9962831 9958220 9952999 
2407.866 9947134 9940150 9932624 9925404 9920488 9920590 9927810 9943575 
2411.723 9967713 9998735 10033931 10071401 10109384 10147743 10187326 
2415.099 10229220 10274273 10322792 10374302 10428228 10484232 10541838 
2418.474 10601183 10661861 10723193 10783345 10841228 10895416 10945193 
2421.849 10990593 11031918 11068965 11101359 11128076 11147997 11160950 
2425.224 11167783 11170027 11170504 11171421 11174073 11179207 11186414 
2428.600 11195050 11204638 11215212 11226704 11239115 11251968 11264414 
2431.975 11275874 11286279 11296142 11307262 11321478 11339503 11361577 
2435.350 11386338 11411985 11436954 11460802 11483664 11506901 11531672 
2438.725 11558382 11586456 11614702 11641792 11667148 11691281 11715074 
2442.101 11740366 11768010 11798241 11830621 11864195 11898316 11932747 
2445.476 11967554 12003454 12040040 12076831 12112843 12146643 12177549 
2448.851 12204879 12228939 12250035 12268440 12284630 12298571 12310501 
2452.226 12320762 12329829 12338317 12346021 12352600 12357373 12359452 
2455.602 12358975 12356861 12354747 12355328 12360713 12372100 12389624 
2458.977 12412433 12439129 12468386 12499860 12533485 12569978 12610192 
2462.352 12654367 12702744 12754844 12810499 12869201 12931186 12996730 
2465.727 13065905 13139325 13217062 13298775 13384570 13473903 13565920 
2469.103 13660145 13755690 13852180 13949991 14049947 14153383 14261876 
2472.478 14376801 14499191 14629703 14768516 14916185 15073476 15241634 
2475.853 15421975 15615993 15824875 16049258 16289789 16547145 16821600 
2479.228 17114152 17425110 17754102 18100544 18462582 18838240 19225064 
2482.604 19620416 20020810 20421646 20816768 21198158 21556832 21883812 
2485.979 22170868 22411358 22600846 22736470 22817096 22843114 22816012 
2489.354 22739472 22618716 22461356 22276220 22072442 21858132 21640338 
2492.729 21423664 21211134 21004830 20806686 20618502 20442796 20281674 
2496.104 20137620 20012900 19909586 19830226 19777514 19754662 19765100 
2499.480 19811534 19895712 20018522 20179998 20379974 20618988 20897942 
2502.855 21218650 21582808 21991570 22444678 22940560 23475932 24045514 
2506.230 24642214 25257084 25877854 26489864 27076146 27616926 28091604 
2509.605 28480642 28764658 28928038 28959842 28854660 28614682 28249248 
2512.981 27775282 27213844 26589436 25926952 25247812 24570400 23908152 
2516.356 23269772 22660012 22080738 21531796 21011298 20516780 20045552 
2519.731 19595078 19163906 18751950 18360568 17991918 17648494 17331962 
2523.106 17042848 16780272 16542189 16325636 16129099 15950732 15789550 
2526.482 15645051 15516467 15402648 15302381 15214970 15139757 15076975 
2529.857 15027134 14989988 14964540 14948695 14939951 14935493 14933812 
2533.232 14933949 14936384 14941528 14949655 14960322 14972393 14984432 
2536.607 14995406 15005182 15014306 15023669 15034611 15047269 15061641 
2539.983 15077764 15094814 15112790 15132038 15152657 15175132 15199254 
2543.358 15224853 15251998 15280586 15311064 15344187 15380230 15419058 
2546.733 15460429 15503556 15548369 15595077 15644675 15698435 15757389 
2550.108 15821198 15889104 15959222 16029524 16098496 16165826 16231930 
2553.484 16298389 16366508 16437598 16512485 16591758 16675590 16764637 
2556.859 16859420 16960496 17068038 17181434 17299616 17421592 17546326 
2560.234 17673306 17803084 17936732 18075882 18222020 18376640 18540344 
2563.609 18713410 18895202 19084302 19279374 19477792 19677756 19877154 
2566.985 20074352 20268830 20459816 20646646 20828482 21003926 21170778 
2570.360 21326906 21469824 21597258 21707490 21798934 21870954 21923190 
2573.735 21956612 21972854 21974562 21964976 21947794 21925838 21901688 
2577.110 21877052 21852450 21828688 21806252 21786392 21770472 21760578 
2580.486 21758452 21765942 21784510 21815274 21859210 21917336 21990384 
2583.861 22079030 22183490 22303810 22439304 22589990 22755462 22935914 
2587.236 23131536 23342804 23569814 23811992 24068770 24338698 24620508 
2590.611 24912150 25211714 25516262 25822538 26126530 26423976 26710418 
2593.987 26981362 27232400 27459052 27657216 27822830 27952426 28043178 
2597.362 28093936 28104472 28075732 28009992 27909670 27777366 27616254 
2600.737 27429438 27220442 26993104 26751506 26499830 26241964 25981578 
2604.112 25721876 25465806 25215962 24974932 24745400 24530150 24331900 
2607.488 24153180 23996628 23864462 23758444 23679846 23629534 23607036 
2610.863 23611796 23642058 23695766 23770656 23864392 23974848 24099694 
2614.238 24236556 24382574 24534954 24690296 24845624 24998622 25147318 
2617.613 25290624 25428074 25559416 25684682 25804464 25919776 26032096 
2620.989 26143210 26255022 26368800 26485390 26604372 26724478 26843948 
2624.364 26960172 27070114 27170526 27257094 27325684 27370676 27386734 
2627.739 27369124 27313688 27218006 27081152 26903730 26687868 26436970 
2631.114 26155880 25849966 25525398 25188398 24844608 24499194 24156192 
2634.490 23818222 23487440 23165540 22854182 22554984 22269698 21999690 
2637.865 21745910 21508468 21286780 21079814 20886538 20705860 20536650 
2641.240 20378236 20229392 20088720 19954960 19826758 19702788 19582564 
2644.615 19465940 19352988 19244322 19140222 19041304 18948256 18861564 
2647.990 18782292 18711162 18648452 18593942 18546532 18504450 18466280 
2651.366 18430638 18397242 18366374 18339484 18317918 18302814 18295004 
2654.741 18294244 18300292 18312110 18328804 18349576 18373600 18400286 
2658.116 18428908 18459296 18491174 18524506 18559740 18596848 18636032 
2661.491 18677366 18720538 18765580 18812774 18862670 18915862 18972936 
2664.867 19033998 19098776 19166780 19236806 19308472 19381776 19457140 
2668.242 19535080 19616360 19701056 19788888 19879130 19971302 20064914 
2671.617 20160248 20257754 20358130 20461864 20568820 20678788 20791044 
2674.992 20904894 21019782 21135676 21252574 21370654 21490470 21612478 
2678.368 21737132 21865240 21997670 22135056 22277860 22426500 22580636 
2681.743 22740240 22904930 23074788 23249916 23430748 23617708 23810978 
2685.118 24011022 24217848 24432240 24654946 24887028 25129904 25385178 
2688.493 25654382 25938242 26238022 26554106 26887022 27236668 27603014 
2691.869 27985466 28383146 28794962 29219576 29654996 30099024 30548338 
2695.244 30998974 31445480 31881108 32298148 32688298 33042430 33351808 
2698.619 33608028 33803036 33931060 33987992 33972768 33887352 33737244 
2701.994 33530738 33277788 32989592 32677364 32350906 32019590 31691060 
2705.370 31371430 31065666 30777474 30508846 30260632 30032336 29822758 
2708.745 29630308 29452976 29289470 29138674 29000044 28873288 28758108 
2712.120 28654320 28561456 28478872 28405714 28341054 28283586 28232560 
2715.495 28186770 28145972 28110090 28079796 28055656 28038442 28028442 
2718.871 28025402 28028864 28037914 28051590 28069546 28091780 28118044 
2722.246 28148376 28182068 28218344 28255614 28292568 28328182 28362100 
2725.621 28394360 28426196 28459060 28494936 28535696 28583962 28641722 
2728.996 28711024 28793122 28888478 28996574 29115818 29243960 29378730 
2732.372 29517942 29660034 29804234 29950430 30098952 30250614 30406204 
2735.747 30566328 30731524 30901872 31077090 31256366 31438392 31621776 
2739.122 31804986 31986848 32166320 32342516 32514426 32680758 32839506 
2742.497 32988484 33125244 33247240 33352848 33440694 33510014 33560412 
2745.873 33592164 33605660 33602156 33583180 33551358 33509586 33461522 
2749.248 33410560 33360358 33314064 33274320 33243306 33222452 33212796 
2752.623 33214406 33226672 33248708 33279472 33317532 33361718 33411242 
2755.998 33464708 33520966 33578168 33634196 33687076 33734992 33776892 
2759.374 33812420 33842004 33866112 33885492 33900860 33912896 33922248 
2762.749 33930308 33938548 33948760 33962588 33981400 34005656 34035508 
2766.124 34070912 34112276 34160412 34217052 34283916 34363056 34455880 
2769.499 34563320 34685796 34823592 34976808 35145704 35330228 35530184 
2772.875 35744476 35971980 36210768 36459200 36716068 36980372 37251952 
2776.250 37530748 37816480 38108876 38406824 38709252 39014720 39321744 
2779.625 39628584 39933936 40236016 40533208 40823652 41105732 41377864 
2783.000 41638384 41886040 42119596 42338444 42542896 42733772 42912808 
2786.375 43082624 43245952 43405792 43564336 43724108 43887132 44055348 
2789.751 44231112 44416308 44612636 44820920 45040584 45269184 45503132 
2793.126 45737720 45967756 46188372 46395128 46584900 46756044 46908692 
2796.501 47044592 47167276 47282416 47396220 47515600 47647512 47798588 
2799.876 47974360 48180000 48419116 48694532 49007776 49358400 49744680 
2803.252 50162952 50609176 51079076 51568588 52074792 52595720 53129444 
2806.627 53673760 54225556 54780568 55334040 55880108 56413436 56928984 
2810.002 57421848 57887448 58320988 58717944 59073692 59384712 59647940 
2813.377 59861544 60024156 60135112 60193948 60200800 60156384 60062468 
2816.753 59922132 59739708 59519936 59268440 58990864 58692796 58379808 
2820.128 58058260 57734032 57413832 57103880 56809444 56534944 56283288 
2823.503 56055788 55852636 55673236 55516876 55382552 55269568 55177612 
2826.878 55106660 55057236 55030156 55026356 55046552 55091012 55159400 
2830.254 55250568 55363468 55495980 55647172 55815336 55999772 56199408 
2833.629 56412720 56639008 56877048 57126668 57388572 57664628 57957452 
2837.004 58270248 58605380 58965320 59351888 59766972 60212672 60692628 
2840.379 61211260 61774292 62387852 63058824 63793844 64600080 65485060 
2843.755 66456972 67524112 68694120 69972384 71359872 72849928 74426592 
2847.130 76063192 77719304 79344480 80881384 82266520 83442640 84362720 
2850.505 84994752 85328176 85372904 85158064 84724848 84124168 83411768 
2853.880 82638088 81852736 81098672 80408712 79809072 79316560 78938248 
2857.256 78674136 78518048 78459936 78487680 78588928 78752432 78967336 
2860.631 79224024 79513128 79824640 80149336 80477224 80798528 81104184 
2864.006 81385672 81635712 81849496 82025152 82164376 82272240 82357064 
2867.381 82428888 82497152 82571000 82657168 82760256 82883312 83028184 
2870.757 83195376 83384992 83595776 83825712 84071496 84330088 84598296 
2874.132 84874008 85155568 85441920 85731120 86020872 86307664 86587776 
2877.507 86858400 87118136 87368296 87612888 87858024 88111536 88381320 
2880.882 88675536 89001792 89365936 89773168 90226384 90726048 91270264 
2884.258 91854792 92473368 93118880 93783664 94460376 95141648 95821512 
2887.633 96494008 97154480 97799992 98428672 99040736 99637168 100219640 
2891.008 100789520 101348560 101897592 102438472 102973720 103507488 
2893.901 104044400 104589304 105146800 105720064 106312328 106926664 
2896.794 107566672 108237288 108943728 109690312 110479584 111310880 
2899.687 112180616 113082360 114007952 114949504 115898344 116846352 
2902.580 117785616 118707320 119602872 120464992 121287688 122067576 
2905.473 122804104 123498600 124153328 124771200 125355184 125909152 
2908.366 126437472 126946792 127444744 127939496 128438992 128948688 
2911.260 129471760 130007536 130552200 131097776 131631928 132138608 
2914.153 132597048 132983920 133277176 133456584 133509088 133430512 
2917.046 133226112 132908624 132495936 132007864 131462008 130871280 
2919.939 130243328 129580352 128879816 128136872 127347144 126508992 
2922.832 125625952 124707256 123768736 122831232 121915704 121043392 
2925.725 120232128 119492960 118832240 118250944 117746512 117313016 
2928.618 116943504 116629856 116363032 116134568 115936512 115762152 
2931.511 115607288 115468984 115346200 115237920 115142968 115058880 
2934.404 114982064 114908408 114833032 114751944 114660768 114555592 
2937.297 114433272 114290608 114125320 113937000 113726768 113496968 
2940.190 113250824 112991744 112721568 112441264 112150840 111849040 
2943.083 111534848 111206680 110862840 110500912 110117968 109710400 
2945.976 109275736 108812728 108323048 107811104 107284280 106751448 
2948.869 106223624 105712664 105230688 104791200 104408368 104095344 
2951.762 103865416 103728608 103691760 103757848 103925600 104189888 
2954.656 104541168 104966352 105447624 105961176 106480088 106974096 
2957.549 107412448 107770208 108029800 108184624 108239712 108210504 
2960.442 108119592 107991728 107852008 107722096 107616552 107544936 
2963.335 107509080 107504744 107521888 107546256 107561920 107552112 
2966.228 107502792 107403920 107249920 107040904 106781232 106479072 
2969.121 106144792 105790656 105429328 105071936 104728360 104405544 
2972.014 104107352 103834224 103584328 103354160 103138896 102933984 
2974.907 102734848 102536888 102336376 102129840 101914224 101688240 
2977.800 101451464 101204848 100950352 100690488 100427776 100164848 
2980.693 99904576 99650752 99407704 99180896 98975560 98796744 98647720 
2984.068 98530056 98443008 98384280 98350088 98335960 98336416 98345512 
2987.444 98356440 98361264 98351328 98317792 98251320 98143112 97985424 
2990.819 97771816 97498256 97164232 96773480 96333992 95857584 95359088 
2994.194 94852504 94350304 93860816 93387608 92930104 92484880 92047576 
2997.569 91614560 91183808 90755280 90331008 89913552 89505864 89110880 
3000.945 88730272 88365480 88016776 87684208 87367160 87065216 86778040 
3004.320 86506088 86249872 86010048 85786296 85577352 85380488 85191608 
3007.695 85006200 84820192 84629696 84432464 84227184 84012624 83788176 
3011.070 83552600 83305184 83045560 82774248 82493464 82206128 81915904 
3014.446 81626440 81341240 81062536 80793024 80534248 80287552 80053944 
3017.821 79833608 79625272 79426672 79234672 79045392 78855192 78661192 
3021.196 78460888 78252416 78034336 77804632 77560944 77300680 77020960 
3024.571 76719624 76395080 76047088 75676576 75285304 74876024 74451448 
3027.947 74014120 73566008 73108400 72641512 72165272 71679280 71183440 
3031.322 70677912 70163592 69641512 69112752 68578520 68039896 67497912 
3034.697 66954248 66410952 65870224 65334908 64807372 64289384 63781984 
3038.072 63285804 62800832 62327492 61866088 61417392 60982160 60560812 
3041.448 60153412 59759176 59377112 59005592 58642844 58286920 57936096 
3044.823 57588316 57241724 56894988 56547320 56198352 55848832 55499404 
3048.198 55150864 54803500 54457128 54110584 53762964 53413376 53061332 
3051.573 52707220 52351304 51994072 51635680 51275900 50914224 50550392 
3054.948 50184520 49816988 49448876 49081076 48714548 48349960 47988048 
3058.324 47629504 47275468 46927556 46587372 46256592 45936304 45626996 
3061.699 45328432 45040180 44761664 44492840 44233936 43985532 43748184 
3065.074 43522360 43308184 43105716 42914600 42734800 42566068 42408144 
3068.449 42260540 42122624 41993696 41872980 41760356 41656224 41561300 
3071.825 41476356 41402284 41339308 41287636 41246568 41215384 41193744 
3075.200 41180732 41175564 41177128 41184048 41194288 41206092 41217716 
3078.575 41228204 41236984 41244200 41250176 41255312 41259796 41263804 
3081.950 41267192 41269816 41271564 41271892 41270328 41265952 41257864 
3085.326 41245256 41228060 41207000 41183392 41158952 41135236 41113528 
3088.701 41093968 41076012 41058384 41039920 41019348 40996004 40969860 
3092.076 40941132 40910584 40878948 40847060 40815208 40783832 40752788 
3095.451 40722400 40692668 40663888 40636636 40611420 40588684 40568676 
3098.827 40550960 40534772 40519420 40504508 40490176 40477736 40468720 
3102.202 40465152 40468244 40478828 40496688 40520948 40550888 40586136 
3105.577 40627248 40674840 40730296 40794280 40867116 40948484 41037700 
3108.952 41134328 41238116 41349184 41467748 41593828 41726904 41865932 
3112.328 42009608 42156508 42305136 42454360 42602872 42749128 42891084 
3115.703 43026756 43154420 43272856 43381884 43481708 43573164 43656764 
3119.078 43732684 43800408 43858940 43908100 43947768 43978708 44002288 
3122.453 44020216 44033640 44043208 44049004 44050432 44047388 44040092 
3125.829 44029276 44016772 44004340 43994184 43987764 43986228 43989272 
3129.204 43996312 44005292 44014092 44020328 44021796 44017104 44006064 
3132.579 43988976 43966796 43940468 43910888 43877968 43841496 43800812 
3135.954 43755624 43706188 43652920 43596096 43536204 43472588 43404436 
3139.330 43330880 43251116 43165396 43074720 42980992 42885816 42790884 
3142.705 42696704 42603380 42510520 42418156 42326464 42236692 42150372 
3146.080 42068484 41991652 41919356 41850100 41781876 41713120 41643092 
3149.455 41572132 41501324 41432464 41367184 41306472 41250104 41197492 
3152.831 41147328 41098304 41049788 41001176 40952600 40904360 40856412 
3156.206 40808836 40761232 40713304 40664832 40615752 40566204 40516472 
3159.581 40466864 40417296 40367440 40316904 40265492 40213224 40160628 
3162.956 40108588 40057716 40008880 39961832 39916464 39871896 39827044 
3166.332 39781288 39734084 39685508 39635700 39585028 39533816 39482176 
3169.707 39430400 39378624 39327004 39275820 39225264 39175440 39126268 
3173.082 39077580 39029328 38981336 38933600 38886200 38838696 38790908 
3176.457 38742180 38692012 38640400 38587596 38534364 38482048 38431332 
3179.833 38383008 38336968 38292780 38249720 38207056 38164512 38122004 
3183.208 38080336 38039644 38000552 37963376 37928372 37895760 37865864 
3186.583 37839180 37816044 37796812 37781088 37768296 37757560 37748200 
3189.958 37739636 37731572 37724236 37718312 37713936 37711624 37711624 
3193.333 37713868 37718312 37724852 37733164 37743392 37755356 37769272 
3196.709 37785644 37805384 37829276 37858196 37892036 37930400 37972056 
3200.084 38015416 38058960 38101964 38144324 38186616 38229960 38274976 
3203.459 38322164 38370736 38419744 38467532 38512716 38554320 38591724 
3206.834 38624860 38654304 38680564 38704796 38727908 38750692 38773880 
3210.210 38797280 38820580 38842536 38861668 38877360 38888956 38897184 
3213.585 38903340 38909212 38916568 38926248 38938896 38954516 38972384 
3216.960 38991812 39011856 39031392 39049376 39064420 39075584 39082544 
3220.335 39085664 39086244 39086532 39088928 39094692 39104772 39118620 
3223.711 39135332 39153028 39170508 39187152 39203252 39219100 39236000 
3227.086 39254532 39275896 39300596 39328888 39361320 39397780 39437980 
3230.461 39481416 39527392 39575628 39625572 39677740 39732268 39789348 
3233.836 39848728 39909200 39969576 40028140 40084132 40137476 40189012 
3237.212 40239976 40291960 40346024 40402712 40461084 40520480 40579624 
3240.587 40637472 40692964 40745216 40793440 40836540 40873996 40905816 
3243.962 40932684 40955660 40976668 40997168 41018144 41040212 41062792 
3247.337 41085300 41107044 41127952 41148060 41167840 41188056 41209004 
3250.713 41231012 41254292 41279108 41305888 41335080 41367040 41402284 
3254.088 41440956 41482952 41528196 41576616 41628176 41682880 41740364 
3257.463 41799932 41860828 41922164 41982932 42042676 42101344 42159136 
3260.838 42216132 42272520 42328032 42382132 42434632 42485344 42534568 
3264.214 42582844 42630612 42678388 42726096 42773332 42819440 42863656 
3267.589 42905496 42944776 42981136 43014572 43044904 43071464 43093820 
3270.964 43111276 43123168 43129424 43130376 43126900 43120572 43113288 
3274.339 43106848 43103004 43102676 43105640 43111276 43117824 43123496 
3277.715 43126352 43125180 43119176 43108568 43094220 43077208 43059284 
3281.090 43041904 43026356 43013476 43003744 42996576 42990976 42985564 
3284.465 42978904 42970124 42958752 42944960 42929596 42913580 42897484 
3287.840 42881648 42866580 42852464 42839736 42828912 42820504 42814616 
3291.216 42810592 42807192 42803168 42797064 42788472 42777540 42765364 
3294.591 42753004 42741376 42730516 42720136 42709244 42697068 42683284 
3297.966 42667972 42651300 42633392 42613836 42592128 42567348 42539500 
3301.341 42508840 42476980 42445812 42417096 42392252 42372052 42356196 
3304.717 42344292 42335632 42329712 42326172 42324236 42323396 42322704 
3308.092 42321860 42320476 42319124 42318796 42320656 42325152 42332380 
3311.467 42341844 42352548 42364200 42377020 42392072 42410556 42433716 
3314.842 42461448 42493020 42526856 42561388 42595888 42630796 42667384 
3318.218 42707488 42752820 42803752 42860324 42921256 42985416 43051816 
3321.593 43119872 43189332 43260156 43331580 43402936 43473100 43541116 
3324.968 43606464 43669076 43728912 43786372 43841532 43894536 43945348 
3328.343 43994184 44041412 44087436 44132328 44175904 44216952 44254448 
3331.719 44286880 44313520 44333888 44347832 44355020 44354800 44346288 
3335.094 44328344 44300788 44264024 44220404 44173044 44124884 44078524 
3338.469 44034412 43991180 43946004 43895636 43837208 43769000 43691240 
3341.844 43605328 43513460 43417804 43320044 43221208 43121520 43020828 
3345.219 42918660 42815164 42710268 42604116 42497148 42389512 42281468 
3348.595 42172572 42062352 41950264 41835980 41719356 41600972 41481748 
3351.970 41362848 41245184 41128900 41013484 40897988 40780888 40661084 
3355.345 40538592 40414164 40289344 40166044 40045904 39929720 39817676 
3358.720 39708960 39602668 39497672 39393284 39289060 39184976 39081024 
3362.096 38977132 38873268 38769064 38664520 38559604 38454316 38349020 
3365.471 38244508 38140960 38039500 37940740 37844928 37752644 37663704 
3368.846 37577748 37494300 37412776 37332432 37252748 37172968 37091976 
3372.221 37008660 36921964 36830996 36735756 36637256 36537368 36438408 
3375.597 36342244 36250348 36162512 36077532 35993720 35909280 35823020 
3378.972 35734728 35644980 35554636 35464708 35375552 35287204 35199236 
3382.347 35111648 35024252 34937520 34852244 34768848 34687588 34608460 
3385.722 34530960 34454804 34379628 34305716 34233184 34162888 34094816 
3389.098 34029236 33965776 33903872 33842828 33781904 33720808 33659296 
3392.473 33597536 33535964 33475190 33415538 33357140 33299110 33240802 
3395.848 33180964 33119022 33054304 32987840 32920494 32853552 32788120 
3399.223 32724664 32662540 32600604 32537282 32471720 32403454 32332986 
3402.599 32261208 32189444 32118190 32047662 31977468 31906784 31834614 
3405.974 31759926 31682182 31601176 31516838 31429842 31341050 31251848 
3409.349 31163338 31076876 30993208 30912366 30833604 30755564 30677222 
3412.724 30597434 30515848 30432502 30348318 30264042 30180602 30098384 
3416.100 30017602 29937830 29858568 29778576 29696894 29612216 29523970 
3419.475 29431914 29336934 29240874 29145760 29054030 28967174 28885716 
3422.850 28809338 28736548 28665788 28595394 28524550 28452622 28379716 
3426.225 28305936 28232028 28158346 28085700 28015294 27948290 27885608 
3429.601 27828020 27775282 27726576 27680452 27635430 27590232 27543840 
3432.976 27495902 27446450 27395768 27343894 27291176 27237974 27185022 
3436.351 27132644 27081330 27031008 26980832 26929324 26874826 26815574 
3439.726 26750236 26678284 26599476 26514622 26424716 26330708 26233482 
3443.102 26134026 26032024 25927268 25818144 25702540 25579166 25446938 
3446.477 25307060 25162312 25017294 24876780 24744240 24620928 24505294 
3449.852 24394002 24282666 24167752 24047440 23922260 23794526 23666760 
3453.227 23541094 23418962 23299978 23183470 23068078 22953310 22838748 
3456.603 22724458 22610200 22495764 22380518 22264084 22146494 22028274 
3459.978 21910470 21793672 21678616 21565188 21453638 21343994 21237090 
3463.353 21133380 21034216 20939734 20849584 20762300 20676424 20589978 
3466.728 20501948 20412338 20321428 20229670 20137620 20044962 19952012 
3470.104 19858910 19766832 19677132 19591264 19510160 19433056 19358010 
3473.479 19282596 19204390 19122250 19037010 18950818 18866926 18788312 
3476.854 18716768 18652912 18595638 18543074 18493074 18443186 18391538 
3480.229 18337098 18278794 18217044 18153402 18089732 18028836 17972094 
3483.604 17919986 17870610 17820792 17766216 17703642 17631310 17549294 
3486.980 17460602 17367930 17274620 17182090 17090748 16999498 16906922 
3490.355 16812128 16715290 16616957 16517751 16418293 16318411 16217107 
3493.730 16113110 16005665 15894398 15779516 15661540 15541501 15420603 
3497.105 15300458 15182612 15068639 14959910 14856453 14757443 14660718 
3500.481 14563534 14462912 14356972 14245304 14129421 14012063 13896619 
3503.856 13786267 13683397 13588859 13502032 13421169 13343260 13264954 
3507.231 13182632 13093735 12997004 12893161 12785043 12676712 12572400 
3510.606 12475546 12387407 12307331 12233200 12162420 12092980 12023756 
3513.982 11954202 11884728 11814584 11743328 11669497 11592377 11512039 
3517.357 11430559 11350760 11275976 11208752 11150139 11098945 11052209 
3520.732 11006191 10958140 10905609 10848667 10788337 10726283 10664374 
3524.107 10603356 10543026 10482161 10419167 10352414 10280516 10203710 
3527.483 10122882 10040204 9958186 9879302 9805041 9735774 9671025 9609367 
3531.340 9549920 9492275 9436705 9384357 9335774 9291021 9248745 9206810 
3535.198 9162747 9114899 9062591 9006973 8950416 8894880 8841888 8791878 
3539.055 8743835 8696269 8648371 8599600 8550631 8502445 8455751 8410887 
3542.912 8367107 8322859 8276185 8225598 8169918 8109318 8044641 7978084 
3546.770 7912280 7849960 7793722 7744912 7703223 7666598 7631627 7594602 
3550.627 7551749 7501684 7444918 7384384 7324028 7267656 7217321 7172988 
3554.485 7133038 7094743 7056046 7016108 6975163 6934255 6894192 6855514 
3558.342 6817478 6779379 6740206 6699926 6659313 6619680 6582540 6548733 
3562.199 6518292 6490006 6462192 6432599 6398702 6357815 6307787 6246942 
3566.057 6174812 6093453 6007205 5922485 5845641 5781938 5733286 5698773 
3569.914 5675005 5657482 5642007 5624888 5604145 5578771 5548969 5515410 
3573.772 5478934 5440784 5402302 5364729 5329474 5297005 5267557 5240460 
3577.629 5214369 5187811 5160215 5131078 5100837 5070296 5040261 5011232 
3581.487 4983782 4958209 4935186 4915045 4897619 4881970 4865485 4844543 
3585.344 4814255 4770870 4712986 4642484 4564693 4487921 4420233 4367282 
3589.201 4330668 4308314 4296100 4288436 4280941 4269697 4252733 4228675 
3593.059 4197159 4158620 4114531 4066902 4018341 3972093 3930632 3895894 
3596.916 3867811 3845447 3826326 3807440 3786148 3760312 3729632 3695044 
3600.774 3658854 3623904 3593000 3568244 3550538 3539281 3532867 3528691 
3604.631 3523681 3514695 3498862 3474012 3438977 3394360 3342602 3287479 
3608.489 3233731 3185731 3146413 3115275 3089646 3064953 3036623 3001090 
3612.346 2957719 2909215 2861018 2819762 2790348 2775642 2774175 2781445 
3616.203 2790382 2794283 2786447 2762837 2722591 2669147 2609009 2549845 
3620.061 2499588 2463098 2441706 2433475 2434308 2439440 2445371 2449869 
3623.918 2452735 2456000 2460732 2467230 2472728 2471595 2455301 2415616 
3627.776 2347684 2254383 2148448 2047998 1970771 1926138 1912094 1919549 
3631.633 1936922 1953696 1962783 1961651 1951300 1935257 1917618 1901311 
3635.490 1887367 1875021 1862709 1849165 1833792 1817655 1801518 1786645 
3639.348 1773504 1762292 1752112 1742797 1734247 1726862 1721074 1717381 
3643.205 1715884 1716250 1717082 1717182 1714255 1706204 1690970 1666322 
3647.063 1631200 1585471 1530238 1468096 1403171 1340848 1286709 1246733 
3650.920 1225101 1223406 1240452 1271988 1311634 1351484 1383725 1401542 
3654.778 1400346 1379504 1343507 1301166 1261985 1234039 1220748 1220648 
3658.635 1229055 1239821 1248261 1250920 1247098 1237495 1224470 1210315 
3662.492 1197323 1186924 1180479 1178618 1182239 1191675 1206760 1226696 
3666.350 1249358 1271556 1288737 1297011 1293456 1279598 1262284 1253877 
3670.207 1271655 1329149 1433821 1583210 1768413 1974832 2185943 2385330 
3674.065 2553778 2672847 2727626 2711588 2630109 2496955 2328463 2137726 
3677.922 1933893 1724966 1520362 1331476 1171143 1048100 965604 918518 
3681.780 897965 892321 892819 895608 900787 910781 927550 949731 972578 
3686.119 989016 991407 974504 937578 885315 826685 770718 724416 690233 
3690.459 667301 653862 647922 649647 658773 675199 697335 722525 747285 
3694.798 768793 785522 797539 806203 814137 822900 833457 844446 853741 
3699.138 858655 856829 847301 831565 812842 795680 785091 784161 793622 
3703.478 811580 834785 858721 880136 897035 909420 918684 926786 935685 
3707.817 945514 954679 959394 955277 937710 904738 857626 801688 745791 
3712.157 700089 672279 666638 682102 713630 753856 795116 831100 857991 
3716.496 874657 883356 887506 891192 897434 906996 918618 929276 936316 
3720.836 938441 936183 932132 928712 927815 929509 931700 931335 925358 
3725.176 913172 896537 879140 866789 863934 873263 893649 921407 950628 
3729.515 975201 989282 989979 977194 954712 928214 904506 887772 877579 
3733.855 869213 855866 831731 795149 750438 706793 675100 663020 672478 
3738.194 700454 741244 789008 839234 889631 939138 985928 1025581 1050923 
3742.534 1051787 1019471 951059 856364 757474 682932 651738 666007 713630 
3746.874 776494 836445 879538 898065 890760 862407 821141 775365 731154 
3751.213 691925 659901 638730 632658 645134 676626 722989 777191 830270 
3755.553 875056 906764 924760 931667 932464 931634 931302 931733 931733 
3759.892 931003 930704 933327 940599 952919 967829 981179 987987 985928 
3764.232 975400 960955 948801 945082 952753 969722 990477 1008145 1017279 
3768.572 1015352 1003861 987522 972445 963578 963346 971382 985463 1002865 
3772.911 1020965 1038767 1055241 1070520 1084405 1097060 1107557 1115131 
3776.769 1117988 1114367 1102973 1083740 1058729 1032490 1010470 998415 
3780.626 998979 1011699 1032357 1055407 1074406 1085036 1085899 1078093 
3784.483 1065173 1051388 1040062 1032589 1028936 1028106 1029467 1032589 
3788.341 1038236 1046473 1057367 1070022 1082644 1094104 1103538 1111112 
3792.198 1117291 1122240 1125296 1124632 1118187 1104069 1082578 1056669 
3796.056 1031560 1013725 1007780 1015020 1032523 1054112 1071417 1076399 
3799.913 1063545 1032290 988917 945248 915994 912442 937312 985263 1044745 
3804.253 1102209 1144332 1161607 1149880 1113105 1062449 1013559 981710 
3808.110 974338 991108 1024917 1067331 1111112 1152770 1192140 1230716 
3811.968 1270226 1309075 1342543 1363383 1363649 1337857 1287141 1220515 
3815.825 1154631 1107856 1092410 1110414 1153966 1208853 1258164 1288471 
3819.682 1290531 1263281 1213903 1158451 1115264 1097359 1107657 1139847 
3823.540 1182572 1223041 1251451 1263381 1259925 1247264 1234139 1228955 
3827.397 1236232 1255073 1279731 1302395 1316320 1317550 1306284 1286776 
3831.255 1266139 1251119 1246367 1253943 1272253 1297776 1325327 1349955 
3835.112 1366840 1371360 1361156 1335630 1297709 1253246 1211013 1179249 
3838.969 1163102 1163435 1176591 1196659 1216694 1231746 1239389 1239655 
3842.827 1235103 1228390 1222941 1220682 1222576 1228822 1239389 1253611 
3846.684 1271290 1292558 1317583 1347097 1381365 1420191 1462145 1503671 
3850.542 1538085 1555410 1545101 1497387 1409121 1289069 1160279 1050824 
3854.399 983138 964707 988684 1040893 1106029 1173202 1235136 1288869 
3858.257 1333769 1370363 1399382 1420856 1434552 1440436 1438840 1430995 
3862.114 1417997 1400811 1379836 1355772 1330645 1308278 1294851 1295549 
3865.971 1313529 1347163 1390141 1431726 1462012 1471886 1458189 1425676 
3869.829 1386651 1356037 1345302 1357334 1386817 1423947 1458189 1482359 
3873.686 1494727 1498717 1501244 1509556 1527777 1555842 1589628 1622320 
3877.544 1647297 1658506 1653284 1631432 1596878 1556939 1520096 1494594 
3881.401 1485451 1492799 1512781 1537221 1557571 1565286 1555410 1528376 
3885.259 1491502 1456959 1436779 1439804 1466467 1510421 1560996 1606955 
3889.116 1638816 1651122 1643040 1619293 1588098 1559001 1539482 1533397 
3892.973 1540778 1558934 1584208 1613473 1644137 1674438 1702512 1726829 
3896.831 1745591 1757302 1761128 1757002 1746390 1732085 1716550 1702579 
3900.688 1691236 1682255 1673839 1664193 1651554 1635689 1618595 1602931 
3904.546 1591989 1588664 1593419 1605126 1621222 1638816 1655413 1669748 
3908.403 1681623 1691768 1701381 1711261 1721573 1732351 1742997 1753443 
3912.260 1763989 1775333 1787910 1801385 1814727 1826073 1833094 1834658 
3916.118 1830166 1821514 1811000 1801784 1796028 1794897 1798224 1805211 
3919.975 1815226 1827703 1842244 1858150 1874023 1888332 1898316 1902210 
3923.833 1899148 1890129 1877251 1863807 1852892 1846204 1844340 1846370 
3927.690 1850896 1856952 1863873 1870895 1877384 1882176 1883673 1880346 
3931.548 1871527 1857518 1840680 1824176 1811167 1803880 1802982 1807407 
3935.405 1815425 1825308 1836088 1847568 1860313 1874788 1890595 1906636 
3939.262 1920880 1930964 1935291 1933227 1925672 1914490 1902709 1893324 
3943.120 1888765 1890695 1899314 1913691 1931962 1951466 1969373 1982920 
3946.977 1990110 1990409 1984318 1973567 1960553 1947705 1936289 1926604 
3950.835 1918583 1911195 1904040 1896985 1890429 1885071 1881810 1880978 
3954.692 1882775 1887001 1893524 1902176 1912926 1925572 1939451 1954062 
3958.550 1968408 1981322 1992273 2000928 2007386 2012212 2015608 2018104 
3962.407 2019868 2020634 2020734 2020068 2019303 2018703 2018870 2019902 
3966.264 2021799 2023963 2025927 2026693 2026360 2024729 2022398 2020035 
3970.122 2018737 2019170 2021899 2026793 2032985 2039742 2045968 2050462 
3973.979 2053292 2054490 2054823 2054856 2055089 2055555 2056221 2056754 
3977.837 2056820 2056687 2056854 2057886 2059783 2062646 2065609 2067807 
3981.694 2068739 2068339 2067174 2066375 2066741 2068639 2071802 2074931 
3985.552 2077195 2077395 2075531 2072334 2068639 2065476 2063179 2061381 
3989.409 2059717 2057153 2053158 2048031 2042638 2038311 2035814 2036114 
3993.266 2039077 2044203 2050595 2057353 2063911 2069704 2074565 2078860 
3997.124 2083188 2088382 2095240 2104430 2116016 2129268 2142920 2154874 
##END=
