
##TITLE=Z197_3_d
##JCAMP-DX=5.01  $$ Nicolet v. 1
##DATATYPE=INFRARED SPECTRUM
##ORIGIN=UniL
##OWNER=Nicolet
##LONGDATE=2011/09/08
##TIME=11:03:38
##SPECTROMETER/DATA SYSTEM=Nicolet iS5
##DATA PROCESSING=
Ratio against background
%Transmittance->Absorbance
Truncated
ElementMultiply or ElementDivide
##COMMENTS=
Number of sample scans: 32
Collection length: 51.14 sec
Sample gain: 2.0
Background collected on: Jeu Sep 08 10:53:33 2011 (GMT+02:00);
Number of background scans: 32
Background gain: 2.0
Sample spacing:  1.000
Number of scan points: 12415
Resolution points: 8192
Number of FFT points: 65536
Apodization: N-B fort;
Phase correction: Mertz;
Laser frequency: 15798.0 cm-1
Number of rejected sample scans: 0
Number of rejected background scans: 0
Bench serial number: ASB1000141;
##RESOLUTION=4.000
##XUNITS=1/CM
##YUNITS=ABSORBANCE
##FIRSTX=649.893372
##LASTX=4000.122314
##FIRSTY=0.104069
##MAXX=4000.122314
##MINX=649.893372
##MAXY=0.231475
##MINY=0.001111
##XFACTOR=1.000000
##YFACTOR=1.000000E-009
##NPOINTS=6950
##DELTAX=0.482117
##ZPD=6100
##XYDATA=(X++(Y..Y))
649.893 104069448 104287152 104571048 104921032 105311120 105708400 
652.786 106091952 106470520 106881152 107371848 107971712 108677256 
655.679 109447720 110227792 110972352 111669248 112340008 113027632 
658.571 113768104 114569648 115410336 116249432 117052072 117806216 
661.464 118526496 119241648 119978512 120745280 121530240 122311968 
664.357 123072576 123803152 124496120 125128656 125642720 125934216 
667.250 125884968 125420240 124574944 123488040 122329224 121213048 
670.142 120160680 119123280 118018648 116775416 115356960 113778264 
673.035 112090616 110363024 108648360 106966856 105312432 103668784 
675.928 102030624 100413408 98849448 97373016 96006600 94751568 93593976 
679.302 92515104 91504504 90564704 89707056 88941928 88269896 87678280 
682.677 87147536 86659416 86206152 85791952 85427392 85118640 84858816 
686.052 84626840 84394992 84142352 83862408 83569344 83288448 83045712 
689.427 82852760 82701736 82567832 82423752 82249256 82040280 81807888 
692.802 81570496 81343232 81131504 80931288 80734280 80537088 80343688 
696.177 80164320 80008648 79879080 79767224 79658424 79537080 79396232 
699.551 79240800 79084704 78942536 78821664 78718304 78619456 78510392 
702.926 78381544 78233256 78074232 77914592 77758656 77603168 77438552 
706.301 77256272 77055584 76845608 76641192 76456952 76298776 76162016 
709.676 76035400 75908672 75781312 75666048 75584888 75560208 75607048 
713.051 75724936 75898800 76102120 76306168 76481408 76599816 76635856 
716.425 76565824 76373472 76060352 75655128 75217520 74822056 74546672 
719.800 74438232 74492160 74642592 74774552 74757976 74470400 73840256 
723.175 72858624 71576040 70082056 68481760 66877788 65346384 63938244 
726.550 62679052 61573756 60614748 59786708 59070804 58447464 57897744 
729.925 57407968 56968348 56573440 56220792 55906904 55626084 55370996 
733.300 55132956 54905572 54685744 54472528 54265612 54063224 53860516 
736.674 53651640 53432524 53203404 52970180 52741936 52527804 52331904 
740.049 52152496 51982044 51812448 51638364 51460060 51282576 51113252 
743.424 50957408 50815848 50685652 50562340 50443648 50331348 50230272 
746.799 50145176 50077904 50024732 49978376 49930236 49875264 49813460 
750.174 49749472 49688652 49634384 49585240 49536364 49482592 49421848 
753.548 49356660 49293332 49238588 49194388 49158100 49122260 49079632 
756.923 49026432 48964752 48901632 48845860 48803444 48776048 48761704 
760.298 48758516 48766816 48791660 48839188 48914312 49016528 49139472 
763.673 49274180 49414940 49563848 49733648 49944324 50215392 50562196 
767.048 50990012 51496392 52076320 52730904 53472696 54333048 55361776 
770.423 56628288 58228644 60273308 62883584 66171916 70199808 74936304 
773.797 80202896 85671784 90839040 95084736 97828256 98597776 97185240 
777.172 93694072 88524176 82275168 75583464 69068432 63191748 58218796 
780.547 54249508 51233584 49034888 47474240 46385428 45632556 45112996 
783.922 44763468 44544160 44429560 44403060 44450336 44557968 44714580 
787.297 44910088 45137112 45391848 45673856 45985512 46330204 46711400 
790.671 47130708 47588504 48084492 48618892 49194056 49815096 50489128 
794.046 51224564 52031084 52917964 53894948 54973368 56165240 57484556 
797.421 58948700 60577192 62397412 64446816 66772012 69435872 72511536 
800.796 76072312 80187824 84903616 90226184 96102704 102407680 108940240 
804.171 115398272 121414488 126585840 130495104 132816272 133360416 
807.063 132124408 129294040 125218528 120363216 115197616 110179192 
809.956 105693520 101995472 99227536 97396488 96391112 95990848 95901464 
813.331 95813416 95412456 94451728 92785824 90372136 87276336 83639520 
816.706 79659384 75539856 71470088 67613384 64081000 60939152 58212920 
820.081 55891788 53941652 52314672 50962028 49835980 48896140 48112996 
823.455 47463372 46929956 46499848 46161248 45903708 45719316 45601752 
826.830 45548284 45558732 45634728 45778552 45992844 46279112 46637832 
830.205 47066156 47557080 48098672 48673852 49261412 49842260 50401004 
833.580 50928904 51422836 51880328 52291168 52633604 52869872 52952284 
836.955 52836376 52489588 51904632 51102744 50132308 49056632 47941500 
840.329 46850264 45829984 44912772 44116960 43448640 42905276 42478292 
843.704 42154828 41919500 41755868 41650276 41592148 41575520 41597364 
847.079 41656332 41749304 41871736 42016800 42177756 42350208 42532300 
850.454 42725144 42930840 43151452 43388036 43641156 43912464 44204808 
853.829 44522648 44870220 45250024 45661376 46101264 46565868 47053788 
857.204 47567172 48111700 48696052 49329040 50017968 50770628 51597204 
860.578 52512808 53541620 54716072 56073244 57655624 59504544 61657192 
863.953 64144520 66981576 70156656 73612552 77238176 80851616 84197856 
867.328 86998248 88966208 89869008 89588568 88133904 85651160 82377008 
870.703 78617472 74684304 70837456 67288720 64168372 61531528 59379200 
874.078 57671480 56349108 55343296 54591732 54042284 53652240 53391756 
877.452 53238760 53175388 53188012 53264192 53393368 53568828 53787228 
880.827 54047648 54351260 54698296 55087028 55513788 55974404 56466072 
884.202 56988900 57546096 58142080 58780724 59464036 60191624 60962604 
887.577 61777308 62639052 63555212 64537072 65598996 66758880 68037608 
890.952 69455584 71029120 72760600 74629336 76579376 78515312 80317488 
894.327 81843888 82964000 83586736 83668808 83225952 82319616 81046200 
897.701 79510816 77813112 76046224 74285304 72593064 71022992 69613632 
901.076 68390672 67364088 66528760 65867992 65358252 64978080 64709096 
904.451 64538532 64458312 64460808 64538492 64684136 64891888 65160060 
907.826 65490992 65890080 66362464 66911220 67536968 68240840 69026440 
911.201 69904536 70891320 72006104 73268352 74691432 76282816 78044728 
914.575 79976784 82077632 84344576 86770552 89338552 92019152 94773784 
917.950 97552208 100298312 102952256 105436928 107656072 109492952 110804296 
921.325 111453336 111338536 110423392 108765016 106515656 103915672 
924.218 101234968 98750072 96709232 95286584 94593336 94673928 95515944 
927.593 97062288 99216792 101859720 104835488 107967080 111076832 113978008 
930.967 116502528 118512960 119891640 120554816 120453016 119574032 
933.860 117954520 115687288 112933640 109903256 106851696 104066048 
936.753 101811336 100331248 99822712 100407944 102140992 104990064 108839128 
940.128 113462672 118526016 123623016 128255408 131919968 134192896 
943.020 134760912 133511648 130542624 126152608 120765584 114850600 
945.913 108873824 103195656 98066640 93629080 89920896 86913400 84535008 
949.288 82701048 81322576 80317176 79617112 79163376 78907848 78815312 
952.663 78857816 79015504 79275040 79624512 80052912 80548768 81099312 
956.037 81693296 82321624 82978120 83659928 84365096 85090960 85833696 
959.412 86587616 87346536 88105648 88862632 89617480 90371768 91127200 
962.787 91884608 92643704 93404328 94166992 94933808 95707264 96489168 
966.162 97279280 98074992 98872576 99669256 100465392 101265584 102077320 
969.537 102909592 103769512 104661488 105587496 106548680 107547824 
972.429 108591088 109686600 110843384 112068400 113364800 114732176 
975.322 116168256 117671600 119242040 120880936 122588792 124362632 
978.215 126194256 128071632 129978616 131899488 133819472 135722208 
981.108 137590000 139400512 141126432 142740944 144222016 145557888 
984.000 146749824 147811440 148763072 149625360 150416704 151152416 
986.893 151845760 152512480 153170944 153839552 154533712 155260912 
989.786 156018928 156797904 157585152 158371616 159153296 159932464 
992.678 160713088 161497216 162281728 163059584 163822176 164563840 
995.571 165282480 165979008 166652288 167296704 167900448 168449664 
998.464 168933056 169348320 169703584 170016944 170310224 170603104 
1001.356 170911280 171246496 171618528 172041040 172529728 173100896 
1004.249 173766576 174530336 175386240 176322992 177331088 178408448 
1007.142 179564624 180817280 182188768 183699776 185364848 187193920 
1010.035 189192592 191361664 193689984 196142288 198650560 201096704 
1012.927 203323888 205162160 206445072 207061984 206981328 206261440 
1015.820 205036192 203487360 201820608 200214736 198813104 197712736 
1018.713 196957168 196549776 196461296 196645872 197047936 197614512 
1021.605 198305696 199094560 199968896 200926288 201967648 203090448 
1024.498 204287216 205545168 206851456 208197232 209578336 210993824 
1027.391 212441760 213913776 215395488 216868368 218314256 219721248 
1030.284 221083552 222398368 223660640 224857168 225966368 226964704 
1033.177 227832064 228560880 229157648 229641520 230036560 230363008 
1036.070 230636288 230864752 231054208 231209936 231335824 231429408 
1038.963 231475056 231440528 231277408 230924656 230324608 229428064 
1041.856 228200064 226623088 224691632 222411488 219799344 216887792 
1044.750 213729568 210392272 206961616 203526912 200166368 196947696 
1047.643 193918768 191109600 188540048 186220512 184154464 182337024 
1050.536 180752624 179375120 178167920 177092800 176114384 175204272 
1053.429 174344368 173522384 172727008 171944880 171156912 170340352 
1056.322 169473600 168536112 167509936 166378864 165123936 163723904 
1059.215 162158640 160412160 158480080 156372384 154113136 151735280 
1062.108 149273984 146763952 144234128 141709568 139214752 136772048 
1065.001 134403888 132130072 129963920 127912936 125978056 124156864 
1067.894 122446360 120845448 119354904 117976520 116709736 115551120 
1070.787 114493176 113526144 112640784 111828336 111081920 110395488 
1073.680 109761160 109169088 108608704 108069440 107544896 107034168 
1076.573 106542584 106079184 105655320 105282368 104969768 104726384 
1079.466 104561064 104481232 104493248 104598168 104788968 105047624 
1082.359 105345912 105649440 105918768 106118096 106219512 106203656 
1085.252 106063576 105804560 105444792 105013688 104551032 104105792 
1088.146 103726632 103460568 103348856 103421040 103699880 104202648 
1091.039 104943904 105940288 107211792 108778208 110658280 112862264 
1093.932 115386648 118205784 121265920 124482656 127727208 130837288 
1096.825 133625936 135884416 137428704 138120912 137894448 136773376 
1099.718 134867024 132356064 129444408 126346160 123255880 120318144 
1102.611 117639360 115281296 113265920 111589384 110228560 109151408 
1105.504 108321128 107702904 107268080 106991392 106853096 106835384 
1108.397 106918704 107081432 107299128 107544344 107791952 108020576 
1111.290 108213568 108361528 108460496 108509280 108506176 108443480 
1114.183 108301488 108046664 107626184 106973808 106025464 104726632 
1117.076 103056384 101036984 98740376 96276080 93768248 91343864 89099984 
1120.451 87094240 85346688 83843040 82549800 81426400 80439896 79568240 
1123.827 78802280 78144200 77604872 77202200 76957944 76896944 77042520 
1127.202 77407712 77987464 78747976 79625272 80516264 81291848 81815248 
1130.577 81945040 81567624 80610480 79049920 76919968 74307048 71344960 
1133.952 68184200 64980536 61877516 58980276 56361104 54056656 52072884 
1137.328 50397020 49005216 47871796 46970636 46277752 45772068 45431796 
1140.703 45236312 45166784 45205828 45339432 45556560 45846780 46200020 
1144.078 46604964 47048876 47519708 48006736 48502056 49001136 49501084 
1147.453 50000236 50497504 50992172 51485724 51981636 52486412 53007876 
1150.829 53551848 54121692 54716184 55330536 55957820 56591860 57228528 
1154.204 57864844 58498532 59125740 59740016 60332468 60893404 61412700 
1157.579 61881984 62292956 62636608 62902116 63076184 63144000 63092308 
1160.954 62910356 62591516 62133812 61537980 60807256 59945980 58960960 
1164.330 57861780 56661392 55377284 54029188 52636900 51220648 49797516 
1167.705 48381888 46986732 45622840 44300420 43029280 41817592 40671892 
1171.080 39596244 38592196 37658900 36794784 35997828 35266432 34599312 
1174.455 33994516 33449064 32959030 32519606 32126504 31776178 31466532 
1177.831 31196198 30963424 30765950 30600848 30465412 30359296 30285324 
1181.206 30249514 30260170 30326430 30455070 30650552 30915284 31250208 
1184.581 31656594 32137208 32694940 33333600 34056832 34868796 35777148 
1187.956 36795108 37942040 39244344 40729168 42416840 44313408 46402684 
1191.332 48642608 50962364 53275508 55484044 57490040 59216604 60613152 
1194.707 61667004 62405028 62893236 63228080 63515244 63867576 64384096 
1198.082 65134072 66155516 67443880 68954008 70596704 72250616 73777184 
1201.457 75021832 75845576 76137656 75822648 74875040 73314912 71205024 
1204.833 68635560 65719864 62585928 59354964 56144692 53057068 50165184 
1208.208 47519520 45143364 43036560 41182156 39552616 38118896 36852096 
1211.583 35729224 34734176 33855508 33085660 32419626 31853226 31383716 
1214.958 31009080 30728004 30539522 30441352 30429728 30498822 30641914 
1218.333 30852920 31127384 31464040 31863172 32325704 32851264 33436936 
1221.709 34077296 34765728 35495016 36258924 37051168 37864812 38691792 
1225.084 39522820 40349040 41164816 41969168 42767080 43568404 44386836 
1228.459 45235944 46129044 47078304 48094120 49186524 50364720 51635380 
1231.834 53001736 54462612 56013908 57649572 59365600 61162168 63044264 
1235.210 65020292 67099272 69289096 71594680 74017768 76556568 79204848 
1238.585 81947640 84752880 87569840 90321384 92903424 95203240 97101984 
1241.960 98494512 99311192 99523936 99159000 98292912 97055656 95613056 
1245.335 94138224 92811800 91789176 91187200 91091848 91550280 92581936 
1248.711 94189056 96365552 99101968 102382680 106180976 110444928 115079176 
1252.086 119947064 124852688 129541408 133735832 137126272 139409744 
1254.979 140343536 139755152 137588320 133909520 128904552 122844640 
1257.872 116033144 108798384 101438488 94202552 87304360 80895280 75072048 
1261.247 69885544 65339528 61403996 58022396 55127540 52646248 50506136 
1264.623 48647096 47017636 45577868 44301152 43169896 42175276 41316204 
1267.998 40598360 40032828 39634100 39419076 39402316 39592212 39986792 
1271.373 40569948 41309860 42155776 43043984 43899960 44639368 45184428 
1274.748 45467260 45440624 45088588 44427796 43507416 42394260 41167876 
1278.124 39905460 38667020 37497116 36420028 35443744 34565404 33777216 
1281.499 33070356 32436442 31868450 31360816 30907990 30505896 30150838 
1284.874 29840502 29573128 29346256 29156850 29001142 28875200 28775668 
1288.249 28701468 28652444 28628766 28629120 28649188 28682140 28720300 
1291.625 28756584 28787882 28814968 28842446 28876474 28922760 28985662 
1295.000 29067352 29169254 29293050 29440954 29615160 29817044 30046042 
1298.375 30299888 30575320 30870494 31185482 31522572 31885244 32275700 
1301.750 32693654 33136402 33599324 34078620 34572544 35082264 35610128 
1305.125 36157864 36725260 37309248 37905376 38509060 39117136 39728056 
1308.501 40340536 40951580 41556048 42145988 42713700 43252944 43761268 
1311.876 44239920 44693132 45126560 45545116 45953616 46356268 46756712 
1315.251 47156488 47551680 47929624 48264860 48520324 48654024 48623452 
1318.626 48399520 47972432 47354980 46578628 45686368 44726184 43739388 
1322.002 42759912 41814528 40921652 40096304 39351560 38696176 38135536 
1325.377 37670428 37296972 37008732 36799040 36662528 36594892 36592336 
1328.752 36650012 36760924 36917060 37110060 37332716 37579336 37844240 
1332.127 38120052 38396868 38661840 38900696 39101688 39256888 39363716 
1335.503 39423432 39439324 39414544 39350256 39246956 39105568 38929944 
1338.878 38728056 38511196 38290536 38075416 37870452 37676316 37491336 
1342.253 37314232 37145864 36989536 36849392 36729624 36633648 36564004 
1345.628 36524248 36520284 36560040 36652716 36806612 37026776 37314664 
1349.004 37668800 38087172 38568188 39111368 39715532 40375764 41082020 
1352.379 41820108 42572316 43322312 44056852 44764972 45436356 46057604 
1355.754 46609096 47067892 47409972 47616528 47680128 47607284 47419208 
1359.129 47146332 46827304 46503460 46213176 45995568 45887692 45922052 
1362.505 46127904 46524888 47120368 47909456 48875564 49992948 51223816 
1365.880 52519356 53815240 55027368 56067740 56852080 57319108 57448400 
1369.255 57262740 56823456 56207516 55498312 54769408 54073168 53448036 
1372.630 52917292 52491944 52171700 51941488 51771196 51610864 51402060 
1376.006 51087612 50618964 49970680 49143664 48168264 47096808 45995420 
1379.381 44934116 43969364 43143296 42484684 42011104 41735768 41669460 
1382.756 41820108 42195724 42809240 43684828 44864416 46403272 48352816 
1386.131 50733312 53498480 56520488 59584428 62440220 64855724 66644752 
1389.507 67706040 68014352 67611064 66584876 65056936 63169444 61057092 
1392.882 58859108 56715872 54756440 53103268 51846944 51027308 50630096 
1396.257 50596516 50850300 51308824 51902056 52577880 53296632 54033052 
1399.632 54771360 55500988 56212232 56893628 57529336 58102912 58599084 
1403.008 59008248 59331188 59579140 59772564 59932972 60080616 60230028 
1406.383 60389584 60565496 60761412 60977660 61207068 61431936 61624232 
1409.758 61746940 61765044 61656044 61415104 61056712 60607932 60101092 
1413.133 59563256 59013332 58463880 57921560 57391292 56875572 56373104 
1416.509 55876188 55371640 54846092 54295648 53737540 53212208 52775124 
1419.884 52472612 52321252 52305704 52387152 52522160 52672544 52818976 
1423.259 52962692 53122328 53323380 53585212 53911680 54288964 54692320 
1426.634 55094172 55474256 55820500 56130176 56407284 56661468 56908356 
1430.010 57168956 57473736 57859352 58360440 59006272 59811840 60779212 
1433.385 61903460 63183932 64633800 66279700 68153296 70269024 72598744 
1436.760 75062128 77548344 79956104 82221944 84317296 86225992 87927112 
1440.135 89376032 90507160 91255672 91565672 91410976 90799304 89768856 
1443.510 88378640 86693672 84784296 82711352 80519024 78239088 75891704 
1446.886 73500464 71110800 68795944 66651084 64775944 63243948 62092604 
1450.261 61321680 60900116 60774292 60869732 61103276 61377548 61590096 
1453.636 61645696 61444876 60892336 59904788 58437268 56533056 54354864 
1457.011 52178424 50279116 48821316 47828180 47226448 46916332 46811660 
1460.387 46854468 47006892 47239116 47524844 47834504 48136280 48402892 
1463.762 48614368 48765520 48867516 48946204 49033704 49157876 49340360 
1467.137 49593968 49923212 50326660 50796628 51320500 51876068 52432688 
1470.512 52948540 53364328 53613848 53635068 53391716 52889856 52173528 
1473.888 51306328 50345856 49338168 48321444 47330520 46407180 45595532 
1477.263 44930516 44434952 44113368 43956016 43946920 44072032 44324892 
1480.638 44708444 45233112 45911076 46751692 47756236 48918692 50228564 
1484.013 51679004 53272172 55022860 56958864 59114728 61522712 64203480 
1487.389 67163392 70397392 73898624 77666088 81704216 86005728 90542136 
1490.764 95248208 100030368 104785640 109423632 113879584 118091960 
1493.657 122002232 125533792 128571376 130988048 132671248 133573472 
1496.550 133741784 133321584 132514776 131508288 130455048 129462528 
1499.443 128599880 127923472 127481176 127306448 127415016 127791912 
1502.336 128390360 129120976 129852768 130409016 130527856 129868152 
1505.229 128029584 124639928 119567528 113081456 105800592 98392224 91287808 
1508.604 84610456 78286032 72183112 66211508 60353524 54684728 49342288 
1511.980 44462448 40160012 36482804 33409558 30873376 28784484 27054528 
1515.355 25602328 24366138 23305606 22397890 21637238 21024026 20553116 
1518.730 20207800 19955794 19752304 19553760 19330850 19087246 18859592 
1522.105 18700440 18646790 18702030 18839936 19020914 19210692 19389260 
1525.481 19558786 19738572 19954996 20226510 20555062 20928192 21328958 
1528.856 21744414 22171146 22614528 23083802 23584998 24118504 24678372 
1532.231 25256172 25847154 26452886 27081364 27737170 28417458 29107704 
1535.606 29787376 30431470 31016874 31526740 31947580 32272558 32499034 
1538.982 32627676 32657716 32589066 32428160 32192084 31906642 31597186 
1542.357 31276096 30938802 30565366 30132656 29626794 29055024 28445300 
1545.732 27836500 27259918 26723914 26214474 25702224 25158448 24569208 
1549.107 23945262 23318228 22729382 22207238 21756050 21357602 20983582 
1552.483 20611274 20233592 19862934 19523434 19238814 19017174 18847030 
1555.858 18699816 18539582 18326418 18021482 17595974 17044950 16408693 
1559.233 15768213 15210475 14784422 14490078 14298514 14171423 14073870 
1562.608 13976270 13860287 13720192 13565681 13417752 13300450 13230725 
1565.984 13209752 13223995 13250777 13270010 13270249 13254398 13238070 
1569.359 13243911 13291327 13387782 13529548 13707060 13911911 14138389 
1572.734 14383446 14644817 14917351 15195445 15475743 15762405 16069440 
1576.109 16418017 16827802 17304616 17840574 18420958 19033098 19671066 
1579.485 20336152 21034076 21768242 22533904 23316794 24091568 24826784 
1582.860 25492054 26058798 26504232 26812298 26972124 26979846 26838872 
1586.235 26561186 26167210 25684190 25146054 24585128 24028564 23493034 
1589.610 22981922 22488992 22002898 21514668 21019958 20519872 20018002 
1592.986 19517472 19019736 18526270 18042826 17582106 17161994 16803382 
1596.361 16521538 16320784 16194750 16129650 16112285 16134636 16196780 
1599.736 16304409 16463408 16675452 16936620 17241280 17587142 17980038 
1603.111 18435372 18972002 19608700 20357470 21221990 22200682 23290258 
1606.487 24488712 25792862 27194052 28672866 30194952 31715010 33185114 
1609.862 34560848 35812624 36929252 37917164 38795000 39584700 40303776 
1613.237 40957844 41539316 42027056 42393388 42606672 42639932 42478840 
1616.612 42125728 41595100 40905524 40068904 39088996 37964424 36692776 
1619.988 35273228 33706736 32003216 30182200 28278952 26355634 24491306 
1623.363 22770162 21260370 19994200 18966878 18144316 17481230 16932590 
1626.738 16462892 16051974 15692698 15387817 15143188 14962002 14841847 
1630.113 14775029 14750142 14754804 14777463 14806191 14828579 14831321 
1633.489 14798718 14716619 14577206 14386391 14167452 13956082 13787019 
1636.864 13677618 13625372 13613098 13619424 13624312 13613475 13580860 
1640.239 13528010 13462283 13393148 13328602 13272059 13220375 13165691 
1643.614 13096979 13002262 12871317 12698649 12485912 12245911 12001036 
1646.990 11779074 11605581 11494584 11446717 11450391 11487508 11534734 
1650.365 11564371 11546677 11448078 11242515 10928815 10553787 10204117 
1653.740 9956626 9836357 9817140 9854558 9909233 9957203 9987378 9997549 
1657.597 9990937 9972222 9945439 9911709 9869506 9814802 9743534 9652561 
1661.455 9542130 9416693 9285741 9162476 9059106 8984309 8940235 8922580 
1665.312 8921836 8925996 8923391 8902727 8856463 8781599 8680990 8563270 
1669.170 8440819 8328027 8236235 8172215 8137034 8126434 8131700 8140478 
1673.027 8139094 8113943 8056286 7966509 7858497 7755908 7681369 7647611 
1676.885 7651557 7679649 7713848 7739549 7750107 7747813 7741742 7742146 
1680.742 7754222 7773921 7787313 7773786 7713477 7597469 7439255 7274832 
1684.599 7149745 7093160 7105184 7165577 7247474 7330329 7399955 7450277 
1688.457 7480210 7493121 7494537 7491638 7492852 7505966 7536139 7584554 
1692.314 7646094 7710576 7762654 7786706 7771088 7715838 7636483 7563009 
1696.172 7526463 7540960 7599357 7677018 7744136 7771425 7739616 7648690 
1700.029 7525653 7416504 7360760 7372791 7438985 7532464 7625052 7695433 
1703.886 7730442 7725889 7687608 7630245 7572821 7531115 7512640 7516315 
1707.744 7535093 7559503 7581284 7596289 7603842 7606404 7607314 7609338 
1711.601 7613182 7618038 7621915 7623500 7622657 7619892 7615711 7607854 
1715.459 7591433 7559671 7507853 7436997 7358131 7289793 7252089 7256065 
1719.316 7301518 7377981 7470772 7564695 7648320 7715905 7767040 7805462 
1723.174 7837511 7869968 7907691 7953381 8007514 8069214 8136730 8207296 
1727.031 8277063 8341538 8396395 8438859 8469874 8493018 8513089 8533060 
1730.888 8550732 8557254 8537520 8473050 8350624 8171540 7959995 7757696 
1734.746 7607719 7531385 7523327 7559705 7611698 7654997 7671555 7652299 
1738.603 7598581 7521169 7436424 7360524 7304012 7268801 7250574 7241578 
1742.461 7235412 7227394 7216377 7203037 7189461 7177536 7167632 7159379 
1746.318 7151430 7142706 7132466 7120509 7106733 7091106 7072515 7049816 
1750.176 7021934 6990483 6959473 6935534 6925097 6931763 6954455 6987486 
1754.033 7021092 7044294 7048436 7028533 6987587 6934558 6882780 6844070 
1757.890 6823638 6818892 6821214 6820037 6805867 6773961 6725399 6667388 
1761.748 6610227 6564442 6537297 6531242 6544764 6572650 6608578 6645485 
1765.605 6675430 6692120 6691447 6673041 6641515 6604239 6568781 6538205 
1769.463 6509884 6476116 6427353 6356672 6264892 6162578 6068219 5999445 
1773.320 5965716 5965078 5987149 6018796 6049202 6073192 6090261 6103265 
1777.177 6114388 6124335 6130317 6128771 6117009 6095268 6067782 6041407 
1781.035 6022357 6013320 6012816 6015973 6017217 6012345 6000553 5983723 
1784.892 5965952 5951440 5942774 5941128 5946435 5958427 5976601 5999512 
1788.750 6024037 6044498 6053872 6044632 6012177 5957352 5887655 5816626 
1792.607 5758199 5722375 5711833 5722274 5745306 5772369 5796948 5814947 
1796.465 5824350 5824786 5816894 5801213 5778916 5751652 5721737 5691623 
1800.322 5663592 5639053 5618242 5600520 5585819 5574039 5565984 5562460 
1804.179 5563970 5569743 5578234 5587329 5595116 5600319 5602567 5601896 
1808.037 5598003 5590317 5577731 5560178 5538129 5513363 5489303 5469338 
1811.894 5455547 5448803 5447964 5451018 5456118 5462224 5469505 5479236 
1815.752 5492457 5509906 5531417 5555480 5580953 5606025 5629789 5651540 
1819.609 5671245 5689105 5705924 5722173 5737953 5752827 5765015 5772033 
1823.467 5771563 5763101 5748395 5732682 5722677 5723416 5736510 5758401 
1827.324 5781300 5795303 5791844 5767198 5724893 5674703 5628983 5598540 
1831.181 5587665 5593404 5607770 5622035 5629319 5626365 5613107 5592162 
1835.039 5566823 5539505 5512423 5487390 5466653 5453333 5451454 5463298 
1838.896 5489303 5527021 5571287 5615456 5653118 5678395 5687023 5676482 
1842.754 5646941 5603038 5553701 5511148 5488397 5494135 5529940 5590686 
1846.611 5666680 5746683 5821092 5885304 5939381 5987552 6035157 6086162 
1850.469 6140936 6196691 6248824 6293802 6330851 6362455 6393255 6427151 
1854.326 6466632 6511027 6558488 6606559 6654300 6702483 6752725 6805934 
1858.183 6862347 6920485 6978765 7037154 7097404 7162512 7235951 7318670 
1862.041 7408819 7501617 7591096 7672398 7742585 7800908 7847126 7880293 
1865.898 7896488 7890584 7856607 7791732 7698198 7585296 7466356 7355638 
1869.756 7263579 7193065 7140954 7100031 7062748 7023583 6979102 6928330 
1873.613 6871200 6808054 6739567 6666783 6591724 6516610 6443763 6373416 
1877.470 6304661 6234337 6159520 6078568 5993095 5907035 5825995 5754774 
1881.328 5695483 5646908 5605387 5567058 5529840 5494101 5462594 5438436 
1885.185 5424210 5419580 5422197 5428874 5436054 5441556 5443737 5442428 
1889.043 5437798 5430753 5423136 5417466 5417433 5425552 5443032 5468834 
1892.900 5498665 5527155 5550143 5565111 5572965 5577261 5581691 5589041 
1896.758 5599211 5610019 5619115 5625291 5629822 5635965 5647546 5666445 
1900.615 5692965 5724054 5756554 5788285 5818943 5850409 5884599 5923023 
1904.472 5964507 6006399 6045741 6080147 6109650 6135727 6159655 6181735 
1908.330 6200590 6213598 6219480 6218942 6215951 6215648 6223412 6241900 
1912.187 6270170 6304896 6342013 6378124 6412052 6442956 6470600 6492091 
1916.045 6503258 6499457 6478941 6444167 6403343 6367734 6346283 6343290 
1919.902 6356100 6377283 6398467 6413094 6419887 6422106 6424864 6432599 
1923.760 6446521 6464244 6481867 6496968 6509715 6523876 6544057 6573423 
1927.617 6611808 6655444 6699220 6739129 6774230 6806405 6839828 6877899 
1931.474 6921259 6967654 7013145 7053891 7087670 7114143 7133746 7146613 
1935.332 7152272 7149611 7139405 7125662 7114412 7114176 7131287 7167396 
1939.189 7217995 7274731 7327027 7367466 7394361 7411010 7425031 7443974 
1943.047 7471918 7508763 7550939 7594097 7635606 7675737 7716074 7758404 
1946.904 7803370 7849657 7895274 7939343 7982100 8025605 8072725 8124880 
1950.761 8182242 8243022 8305331 8368188 8432001 8498019 8565703 8633466 
1954.619 8696303 8749987 8790864 8820077 8842429 8866067 8899142 8946627 
1958.476 9009172 9081876 9158619 9233005 9300331 9360725 9414188 9462305 
1962.334 9505247 9543484 9577085 9608419 9639855 9673566 9710734 9749837 
1966.191 9787452 9820394 9847542 9871337 9897131 9930454 9975036 10029930 
1970.049 10090935 10151542 10207442 10256631 10301076 10345730 10394426 
1973.424 10449475 10512169 10582849 10664612 10763032 10884340 11032666 
1976.799 11205760 11392631 11575703 11735328 11856533 11931214 11960469 
1980.174 11951137 11912516 11854252 11783534 11705985 11627737 11554435 
1983.550 11493905 11452398 11434505 11440935 11469137 11514999 11573729 
1986.925 11643086 11720827 11805629 11895387 11985231 12070324 12146779 
1990.300 12214319 12277029 12341282 12414478 12500814 12599993 12706974 
1993.675 12814322 12917464 13013460 13103980 13194040 13287740 13387373 
1997.051 13492257 13598295 13701554 13798340 13886218 13964876 14035231 
2000.426 14097315 14152664 14201857 14246503 14289098 14332383 14379507 
2003.801 14433248 14495423 14566824 14648414 14740578 14843252 14955040 
2007.176 15073202 15193935 15312814 15428156 15539406 15650239 15764570 
2010.552 15884740 16011337 16141478 16270731 16396925 16520677 16645910 
2013.927 16779066 16923978 17080480 17242384 17399554 17542220 17665266 
2017.302 17769358 17861462 17952204 18049318 18156684 18271952 18388254 
2020.677 18497536 18592420 18667232 18718254 18742434 18737142 18701026 
2024.052 18635548 18544734 18436478 18319886 18202602 18088834 17978794 
2027.428 17869332 17755516 17634828 17506824 17375034 17244176 17118632 
2030.803 17000946 16892456 16793530 16705545 16631726 16576370 16543152 
2034.178 16534135 16546423 16574856 16612757 16653897 16694525 16733127 
2037.553 16768424 16798974 16822772 16836584 16838684 16830004 16813300 
2040.929 16792532 16771765 16751722 16729787 16701585 16661989 16607972 
2044.304 16540330 16461825 16378310 16295429 16218001 16150799 16096501 
2047.679 16056340 16029077 16009068 15985554 15945164 15873123 15759245 
2051.054 15601122 15406355 15190263 14971913 14769544 14594236 14447361 
2054.430 14320705 14200693 14074007 13931892 13772244 13600106 13422946 
2057.805 13247702 13079017 12918829 12767196 12625270 12495563 12381237 
2061.180 12285277 12207299 12143372 12086813 12030228 11968814 11901551 
2064.555 11831132 11761881 11698089 11641350 11590131 11541130 11490638 
2067.931 11435423 11374366 11306854 11232553 11151567 11063526 10969455 
2071.306 10871531 10773358 10678705 10590251 10508298 10429824 10350853 
2074.681 10267624 10178303 10084084 9987988 9893573 9803482 9716901 9631658 
2078.539 9544738 9454415 9361199 9268105 9178822 9097169 9024937 8962288 
2082.396 8908172 8861738 8822005 8788801 8761550 8738323 8716315 8692111 
2086.253 8662399 8625827 8582735 8534444 8482037 8425481 8362986 8292429 
2090.111 8212530 8124070 8030533 7937588 7851108 7776114 7715298 7669262 
2093.968 7636989 7617127 7607753 7606607 7610316 7613823 7611698 7599458 
2097.826 7574945 7539578 7498279 7456850 7420043 7389811 7364298 7340035 
2101.683 7313346 7282784 7250203 7220016 7196030 7181443 7175919 7177300 
2105.541 7182488 7188787 7195828 7204721 7216613 7231033 7246530 7259872 
2109.398 7268734 7272272 7272002 7270418 7270317 7272137 7274125 7273047 
2113.255 7265499 7250472 7229820 7207315 7187406 7173594 7166318 7163590 
2117.113 7161906 7158166 7150385 7138697 7123641 7106127 7086828 7065409 
2120.970 7042037 7018330 6996274 6978496 6966812 6960348 6955903 6948934 
2124.828 6934996 6911867 6880727 6845248 6811016 6782677 6762552 6750806 
2128.685 6745052 6742124 6738860 6733577 6725264 6714261 6702113 6691816 
2132.542 6688250 6697234 6724322 6772581 6840401 6920855 7002874 7075681 
2136.400 7130007 7162950 7177906 7181982 7183566 7188248 7197647 7209876 
2140.257 7221431 7228776 7231235 7229483 7224699 7217085 7205563 7187844 
2144.115 7163219 7133241 7101748 7074536 7056417 7049109 7050625 7056619 
2147.972 7061637 7062782 7059650 7053454 7046314 7037895 7025974 7006848 
2151.830 6976509 6933312 6877832 6812127 6737918 6656689 6569723 6480354 
2155.687 6398601 6341307 6329708 6387236 6528114 6752355 7041431 7361737 
2159.544 7675433 7948893 8161207 8305736 8388118 8419771 8414703 8386260 
2163.402 8345118 8299724 8256462 8218270 8185585 8155941 8125050 8089097 
2167.259 8046194 7997457 7946092 7897231 7853436 7816258 7784918 7757494 
2171.117 7732533 7711655 7696613 7690677 7694657 7708046 7727946 7751928 
2174.974 7778239 7807385 7841459 7880866 7922909 7963437 7995094 8013150 
2178.832 8018247 8016255 8018112 8035157 8075155 8139161 8220499 8307627 
2182.689 8388625 8455278 8504270 8537790 8560026 8575166 8585507 8591151 
2186.546 8591252 8585980 8575909 8562830 8547590 8530626 8509981 8483997 
2190.404 8451596 8414265 8374504 8337349 8305094 8279865 8259738 8241401 
2194.261 8222053 8199665 8174004 8147028 8120965 8097502 8077316 8060303 
2198.119 8046362 8035494 8027967 8023613 8022162 8022162 8021960 8021183 
2201.976 8020373 8021555 8027428 8039679 8057602 8078733 8099089 8114888 
2205.833 8124813 8129877 8132376 8136089 8142166 8150741 8160094 8168602 
2209.691 8175929 8183829 8195208 8212125 8235357 8262136 8288241 8309079 
2213.548 8321474 8325224 8323163 8318536 8314517 8312829 8312896 8312829 
2217.406 8311714 8308944 8304790 8299589 8292294 8280541 8261528 8232115 
2221.263 8192101 8144091 8092945 8044608 8004240 7974338 7954765 7943730 
2225.121 7938061 7935395 7934146 7933404 7932527 7930839 7927262 7921188 
2228.978 7912989 7903844 7896151 7891394 7889875 7891157 7893586 7895442 
2232.835 7896758 7898378 7903068 7912415 7928443 7950108 7976296 8004409 
2236.693 8031984 8057906 8081671 8102566 8120795 8136427 8149661 8161512 
2240.550 8174240 8189502 8209086 8232655 8257982 8281824 8300804 8312929 
2244.408 8319279 8322522 8325967 8332046 8340896 8349947 8355487 8354035 
2248.265 8344206 8327250 8307053 8287430 8272166 8262811 8259367 8261089 
2252.123 8267336 8277975 8293712 8314247 8338328 8362648 8383253 8396023 
2255.980 8398590 8390854 8374437 8353089 8329715 8306479 8284932 8264770 
2259.837 8245217 8226037 8206215 8185315 8162659 8138047 8111714 8085485 
2263.695 8061282 8042515 8030870 8027360 8030330 8036811 8042684 8044978 
2267.552 8042447 8035460 8026279 8017639 8010991 8007379 8006839 8008898 
2271.410 8013522 8021217 8032119 8046227 8062463 8078261 8091528 8100710 
2275.267 8105030 8105875 8104895 8103815 8103883 8105267 8107764 8110972 
2279.125 8115327 8121404 8129843 8141322 8154455 8167825 8179507 8187712 
2282.982 8192068 8193283 8191899 8188557 8182647 8172687 8156954 8134570 
2286.839 8105773 8072691 8038160 8005691 7977949 7956452 7941873 7933505 
2290.697 7930806 7932931 7938904 7947442 7956858 7965632 7971909 7975047 
2294.554 7975317 7973697 7971335 7969579 7968737 7968905 7969714 7971200 
2298.412 7973731 7978456 7985812 7995938 8007581 8019057 8028642 8035325 
2302.269 8039544 8043021 8048489 8058041 8073265 8094296 8120188 8149459 
2306.126 8180993 8213915 8248121 8283378 8319414 8355183 8389874 8422541 
2309.984 8452981 8481530 8508866 8535897 8563203 8590373 8617005 8642592 
2313.841 8666861 8690015 8713104 8736971 8762835 8791709 8823932 8859642 
2317.699 8898228 8938916 8980317 9021350 9061068 9099233 9136217 9172494 
2321.556 9207892 9240689 9267259 9282424 9281171 9260084 9219536 9163999 
2325.414 9102177 9044051 9000004 8977442 8979877 9006060 9051155 9108741 
2329.271 9172730 9237677 9300805 9360489 9415508 9465082 9508159 9543688 
2333.128 9571259 9591041 9603811 9610587 9612416 9610214 9604658 9596630 
2336.986 9587112 9577187 9567262 9557338 9546465 9533290 9516356 9495188 
2340.843 9470399 9443375 9415643 9387811 9358762 9325516 9284218 9230975 
2344.701 9164608 9086646 9002474 8920720 8851120 8802461 8781836 8792419 
2348.558 8834280 8904045 8996182 9103395 9217572 9331645 9439684 9538573 
2352.416 9627322 9706702 9778099 9842051 9897877 9944320 9980122 10004940 
2356.273 10019995 10027658 10030710 10031523 10031422 10031286 10031422 
2359.648 10032269 10034236 10037865 10042476 10046376 10047291 10042713 
2363.023 10031422 10014265 9993684 9973578 9956762 9944931 9937235 9931438 
2366.881 9923980 9912352 9895233 9872590 9845610 9815412 9783182 9749736 
2370.738 9715681 9681968 9649477 9619496 9592192 9567330 9543620 9519505 
2374.596 9493969 9466877 9438601 9410530 9383545 9357814 9332693 9307203 
2378.453 9280122 9251587 9222107 9193171 9165996 9141495 9119433 9099233 
2382.311 9080049 9061440 9043983 9028928 9017392 9010289 9007481 9008157 
2386.168 9010863 9014551 9018306 9022365 9027102 9033191 9041412 9052407 
2390.025 9066854 9085868 9110129 9140109 9175166 9213544 9252467 9289194 
2393.883 9321555 9349113 9373387 9396919 9422855 9453534 9489398 9529429 
2397.740 9571124 9611603 9648427 9679698 9704432 9721950 9732149 9734724 
2401.598 9730149 9719375 9704364 9687355 9671194 9657540 9647817 9641686 
2405.455 9638196 9635858 9633419 9629726 9624103 9616718 9608113 9599848 
2409.313 9593886 9592599 9598697 9613805 9638297 9670957 9709650 9751057 
2413.170 9792909 9833510 9872794 9911335 9950388 9990801 10032914 10076623 
2417.027 10121899 10168671 10217414 10268641 10322215 10377390 10432199 
2420.403 10484809 10533690 10578028 10618228 10655443 10690114 10722412 
2423.778 10751213 10774682 10791700 10801856 10806273 10807428 10808481 
2427.153 10811912 10819079 10829950 10843266 10857263 10870342 10881452 
2430.528 10890217 10896843 10901702 10905643 10910026 10915836 10924670 
2433.904 10937888 10955489 10977203 11001569 11027059 11052514 11077599 
2437.279 11102854 11129403 11158367 11189951 11223508 11257716 11290768 
2440.654 11321648 11350046 11376440 11402053 11428109 11455121 11483629 
2444.029 11513297 11543920 11575260 11606976 11638933 11670450 11700709 
2447.405 11729099 11754971 11778495 11799740 11819589 11838214 11855784 
2450.780 11872231 11887214 11900768 11913061 11924743 11936118 11947119 
2454.155 11956859 11964182 11967997 11968133 11965613 11962411 11961151 
2457.530 11963909 11971913 11984925 12002126 12022394 12044842 12069813 
2460.906 12098261 12131548 12170598 12215614 12266020 12320454 12378134 
2464.281 12437731 12499041 12562304 12627930 12696330 12768117 12843433 
2467.656 12922550 13005471 13091959 13181334 13272845 13365469 13459070 
2471.031 13553989 13651597 13753912 13863127 13981129 14108884 14246674 
2474.406 14394474 14551988 14719669 14898423 15089805 15295516 15516433 
2477.782 15753334 16006283 16274858 16558917 16858456 17173334 17504066 
2481.157 17850656 18212586 18588548 18976016 19371210 19768254 20159762 
2484.532 20537276 20891474 21213536 21495934 21732604 21919636 22054628 
2487.907 22136870 22166754 22145936 22077846 21967068 21820116 21644902 
2491.283 21449424 21241474 21028270 20814958 20605786 20403518 20210404 
2494.658 20028202 19858632 19703134 19563604 19442064 19341034 19263234 
2498.033 19212078 19190814 19202624 19249932 19333900 19454714 19612340 
2501.408 19806576 20038508 20309832 20623052 20980870 21384958 21835204 
2504.784 22329832 22865150 23435120 24031612 24645336 25263546 25871594 
2508.159 26452992 26988414 27457992 27842788 28124020 28287122 28321852 
2511.534 28223614 27994408 27643338 27185870 26641222 26031990 25381526 
2514.909 24710288 24037284 23377070 22739680 22131362 21554638 21009282 
2518.285 20492950 20002560 19535044 19088146 18661282 18254812 17870956 
2521.660 17512104 17180158 16876058 16599365 16348032 16118921 15908970 
2525.035 15715852 15537930 15374566 15226260 15093339 14975995 14874043 
2528.410 14786856 14713363 14652047 14601707 14560930 14528381 14502926 
2531.786 14483809 14470689 14463632 14462673 14467572 14477300 14490318 
2535.161 14504604 14518411 14530334 14540201 14548630 14556476 14564871 
2538.536 14574191 14584471 14595298 14606675 14618566 14631588 14646187 
2541.911 14662705 14681213 14701263 14722275 14744486 14768036 14794123 
2545.287 14823950 14858237 14896914 14939539 14984980 15032451 15081607 
2548.662 15132518 15185460 15241222 15299360 15359428 15420945 15483296 
2552.037 15546584 15611632 15679333 15750587 15825631 15904536 15986413 
2555.412 16071022 16157849 16247477 16340291 16436875 16537439 16642123 
2558.788 16750414 16862830 16979686 17101846 17230074 17365066 17506654 
2562.163 17654602 17808192 17966984 18131290 18301708 18478864 18663012 
2565.538 18853500 19048606 19246192 19443694 19639310 19831926 20020396 
2568.913 20203984 20381256 20550128 20707700 20851008 20976872 21083292 
2572.289 21169038 21233994 21279124 21306478 21318692 21318902 21310410 
2575.664 21296142 21278358 21258630 21237682 21215588 21192870 21170290 
2579.039 21149730 21133764 21125276 21126980 21140930 21167856 21207654 
2582.414 21259742 21323216 21397836 21484028 21582844 21695788 21824402 
2585.790 21969578 22132304 22312494 22509302 22721980 22949432 23190600 
2589.165 23444386 23709976 23986614 24272820 24567210 24867202 25169648 
2592.540 25471076 25767052 26053310 26325392 26578234 26806728 27006114 
2595.915 27171690 27299822 27388640 27437660 27447756 27420898 27359314 
2599.291 27265032 27139732 26985416 26804122 26599124 26374328 26134306 
2602.666 25883726 25626930 25367510 25108526 24852748 24602834 24361618 
2606.041 24132338 23917848 23720962 23543858 23388400 23256034 23148172 
2609.416 23066120 23011196 22984016 22984854 23012734 23065668 23141288 
2612.792 23236738 23349274 23476178 23614872 23762186 23915224 24070380 
2616.167 24224294 24374234 24518196 24655050 24784968 24908396 25026524 
2619.542 25140928 25253150 25364944 25477648 25592310 25709290 25828410 
2622.917 25948584 26068402 26186214 26300220 26408060 26507156 26593556 
2626.292 26662888 26709328 26727122 26711230 26657392 26563546 26429188 
2629.668 26255374 26044268 25799224 25524416 25224602 24905378 24572960 
2633.043 24232494 23889598 23548334 23211606 22881530 22559834 22248178 
2636.418 21948248 21662488 21392372 21139052 20902704 20682264 20475896 
2639.793 20281988 20098750 19925094 19760488 19604470 19456550 19316406 
2643.169 19183022 19055670 18933928 18817688 18706874 18601588 18501546 
2646.544 18406506 18316154 18230278 18149530 18074534 18006422 17945884 
2649.919 17893330 17848342 17809954 17777022 17748718 17724176 17703400 
2653.294 17686350 17673028 17663780 17658362 17656638 17658708 17664780 
2656.670 17674962 17689560 17708472 17731252 17757380 17786238 17817444 
2660.045 17851070 17887080 17925648 17966984 18011086 18057712 18107040 
2663.420 18158930 18213554 18271158 18331846 18395756 18462720 18532528 
2666.795 18605184 18680514 18758868 18839694 18922888 19007586 19093028 
2670.171 19178868 19264896 19351912 19440852 19532894 19628632 19728032 
2673.546 19830574 19935154 20040936 20147578 20255254 20364728 20476904 
2676.921 20592340 20711558 20834496 20961048 21091220 21225228 21363380 
2680.296 21505996 21653294 21804752 21960584 22120484 22284800 22454308 
2683.672 22630026 22812730 23002916 23200632 23405814 23618302 23838524 
2687.047 24067088 24305548 24555430 24818680 25096274 25389640 25699552 
2690.422 26026784 26371724 26734662 27115256 27512458 27924828 28350110 
2693.797 28785794 29229108 29676744 30124806 30568778 31002460 31418838 
2697.173 31809870 32166396 32479112 32739316 32938510 33070500 33131004 
2700.548 33118844 33035960 32887828 32683186 32431908 32145556 31835754 
2703.923 31512172 31183916 30858362 30540802 30235624 29946100 29674438 
2707.298 29421986 29189098 28975640 28780518 28602684 28440700 28293206 
2710.674 28158840 28036464 27924864 27823076 27730248 27645738 27568944 
2714.049 27499680 27437486 27382040 27332566 27288494 27249686 27216418 
2717.424 27189186 27168726 27155888 27150808 27153030 27161354 27174582 
2720.799 27191196 27210598 27232294 27256458 27283202 27312558 27343858 
2724.175 27376182 27408720 27440662 27471792 27502680 27534558 27569226 
2727.550 27608488 27654604 27709518 27774860 27851868 27941118 28042296 
2730.925 28154422 28276018 28405078 28539802 28678990 28822014 28968662 
2734.300 29119186 29274228 29434040 29598664 29767966 29941308 30118092 
2737.676 30297474 30478384 30659976 30841358 31021536 31199650 31374530 
2741.051 31544842 31708806 31864240 32008924 32140848 32257818 32358724 
2744.426 32442618 32509070 32557924 32589246 32603212 32600708 32582994 
2747.801 32552138 32511250 32463506 32412912 32363004 32316994 32277520 
2751.177 32246434 32225058 32214172 32214388 32225378 32247006 32278556 
2754.552 32318636 32365862 32418378 32474004 32530568 32586138 32638534 
2757.927 32686688 32729454 32766540 32798056 32824426 32846012 32863382 
2761.302 32876852 32887004 32894474 32900516 32906342 32913666 32923996 
2764.677 32938544 32958136 32983444 33015010 33053518 33100214 33156716 
2768.053 33224526 33305336 33399970 33509086 33632728 33770944 33923716 
2771.428 34091092 34272980 34469040 34678436 34899744 35131224 35371420 
2774.803 35619224 35874120 36136584 36407096 36686212 36974204 37270364 
2778.178 37573268 37880720 38190088 38498740 38804456 39104988 39398868 
2781.554 39684924 39962488 40230744 40488908 40735792 40970220 41191084 
2784.929 41397764 41590616 41770968 41941108 42104044 42263168 42421440 
2788.304 42581780 42746424 42917272 43096016 43283988 43482184 43690988 
2791.679 43909600 44136216 44367388 44599236 44826908 45045656 45251164 
2795.055 45440364 45611320 45764008 45900324 46023824 46139988 46255300 
2798.430 46376840 46511652 46666240 46846056 47055856 47298744 47576892 
2801.805 47891108 48241092 48625564 49041752 49486568 49956588 50447816 
2805.180 50956960 51480804 52015924 52559220 53107240 53656140 54202244 
2808.556 54741368 55269344 55782144 56275176 56743512 57182036 57585592 
2811.931 57949124 58268128 58539364 58759972 58928016 59042452 59102428 
2815.306 59108124 59060820 58962284 58815932 58626312 58398040 58137076 
2818.681 57849512 57541556 57219796 56891548 56562948 56240364 55929480 
2822.057 55634068 55357488 55101956 54868496 54657596 54469936 54305072 
2825.432 54162756 54042808 53944768 53868692 53814716 53783440 53775304 
2828.807 53790604 53829420 53890672 53973544 54076544 54198564 54338828 
2832.182 54496532 54671012 54861356 55066036 55283760 55513488 55755132 
2835.558 56009460 56278644 56565436 56872776 57202976 57558088 57939504 
2838.933 58348920 58788500 59261868 59773548 60329576 60936028 61599756 
2842.308 62327872 63127444 64006388 64972960 66035376 67201256 68475824 
2845.683 69860128 71347928 72924152 74562960 76225152 77860672 79412264 
2849.059 80815576 82012024 82952736 83603736 83952888 84009208 83801560 
2852.434 83371664 82771408 82057976 81283064 80497640 79745168 79058744 
2855.809 78463864 77976528 77602656 77341664 77186848 77128424 77154784 
2859.184 77254288 77416336 77630624 77887472 78177592 78490696 78817456 
2862.560 79147992 79472496 79781920 80067688 80321840 80539160 80717128 
2865.935 80856848 80963104 81044520 81111256 81173560 81241072 81321136 
2869.310 81418640 81536920 81677744 81841528 82028112 82236160 82463496 
2872.685 82707064 82963880 83230928 83506248 83788056 84075192 84365576 
2876.061 84656960 84945832 85228824 85503472 85768656 86025640 86278160 
2879.436 86531568 86792920 87069456 87368904 87698768 88065472 88474416 
2882.811 88929032 89429976 89975176 90560424 91179192 91824632 92489272 
2886.186 93166720 93850496 94535256 95215576 95886760 96545152 97188384 
2889.562 97815688 98427344 99024464 99608536 100181152 100743424 101297888 
2892.937 101847112 102395560 102948224 103510096 104085832 104678944 
2895.830 105292248 105928280 106590096 107281568 108006768 108769736 
2898.723 109572904 110416424 111298160 112213344 113155232 114116608 
2901.616 115088632 116061888 117027128 117973952 118892792 119776464 
2904.509 120619336 121418960 122175416 122890368 123565752 124204000 
2907.402 124807816 125380888 125928056 126456928 126975552 127492424 
2910.295 128015128 128548160 129093584 129650056 130213456 130776032 
2913.188 131325872 131847728 132320968 132722464 133029904 133222904 
2916.081 133288624 133223040 133031800 132727880 132328648 131853296 
2918.974 131318304 130735592 130112544 129451272 128750280 128005832 
2921.867 127214816 126376528 125495032 124579536 123645520 122712760 
2924.760 121802048 120933768 120125208 119387744 118728176 118148416 
2927.654 117646832 117219136 116858800 116558168 116307464 116096688 
2930.547 115916168 115757224 115613816 115482688 115362704 115253688 
2933.440 115155880 115068208 114988584 114913672 114839336 114761784 
2936.333 114676256 114578192 114463464 114327904 114168712 113984944 
2939.226 113778000 113550888 113307680 113052312 112786992 112512352 
2942.119 112227288 111929848 111618008 111289896 110943552 110577232 
2945.012 110188248 109773712 109331264 108859816 108361448 107840576 
2947.905 107305320 106764968 106230688 105714280 105227096 104781920 
2950.798 104391896 104070040 103829856 103682760 103637024 103697768 
2953.691 103864864 104133880 104494976 104933904 105431480 105962360 
2956.584 106498928 107010296 107465960 107841344 108118904 108291536 
2959.477 108363352 108348224 108267688 108145176 108005872 107872088 
2962.370 107759760 107680104 107636632 107626184 107639008 107660744 
2965.263 107675304 107665160 107616160 107518240 107365816 107159000 
2968.156 106901536 106601280 106267848 105912672 105548328 105185976 
2971.050 104836120 104506560 104202104 103923792 103670136 103437472 
2973.943 103221040 103015768 102816960 102619768 102420264 102214568 
2976.836 101999200 101772088 101532368 101280688 101018544 100748776 
2979.729 100474416 100198848 99926088 99660960 99408448 99174816 98965872 
2983.104 98786256 98638992 98524480 98441344 98385944 98353864 98340280 
2986.479 98339736 98346304 98353864 98354240 98339320 98300056 98226728 
2989.854 98111040 97945320 97723968 97443592 97104512 96710920 96270416 
2993.230 95794496 95296696 94789648 94284920 93789912 93308120 92839168 
2996.605 92380400 91928336 91480296 91034760 90592584 90156032 89727752 
2999.980 89310952 88908504 88522024 88152776 87800760 87465184 87145064 
3003.355 86839456 86547904 86270848 86009160 85763608 85534256 85320072 
3006.731 85117720 84922912 84730648 84536504 84337008 84130240 83915704 
3010.106 83693024 83461960 83221536 82970424 82707664 82433256 82148320 
3013.481 81855976 81559392 81262760 80969776 80683368 80406320 80140648 
3016.856 79888320 79650704 79428536 79220880 79025440 78838752 78656032 
3020.232 78472320 78283680 78086448 77878040 77656704 77420576 77167848 
3023.607 76896712 76605184 76291944 75956736 75600144 75224112 74830640 
3026.982 74422656 74001856 73569848 73126976 72672888 72206944 71728592 
3030.357 71237624 70734880 70221504 69699400 69169912 68634320 68092872 
3033.733 67546136 66994368 66438980 65882528 65328092 64779712 64241016 
3037.108 63714564 63201904 62703088 62217696 61745032 61284668 60836532 
3040.483 60401500 59979948 59572228 59177792 58795176 58422600 58057880 
3043.858 57698572 57343008 56989580 56637044 56284720 55932152 55579196 
3047.234 55226108 54872932 54519560 54165908 53811304 53455192 53097056 
3050.609 52736816 52374744 52011704 51648552 51285524 50922760 50559512 
3053.984 50194864 49827652 49457492 49084376 48709396 48333928 47959556 
3057.359 47587764 47220060 46857092 46499556 46148280 45803660 45466744 
3060.735 45138364 44819560 44511232 44214312 43929616 43658012 43400116 
3064.110 43155776 42924440 42705256 42496708 42297356 42106052 41922092 
3067.485 41745544 41576908 41416972 41266716 41126788 40997752 40879820 
3070.860 40773096 40677640 40593120 40519420 40455844 40402204 40357584 
3074.236 40321516 40293596 40272984 40259312 40251972 40250336 40253388 
3077.611 40260512 40270732 40283056 40296540 40309776 40321480 40330536 
3080.986 40336060 40338132 40336932 40333372 40328392 40322428 40315520 
3084.361 40307084 40295704 40280544 40260984 40237612 40211404 40184220 
3087.737 40157576 40132828 40110116 40089328 40069596 40050048 40029956 
3091.112 40008808 39986504 39962780 39937640 39910836 39882068 39851012 
3094.487 39817712 39782488 39745992 39709396 39674036 39641108 39611380 
3097.862 39585500 39563032 39543216 39524960 39507432 39489944 39472996 
3101.238 39457576 39445128 39437256 39435008 39438960 39449300 39465664 
3104.613 39488016 39516868 39552940 39597040 39650404 39713100 39785028 
3107.988 39865468 39953516 40048304 40149796 40257860 40372604 40494504 
3111.363 40623028 40757848 40898096 41042544 41189988 41338944 41487692 
3114.739 41634524 41777316 41914428 42044468 42166436 42279932 42384508 
3118.114 42480012 42565592 42640664 42704380 42756368 42797100 42827560 
3121.489 42849720 42865044 42875576 42882232 42885888 42886768 42884940 
3124.864 42880292 42872980 42863360 42851732 42838748 42825548 42813336 
3128.240 42803500 42797064 42794468 42795200 42797612 42799732 42799332 
3131.615 42794356 42784336 42769240 42749824 42726824 42700616 42670600 
3134.990 42635912 42595380 42548452 42495468 42437224 42374828 42309224 
3138.365 42240380 42167824 42090644 42007604 41918516 41824120 41725848 
3141.740 41625552 41525316 41426452 41329940 41236220 41145144 41056636 
3145.116 40970480 40886556 40804252 40723384 40643292 40563656 40484140 
3148.491 40405260 40327628 40252552 40180800 40113456 40050992 39992968 
3151.866 39938620 39887008 39836888 39787208 39737244 39686524 39634720 
3155.241 39581980 39528084 39473068 39417224 39360632 39303824 39247352 
3158.617 39191832 39137656 39085156 39033676 38982388 38930488 38876996 
3161.992 38821848 38765292 38708600 38652892 38599292 38548164 38499428 
3165.367 38452144 38405196 38357672 38309140 38259488 38209012 38157928 
3168.742 38106340 38054220 38001204 37947392 37892868 37837952 37783332 
3172.118 37729804 37677836 37627464 37578612 37530564 37482268 37432752 
3175.493 37380780 37325460 37266320 37203940 37139260 37074404 37011692 
3178.868 36953384 36900500 36853176 36810040 36769288 36728828 36687436 
3182.243 36644788 36601276 36558060 36516248 36476352 36438552 36402484 
3185.619 36367892 36334896 36304164 36276428 36252584 36232880 36216924 
3188.994 36203676 36192328 36181884 36171980 36162580 36154336 36147384 
3192.369 36142596 36140184 36140616 36144252 36151492 36162040 36176084 
3195.744 36192688 36210804 36229856 36248872 36268000 36287812 36309208 
3199.120 36333128 36360292 36390772 36424428 36461036 36500176 36541800 
3202.495 36585524 36630728 36676872 36722592 36767092 36809608 36849644 
3205.870 36887696 36923732 36958112 36990764 37020892 37048096 37071696 
3209.245 37092088 37109988 37126912 37144272 37162972 37182860 37203252 
3212.621 37222708 37240040 37254192 37265128 37273616 37280364 37286900 
3215.996 37294048 37302244 37311164 37319936 37327556 37332608 37334380 
3219.371 37332540 37328024 37322284 37317556 37315928 37318888 37326760 
3222.746 37338824 37353376 37369048 37384140 37398188 37411624 37425600 
3226.122 37440916 37459044 37480100 37504592 37532228 37562284 37595160 
3229.497 37630392 37668148 37708264 37750728 37795224 37841564 37889900 
3232.872 37940016 37991832 38044636 38097732 38150220 38201704 38251600 
3236.247 38300632 38349452 38398608 38448852 38499900 38551820 38603896 
3239.623 38655936 38707876 38759856 38811668 38862536 38911060 38955348 
3242.998 38993768 39025304 39050244 39070072 39087220 39104260 39123008 
3246.373 39144472 39168296 39193316 39217904 39240968 39261532 39279340 
3249.748 39295340 39310388 39326096 39344016 39365240 39390636 39420056 
3253.124 39452860 39487984 39524308 39561292 39599076 39638640 39681444 
3256.499 39728712 39780816 39837104 39896232 39955952 40014552 40071016 
3259.874 40125304 40177672 40228996 40279964 40330860 40381292 40431440 
3263.249 40481012 40530368 40579952 40630052 40680736 40731680 40782160 
3266.625 40831336 40878328 40922452 40963268 41000228 41032928 41060972 
3270.000 41084132 41102600 41116808 41127624 41135600 41141212 41144492 
3273.375 41145656 41144744 41142268 41139392 41137460 41137348 41139828 
3276.750 41144344 41149552 41153668 41155200 41152976 41147040 41138368 
3280.125 41128168 41117900 41108684 41100524 41093752 41087632 41081512 
3283.501 41074592 41066252 41055980 41043452 41028484 41011152 40992000 
3286.876 40971896 40951908 40933228 40917248 40904904 40897080 40893580 
3290.251 40893944 40896712 40899772 40901048 40898536 40891288 40879384 
3293.626 40864204 40847716 40831732 40817720 40805892 40795444 40785072 
3297.002 40773460 40759776 40743908 40726588 40708680 40691072 40673824 
3300.377 40656756 40639364 40621244 40601928 40581700 40561000 40540116 
3303.752 40520076 40501200 40484504 40470392 40459264 40450972 40444864 
3307.127 40440060 40435624 40431148 40427184 40425116 40426748 40433584 
3310.503 40446100 40463520 40483884 40504800 40524440 40542376 40559432 
3313.878 40577552 40599016 40624776 40655192 40689392 40725712 40763088 
3317.253 40801124 40840032 40881024 40925076 40972772 41024336 41079000 
3320.628 41136768 41197056 41259868 41325348 41393356 41463412 41534868 
3324.004 41606844 41678684 41749956 41820472 41889540 41956288 42019608 
3327.379 42077756 42129708 42175128 42214780 42250096 42283148 42315216 
3330.754 42347212 42378992 42409532 42437736 42462396 42482092 42495868 
3334.129 42502700 42501496 42491776 42473836 42448552 42418044 42384800 
3337.505 42350572 42316236 42281392 42243848 42201420 42151868 42093928 
3340.880 42027308 41953512 41873632 41789608 41702284 41612060 41519192 
3344.255 41423828 41326004 41226128 41124964 41022948 40920524 40817756 
3347.630 40714724 40611604 40508072 40403768 40298212 40191196 40082244 
3351.006 39971320 39858712 39744908 39630256 39515088 39399196 39282536 
3354.381 39164524 39045276 38925704 38806920 38690564 38577348 38467568 
3357.756 38360312 38254312 38147872 38040116 37930940 37821432 37712784 
3361.131 37606364 37503004 37402628 37304664 37208020 37111972 37015876 
3364.507 36919728 36823924 36729012 36635196 36543028 36452676 36364184 
3367.882 36277728 36192944 36109324 36026412 35943584 35860444 35777220 
3371.257 35694400 35612176 35530904 35450112 35369008 35286632 35202328 
3374.632 35116136 35028848 34941936 34856660 34774124 34694120 34615672 
3378.008 34537096 34456992 34373816 34287864 34199452 34109836 34020172 
3381.383 33931420 33844372 33759520 33676804 33596356 33518034 33441518 
3384.758 33366442 33292062 33218014 33143804 33069712 32996490 32924782 
3388.133 32855876 32790266 32728132 32668970 32611888 32555744 32499392 
3391.509 32441798 32382500 32321386 32258746 32195688 32133106 32071992 
3394.884 32012492 31954822 31898152 31841636 31784308 31725738 31665716 
3398.259 31604528 31542812 31480960 31419334 31357576 31295326 31232334 
3401.634 31168856 31105424 31042390 30980434 30918948 30857400 30794546 
3405.010 30729034 30660082 30587124 30510800 30431720 30350876 30269372 
3408.385 30187848 30106658 30025660 29944928 29864176 29782868 29700940 
3411.760 29617926 29534148 29449960 29366074 29283266 29202386 29123684 
3415.135 29047194 28972344 28898146 28823500 28747488 28669116 28587856 
3418.510 28503534 28416184 28326626 28235776 28145300 28056574 27970978 
3421.886 27888964 27810466 27734770 27660606 27586880 27513056 27438966 
3425.261 27364782 27291036 27217864 27145412 27073852 27003328 26934894 
3428.636 26869856 26809408 26754748 26706084 26662606 26622444 26583096 
3432.011 26542728 26499514 26453308 26404188 26353344 26301560 26249674 
3435.387 26198074 26147398 26097678 26048982 26001314 25954072 25905956 
3438.762 25855980 25802108 25742758 25677020 25604612 25525786 25441776 
3442.137 25353740 25262702 25169544 25073314 24973316 24867378 24753502 
3445.512 24630398 24498072 24358568 24215676 24074302 23939170 23813112 
3448.888 23696958 23588250 23483452 23377806 23268166 23153308 23034116 
3452.263 22913630 22794710 22679946 22570620 22465684 22363460 22261362 
3455.638 22157616 22051108 21941940 21830638 21718114 21605338 21493290 
3459.013 21382418 21273418 21166534 21061552 20958476 20856710 20755730 
3462.389 20655472 20556174 20457732 20360700 20265218 20170694 20076608 
3465.764 19982854 19889190 19796240 19705146 19616708 19531128 19448060 
3469.139 19365908 19283426 19199646 19114494 19029256 18945072 18863328 
3472.514 18784056 18706596 18629186 18550438 18469634 18387668 18306444 
3475.890 18228896 18157098 18092324 18034606 17982248 17933038 17885008 
3479.265 17836086 17785168 17731908 17675962 17617748 17558814 17499926 
3482.640 17442734 17388000 17335478 17283792 17230972 17173746 17110016 
3486.015 17038644 16959910 16875610 16787778 16698623 16608521 16517475 
3489.391 16424075 16327355 16226875 16123665 16019588 15916772 15817143 
3492.766 15721451 15629286 15538651 15447553 15353763 15255464 15152211 
3496.141 15044250 14933228 14821139 14710244 14602597 14499363 14400331 
3499.516 14304439 14209595 14113539 14013671 13909174 13800119 13688389 
3502.892 13576552 13468059 13365640 13271718 13186867 13110331 13040160 
3506.267 12972833 12904766 12832238 12752660 12664806 12569501 12469238 
3509.642 12367805 12268986 12176015 12090527 12012787 11942112 11877338 
3513.017 11817512 11761439 11708266 11656768 11604832 11550453 11491489 
3516.393 11426919 11356951 11283525 11209398 11137527 11070597 11009419 
3519.768 10953723 10901702 10850978 10799615 10746016 10689707 10631131 
3523.143 10571442 10512033 10453615 10396734 10340164 10282313 10220535 
3526.518 10151949 10075063 9989784 9898386 9804804 9713919 9629726 9554695 
3530.376 9489262 9431558 9378940 9329105 9280426 9233040 9187823 9145794 
3534.233 9107185 9071184 9035694 8998719 8958500 8914361 8867352 8818759 
3538.091 8770476 8723719 8678860 8635459 8592875 8550564 8508020 8464941 
3541.948 8420886 8375653 8328601 8279055 8226408 8170560 8111647 8050852 
3545.805 7989221 7928646 7870879 7817708 7770345 7729160 7693477 7661101 
3549.663 7629267 7595041 7555491 7509606 7457558 7401236 7343472 7287434 
3553.520 7235109 7187372 7144120 7104409 7067261 7031867 6997588 6963681 
3557.378 6929137 6893014 6854605 6813742 6770831 6727587 6685928 6647538 
3561.235 6613658 6584188 6558152 6533832 6509110 6481396 6448471 6407546 
3565.093 6356907 6295214 6222875 6142448 6059181 5979288 5908714 5851585 
3568.950 5808566 5777976 5756151 5739229 5723684 5707267 5688198 5666008 
3572.807 5639960 5610086 5576187 5538800 5499504 5459775 5421996 5387709 
3576.665 5357584 5331151 5307236 5284059 5260481 5235798 5210244 5184223 
3580.522 5158639 5133894 5110526 5088768 5069324 5052429 5037780 5024506 
3584.380 5009825 4990485 4962097 4921512 4867964 4803266 4732916 4664152 
3588.237 4604173 4557829 4526456 4508142 4499069 4494315 4489661 4481191 
3592.094 4466629 4444066 4413271 4374712 4330535 4283115 4235300 4190066 
3595.952 4149119 4113327 4082220 4054828 4029310 4003995 3977811 3950091 
3599.809 3920969 3891648 3863699 3838962 3819473 3806304 3799886 3798783 
3603.667 3801022 3802861 3801156 3791897 3772979 3743301 3703465 3655747 
3607.524 3604158 3552910 3505910 3465829 3433165 3405681 3379934 3351818 
3611.382 3318429 3278198 3232362 3184629 3140272 3104163 3079335 3065954 
3615.239 3061415 3060348 3057245 3046433 3024245 2989312 2942640 2889002 
3619.096 2835103 2787880 2753201 2734294 2730694 2739163 2754801 2772374 
3622.954 2788114 2800253 2809057 2816594 2824864 2834203 2841807 2841873 
3626.811 2825832 2785713 2717190 2624475 2521183 2425945 2355913 2318602 
3630.669 2310441 2320934 2338190 2352348 2357645 2353081 2341222 2326398 
3634.526 2312440 2301281 2292520 2284126 2274067 2261477 2246656 2231469 
3638.384 2217281 2205159 2194569 2184678 2173622 2161001 2147216 2133930 
3642.241 2123275 2117049 2115983 2119413 2125439 2130833 2132365 2126538 
3646.098 2110456 2081823 2039742 1984984 1919748 1848500 1776897 1712192 
3649.956 1660668 1628572 1618894 1631765 1663595 1708067 1757435 1803081 
3653.813 1837220 1853957 1850164 1826971 1790305 1749916 1715485 1694396 
3657.671 1688874 1696857 1712824 1731087 1746656 1756304 1758998 1754906 
3661.528 1745525 1732817 1718712 1705506 1695460 1690371 1691868 1700782 
3665.385 1716583 1737142 1759497 1779326 1792168 1795196 1787710 1774435 
3669.243 1765319 1775234 1821514 1915389 2060483 2250353 2472995 2711522 
3673.100 2948612 3166706 3345841 3465962 3511288 3475482 3365709 3199182 
3676.958 2995918 2771807 2537913 2303180 2077561 1872492 1700782 1570739 
3680.815 1484454 1436081 1415205 1409454 1409254 1410185 1412146 1416734 
3684.673 1425809 1437976 1448714 1451540 1440104 1410517 1363782 1305951 
3688.530 1246566 1194433 1155495 1131044 1119284 1117922 1124931 1140312 
3692.387 1163634 1193968 1228989 1264843 1297443 1323532 1341679 1352248 
3696.245 1358065 1362286 1367538 1375050 1383426 1390240 1391770 1384955 
3700.102 1368768 1345368 1319012 1295981 1283054 1284416 1300667 1329016 
3703.960 1364314 1400080 1431327 1454864 1470224 1479034 1483755 1487047 
3707.817 1489906 1491103 1487346 1474413 1447949 1406828 1353046 1292791 
3711.675 1235501 1191409 1167787 1168219 1191011 1230650 1279465 1329681 
3715.532 1375216 1411880 1438408 1456128 1467897 1477272 1486847 1497454 
3719.389 1508193 1516805 1521360 1520961 1516505 1510786 1506564 1505998 
3723.247 1509456 1515042 1519797 1520728 1516472 1507661 1497154 1489374 
3727.104 1488310 1496356 1512781 1534494 1556374 1572934 1578953 1571870 
3730.962 1552117 1523721 1493198 1467032 1449479 1439638 1431959 1418761 
3734.819 1393631 1354376 1305552 1256702 1219785 1202839 1208388 1233441 
3738.677 1272253 1318680 1367771 1416900 1464273 1507495 1541410 1558535 
3742.534 1548792 1504336 1424479 1321671 1220416 1149913 1127755 1153468 
3746.391 1211943 1282555 1346066 1387880 1400512 1383692 1343939 1291727 
3750.249 1237595 1189416 1150777 1123901 1111112 1115331 1138452 1180711 
3754.106 1237528 1302296 1365909 1421088 1461946 1486548 1495558 1492433 
3757.964 1481694 1466700 1451008 1437311 1428502 1427870 1437477 1457125 
3761.821 1484021 1512648 1537021 1551885 1555177 1548526 1537719 1528941 
3765.678 1527844 1535724 1549590 1563257 1570606 1567846 1554878 1535558 
3769.536 1516040 1502807 1499581 1506896 1522091 1541610 1561960 1580815 
3773.393 1597809 1613340 1628539 1644237 1660668 1676899 1691103 1700683 
3777.251 1702678 1694728 1676301 1649426 1618861 1590992 1572036 1565086 
3781.108 1569908 1582378 1596845 1607520 1610513 1604992 1593120 1578687 
3784.966 1565751 1557139 1553680 1554345 1557604 1562060 1567381 1573766 
3788.823 1581547 1590526 1600004 1608684 1616100 1622153 1627408 1632696 
3792.680 1637718 1640978 1639947 1631698 1614271 1588763 1558968 1531801 
3796.538 1514843 1512615 1525716 1549191 1575096 1592920 1593652 1571671 
3800.395 1528043 1471554 1416634 1380501 1375083 1402041 1453834 1516871 
3804.253 1576393 1618827 1635490 1623949 1589861 1545534 1506431 1486182 
3808.110 1490205 1516040 1555476 1600536 1644836 1686213 1725864 1766118 
3811.968 1808072 1849665 1884838 1905005 1901910 1870229 1812032 1737807 
3815.825 1666056 1615734 1599272 1617663 1661765 1716350 1764188 1791203 
3819.682 1789008 1757002 1703277 1644736 1600170 1582378 1594517 1629636 
3823.540 1676201 1721007 1754274 1771474 1773537 1766484 1758533 1758233 
3827.397 1769744 1792168 1819485 1844174 1859215 1860646 1848899 1828568 
3831.255 1806908 1791237 1786579 1794531 1812863 1836754 1859647 1875920 
3835.112 1879980 1868099 1839050 1794697 1740269 1683885 1635457 1602731 
3838.969 1589894 1595947 1615635 1642009 1667786 1688209 1700982 1706803 
3842.827 1708100 1708001 1709764 1714953 1724168 1737308 1753409 1771840 
3846.684 1792335 1814860 1840081 1869164 1902842 1940782 1981356 2019968 
3850.542 2049030 2057786 2035215 1972135 1867035 1731686 1592089 1478735 
3854.399 1413975 1403736 1438907 1503006 1579020 1655313 1724101 1782320 
3858.257 1829966 1868332 1899048 1923043 1940350 1950334 1952498 1945974 
3862.114 1930432 1906303 1874289 1837220 1799987 1769245 1752711 1755705 
3865.971 1779459 1819585 1867201 1909964 1937288 1941182 1920913 1883307 
3869.829 1842777 1814727 1809403 1827570 1861677 1900546 1933227 1953197 
3873.686 1959654 1957757 1955460 1960785 1977727 2005755 2039709 2072168 
3877.544 2096472 2106893 2101533 2081057 2050395 2016739 1988412 1972135 
3881.401 1971403 1985250 2008684 2033484 2051494 2054623 2038710 2004789 
3885.259 1961285 1921179 1897684 1900279 1930032 1980423 2040208 2096938 
3889.116 2139990 2161934 2160435 2138991 2105728 2070736 2043404 2029622 
3892.973 2030754 2045002 2068706 2098004 2129268 2159636 2186909 2209255 
3896.831 2225307 2234300 2236164 2231435 2221577 2208822 2194802 2181581 
3900.688 2169693 2159503 2149813 2139524 2127936 2114385 2100201 2086717 
3904.546 2076496 2071902 2074132 2083221 2097471 2114951 2132865 2149180 
3908.403 2162467 2172423 2180016 2186709 2193869 2203094 2214916 2229637 
3912.260 2246922 2265974 2285592 2303979 2319302 2329695 2333726 2331028 
3916.118 2322333 2310541 2298683 2290222 2287224 2290455 2298883 2310708 
3919.975 2324266 2338123 2351582 2363975 2374603 2382432 2385697 2383598 
3923.833 2375602 2363142 2348684 2335292 2325698 2321234 2321301 2324232 
3927.690 2328030 2331294 2333726 2335825 2338157 2341022 2343020 2342488 
3931.548 2337424 2326597 2311008 2293187 2276665 2264941 2259812 2261644 
3935.405 2268938 2279963 2292720 2306477 2320968 2336525 2352781 2368606 
3939.262 2382099 2391127 2393760 2389462 2379433 2365508 2351149 2339489 
3943.120 2332760 2332294 2338323 2349750 2365141 2382532 2399590 2414050 
3946.977 2423946 2427778 2425279 2417582 2406387 2394426 2383531 2374969 
3950.835 2369172 2365641 2363509 2362043 2361077 2360410 2360210 2360643 
3954.692 2361443 2362443 2363475 2364808 2366474 2369439 2373770 2379600 
3958.550 2386530 2393460 2399590 2404521 2407919 2410418 2412451 2414883 
3962.407 2418115 2422147 2426811 2431810 2437007 2442139 2447170 2452102 
3966.264 2456634 2460199 2462598 2463664 2463698 2463198 2463531 2465231 
3970.122 2469096 2474794 2481959 2488990 2494722 2498088 2498555 2496522 
3973.979 2493189 2490057 2488291 2488424 2490257 2492590 2494256 2494156 
3977.837 2491890 2487991 2483659 2480093 2478227 2478360 2479826 2481726 
3981.694 2483125 2483958 2484925 2486758 2490457 2496688 2504620 2513218 
3985.552 2521116 2527015 2530615 2532348 2532814 2532581 2531948 2530215 
3989.409 2527082 2521650 2514218 2505686 2497755 2492023 2489390 2490690 
3993.266 2494856 2500587 2506853 2512252 2516784 2520650 2524649 2529482 
3997.124 2536047 2544246 2554011 2564910 2576009 2586509 2595575 2602342 
##END=
