
##TITLE=Z197_3_a
##JCAMP-DX=5.01  $$ Nicolet v. 1
##DATATYPE=INFRARED SPECTRUM
##ORIGIN=UniL
##OWNER=Nicolet
##LONGDATE=2011/09/08
##TIME=10:56:18
##SPECTROMETER/DATA SYSTEM=Nicolet iS5
##DATA PROCESSING=
Ratio against background
%Transmittance->Absorbance
Truncated
ElementMultiply or ElementDivide
##COMMENTS=
Number of sample scans: 32
Collection length: 51.15 sec
Sample gain: 2.0
Background collected on: Jeu Sep 08 10:53:33 2011 (GMT+02:00);
Number of background scans: 32
Background gain: 2.0
Sample spacing:  1.000
Number of scan points: 12415
Resolution points: 8192
Number of FFT points: 65536
Apodization: N-B fort;
Phase correction: Mertz;
Laser frequency: 15798.0 cm-1
Number of rejected sample scans: 0
Number of rejected background scans: 0
Bench serial number: ASB1000141;
##RESOLUTION=4.000
##XUNITS=1/CM
##YUNITS=ABSORBANCE
##FIRSTX=649.893372
##LASTX=4000.122314
##FIRSTY=0.102480
##MAXX=4000.122314
##MINX=649.893372
##MAXY=0.224474
##MINY=0.000334
##XFACTOR=1.000000
##YFACTOR=1.000000E-009
##NPOINTS=6950
##DELTAX=0.482117
##ZPD=6100
##XYDATA=(X++(Y..Y))
649.893 102480040 102636720 102866128 103186920 103588992 104044104 
652.786 104524640 105021960 105549928 106135440 106796872 107528680 
655.679 108298592 109062384 109783352 110450608 111081712 111710088 
658.571 112363872 113048784 113744768 114417368 115038888 115602144 
661.464 116125480 116640640 117179296 117754632 118360192 118972488 
664.357 119564256 120110824 120584520 120949224 121150152 121115864 
667.250 120788912 120169288 119342256 118443016 117589584 116826672 
670.142 116122312 115396112 114556712 113539008 112318296 110921488 
673.035 109406536 107844312 106284264 104743968 103215328 101684184 
675.928 100148608 98628552 97158376 95773056 94493904 93322128 92244336 
679.302 91245120 90316688 89464048 88698008 88026232 87445008 86936640 
682.677 86478840 86051328 85646720 85271240 84937984 84657000 84426064 
686.052 84230152 84047008 83859592 83662776 83466096 83287320 83141800 
689.427 83031880 82944912 82857048 82746584 82602016 82427320 82237568 
692.802 82050248 81875976 81714416 81557232 81395944 81230008 81069040 
696.177 80928496 80820800 80747408 80696416 80647376 80579560 80482648 
699.551 80360392 80227808 80101832 79992760 79899704 79812224 79717384 
702.926 79607120 79482728 79353072 79227952 79111696 78999920 78882056 
706.301 78748136 78594720 78427736 78258848 78099856 77956224 77824848 
709.676 77698464 77571448 77446712 77337072 77260464 77232320 77258800 
713.051 77333224 77438832 77553064 77655424 77727504 77750656 77705040 
716.425 77567552 77318696 76955288 76500928 76012472 75564064 75235296 
719.800 75075432 75082720 75193768 75296216 75262488 74973432 74360408 
723.175 73416608 72192936 70777384 69271368 67772296 66350648 65051272 
726.550 63894676 62881940 62002664 61239644 60574028 59986684 59460236 
729.925 58983500 58549108 58153672 57795308 57470332 57172056 56892268 
733.300 56622436 56357824 56098280 55847628 55609772 55386656 55175544 
736.674 54970056 54763880 54552884 54338080 54124472 53918248 53722728 
740.049 53537232 53357212 53177448 52995296 52812656 52634504 52467304 
743.424 52314752 52176332 52048456 51927148 51811108 51703076 51608924 
746.799 51533332 51477780 51437792 51405232 51370844 51329376 51280972 
750.174 51230416 51184076 51145232 51112508 51080344 51041584 50991912 
753.548 50931552 50864528 50796928 50732048 50669940 50607760 50543132 
756.923 50476660 50413316 50360740 50325952 50311704 50315088 50328856 
760.298 50346380 50364312 50385448 50416668 50465644 50537328 50631252 
763.673 50744224 50873692 51021384 51195856 51410228 51676876 52004868 
767.048 52396908 52851120 53366052 53947056 54609988 55386396 56322552 
770.423 57480508 58944488 60810880 63185044 66163964 69798024 74053880 
773.797 78764816 83631168 88197672 91909128 94250592 94807288 93401616 
777.172 90132104 85361248 79628536 73507176 67557168 62197584 57671444 
780.547 54071592 51353576 49393780 48027908 47101940 46488640 46089988 
783.922 45843868 45709080 45658468 45674256 45742804 45853776 46000284 
787.297 46177760 46384068 46618244 46880272 47170560 47489356 47837280 
790.671 48215468 48626004 49072728 49560576 50095344 50683120 51329188 
794.046 52037400 52811720 53656404 54577640 55584956 56690728 57909932 
797.421 59260692 60763124 62443092 64335144 66481456 68937936 71769136 
800.796 75039048 78806608 83107416 87940816 93250784 98915064 104743968 
804.171 110458472 115725000 120183976 123470640 125308496 125548480 
807.063 124208728 121472424 117663432 113202136 108506768 103980024 99957208 
810.438 96656112 94193992 92567464 91670040 91299096 91189080 91063856 
813.813 90645368 89717440 88155328 85925560 83090128 79777456 76165648 
817.188 72437856 68763720 65289384 62114356 59296736 56857064 54783692 
820.563 53044112 51593812 50388832 49387096 48553524 47862364 47292760 
823.938 46827896 46454120 46159116 45932768 45768832 45664284 45619968 
827.312 45638520 45723252 45875976 46097176 46385428 46738484 47152132 
830.687 47619744 48131060 48671184 49221404 49763888 50283168 50769808 
834.062 51219644 51630004 51992280 52288100 52485032 52541792 52419340 
837.437 52088760 51544260 50805268 49916484 48936380 47925664 46942432 
840.812 46029716 45215280 44513472 43927016 43450688 43074428 42785912 
844.186 42572208 42420784 42322408 42270328 42260432 42290232 42356308 
847.561 42453228 42574400 42711692 42859192 43014244 43178060 43354680 
850.936 43548364 43762328 43997300 44252576 44527128 44821140 45136416 
854.311 45475428 45840076 46230500 46645544 47083992 47546728 48037232 
857.686 48561192 49125336 49735836 50396500 51112172 51890296 52744444 
861.060 53697420 54780456 56029440 57485424 59187780 61172312 63468344 
864.435 66090576 69028232 72227400 75583464 78925168 82013072 84586904 
867.810 86379584 87176320 86869648 85471688 83121784 80042992 76522592 
871.185 72851960 69273976 65985808 63108176 60691788 58736456 57203656 
874.560 56036524 55168732 54539660 54097336 53799040 53614224 53520928 
877.935 53502304 53547012 53645944 53791916 53981008 54210992 54481320 
881.309 54791732 55141308 55528172 55949828 56404340 56892532 57417120 
884.684 57982972 58594076 59252264 59955948 60700860 61482360 62298040 
888.059 63149980 64044520 64993432 66011304 67116208 68328976 69669752 
891.434 71154208 72784728 74541720 76371776 78184616 79867688 81287448 
894.809 82322016 82886320 82940424 82499472 81621760 80398152 78928392 
898.183 77307336 75624360 73951376 72348488 70865688 69538248 68388384 
901.558 67423720 66638068 66014848 65532528 65171412 64914896 64751208 
904.933 64672448 64670912 64738556 64868072 65053508 65293432 65590212 
908.308 65949284 66375628 66872528 67441248 68083144 68801992 69607672 
911.683 70514416 71539272 72698664 74004216 75462232 77075240 78843992 
915.058 80768360 82846496 85071488 87426200 89881232 92398144 94927952 
918.432 97416640 99807624 102029752 103994888 105598312 106712432 107217600 
921.807 107027680 106117088 104544200 102452648 100064040 97623728 95381704 
925.182 93560192 92313584 91739248 91873464 92701448 94167568 96180688 
928.557 98627720 101363288 104222744 107042048 109650392 111896104 113656552 
931.932 114829416 115344472 115162920 114280736 112737424 110621736 
934.824 108083168 105312936 102541800 100027992 98009096 96702560 96283072 
938.199 96857872 98471152 101088952 104601408 108799408 113376544 117964480 
941.574 122114584 125376936 127375168 127832608 126652536 123924832 
944.467 119919288 115018240 109645312 104222920 99079200 94442664 90443496 
947.841 87115744 84432176 82325744 80717448 79524904 78672480 78098784 
951.216 77750728 77585544 77571552 77683640 77903208 78217544 78614888 
954.591 79084864 79616992 80200184 80824952 81484120 82172616 82887368 
957.966 83625424 84382240 85152224 85928264 86703712 87474792 88240664 
961.341 89003248 89765560 90529688 91295656 92062200 92827184 93590032 
964.716 94352368 95117104 95887576 96664760 97447608 98233408 99019760 
968.090 99806752 100598872 101403000 102227944 103080544 103965584 104885176 
971.465 105840968 106836144 107876728 108970432 110125176 111346672 
974.358 112636920 113994944 115419024 116908760 118466688 120096800 
977.251 121801960 123580728 125425056 127321360 129250792 131194576 
980.143 133134664 135052400 136928528 138740608 140461696 142066032 
983.036 143531968 144848320 146016432 147049568 147968128 148793408 
985.929 149544608 150238944 150891024 151518032 152138960 152772176 
988.821 153432448 154126752 154852688 155600480 156358512 157118656 
991.714 157877728 158637936 159402368 160171248 160939184 161697584 
994.607 162435968 163148144 163831744 164487472 165114304 165706016 
997.500 166250144 166732208 167140208 167471696 167735136 167949744 
1000.392 168138944 168324384 168524144 168752208 169019856 169341408 
1003.285 169732288 170207440 170776640 171441072 172192672 173018624 
1006.178 173908480 174860192 175883088 176994832 178217568 179570992 
1009.070 181068816 182719328 184526720 186490784 188600384 190822752 
1011.963 193095360 195310224 197324448 198984336 200140448 200695600 
1014.856 200625136 199986704 198905056 197547744 196102224 194730048 
1017.748 193559904 192677984 192121968 191893168 191963776 192290992 
1020.641 192823472 193512304 194320976 195224672 196211888 197279456 
1023.534 198425600 199644784 200925984 202253088 203611392 204991408 
1026.427 206389552 207806224 209241088 210687312 212131088 213554032 
1029.320 214936736 216266464 217535616 218739568 219871600 220917056 
1032.213 221853472 222656944 223307824 223799248 224139312 224348544 
1035.106 224452816 224474432 224431392 224335584 224196896 224025920 
1037.999 223832672 223622144 223387184 223105552 222739472 222239888 
1040.892 221559648 220659104 219510208 218098736 216419408 214474064 
1043.785 212272784 209837824 207209296 204441632 201606512 198780128 
1046.678 196029888 193413856 190972304 188729520 186700160 184891136 
1049.571 183302960 181928704 180751856 179745376 178873040 178097568 
1052.464 177385280 176710544 176058672 175421136 174790112 174154928 
1055.357 173498384 172798320 172033408 171182064 170225488 169146656 
1058.250 167925216 166539424 164969136 163199104 161226880 159065072 
1061.144 156741664 154293104 151758624 149176384 146578032 143991056 
1064.037 141441440 138952224 136545072 134238608 132043928 129966200 
1066.930 128004896 126156864 124420032 122795496 121286120 119895400 
1069.823 118623448 117466200 116414632 115457056 114582592 113781616 
1072.716 113047232 112373232 111751136 111170080 110616944 110078432 
1075.609 109545784 109016552 108495368 107992320 107519768 107090760 
1078.502 106715776 106404224 106164936 106005880 105933392 105949336 
1081.395 106048000 106213384 106419632 106635584 106825128 106956424 
1084.288 107004576 106952864 106795464 106537040 106193752 105791504 
1087.181 105366232 104962512 104624968 104397752 104318872 104415576 
1090.074 104707952 105210256 105934240 106893480 108104504 109583992 
1092.967 111347136 113401064 115739664 118336264 121138328 124067128 
1095.860 127004040 129802648 132295624 134298208 135648944 136228688 
1098.753 135982880 134937424 133193864 130916416 128288792 125502872 
1101.646 122732192 120105760 117718392 115625536 113846984 112379456 
1104.540 111201848 110284600 109593024 109094368 108761440 108570408 
1107.433 108502432 108540680 108665640 108855000 109083120 109320912 
1110.326 109541648 109722520 109846496 109904144 109892160 109810912 
1113.219 109660840 109438088 109128272 108704712 108123416 107327848 
1116.112 106262976 104882272 103169312 101146672 98882144 96477624 94047744 
1119.487 91708592 89548368 87618160 85933592 84479104 83220816 82118696 
1122.862 81140408 80263080 79476200 78779832 78182320 77699648 77351872 
1126.238 77163328 77157240 77347640 77732024 78281064 78937408 79608072 
1129.613 80176512 80519456 80510040 80046496 79064152 77541648 75509224 
1132.988 73043784 70264776 67307520 64312512 61410256 58697536 56241608 
1136.363 54078120 52214556 50641492 49338984 48284932 47456684 46832732 
1139.739 46393908 46119980 45991224 45989748 46098612 46303920 46594488 
1143.114 46959268 47387392 47866468 48382296 48921508 49472604 50026928 
1146.489 50579912 51129316 51674376 52215492 52753316 53290712 53832196 
1149.864 54385016 54956972 55554116 56179536 56831160 57503732 58189660 
1153.240 58881760 59575304 60266764 60953640 61632292 62296360 62937544 
1156.615 63546196 64112224 64626380 65079368 65460480 65757068 65954180 
1159.990 66035220 65985456 65792612 65448844 64950988 64299332 63497408 
1163.365 62550916 61469076 60264708 58953860 57557032 56096168 54592292 
1166.740 53066576 51536800 50018004 48524104 47067080 45657952 44306952 
1170.116 43022072 41809128 40671092 39608328 38619284 37701940 36854548 
1173.491 36076164 35366024 34723156 34144888 33627248 33165012 32752748 
1176.866 32385640 32060504 31774576 31525638 31310956 31127668 30973102 
1180.241 30846800 30751048 30691160 30674626 30709866 30803510 30960436 
1183.617 31183666 31475228 31837392 32273558 32787192 33382080 34061488 
1186.992 34829012 35690732 36657912 37746968 38980684 40382492 41969824 
1190.367 43747380 45699512 47787824 49947892 52101200 54158928 56031664 
1193.742 57648776 58962972 59961232 60666528 61138140 61463808 61740256 
1197.118 62072264 62551796 63243792 64184160 65368956 66755904 68261888 
1200.493 69773824 71162912 72286104 73015328 73249176 72919648 72004784 
1203.868 70524704 68538472 66129932 63403732 60477396 57461860 54464752 
1207.243 51579408 48872636 46391180 44157308 42171732 40420060 38878412 
1210.619 37520956 36321708 35260216 34321852 33496310 32777008 32159508 
1213.994 31640236 31216846 30887320 30650056 30503904 30446256 30472804 
1217.369 30577988 30754676 30996554 31298812 31659480 32077984 32554816 
1220.744 33088986 33677912 34316904 35000116 35721380 36475452 37256248 
1224.120 38057076 38869748 39684564 40492544 41287924 42069656 42842808 
1227.495 43617340 44407284 45226196 46087260 47002168 47980240 49030068 
1230.870 50158824 51371180 52668992 54049788 55508820 57039716 58638144 
1234.245 60303420 62039012 63851224 65746852 67731328 69807752 71976664 
1237.621 74235848 76579256 78993440 81449696 83902880 86284472 88502728 
1240.996 90459168 92051264 93189720 93817752 93915968 93513096 92681352 
1244.371 91539280 90235312 88922728 87759512 86879928 86383096 86339968 
1247.746 86786848 87735944 89184280 91121968 93536560 96409648 99713112 
1251.122 103396528 107371848 111516648 115659136 119580712 123046888 
1254.015 125799656 127589760 128220560 127554592 125550824 122268672 
1256.908 117864936 112566840 106627536 100322024 93901496 87577704 81534960 
1260.283 75906424 70779728 66203824 62186420 58704972 55712828 53152360 
1263.658 50959680 49070764 47432256 45997856 44731732 43610124 42616980 
1267.033 41744412 40991636 40363988 39872372 39531132 39357184 39365532 
1270.409 39565468 39956532 40524624 41240776 42057608 42915260 43743496 
1273.784 44462596 44998944 45288824 45287572 44980640 44384196 43544664 
1277.159 42525064 41399876 40240556 39102304 38025468 37031428 36126716 
1280.534 35308516 34569960 33903584 33302688 32762002 32276914 31843100 
1283.910 31456772 31114784 30815036 30555982 30335740 30151832 30001234 
1287.285 29880644 29787588 29721342 29681888 29669612 29682704 29716728 
1290.660 29763956 29816336 29866128 29909680 29947272 29983696 30025414 
1294.035 30078852 30149346 30240064 30353362 30491608 30657132 30852384 
1297.411 31078798 31335492 31620100 31929106 32259960 32611746 32985840 
1300.786 33384368 33808800 34258712 34731588 35223708 35732316 36256688 
1304.161 36798576 37360560 37944428 38549720 39173228 39810012 40455116 
1307.536 41104712 41756452 42407776 43055148 43692232 44311208 44904428 
1310.912 45466048 45993948 46489484 46956572 47399952 47823368 48230316 
1314.287 48623452 49005624 49377036 49733684 50063216 50341544 50534236 
1317.662 50602772 50508332 50225472 49746832 49086680 48276380 47358344 
1321.037 46379308 45379592 44392600 43444500 42553312 41733728 40997788 
1324.413 40353584 39805656 39354176 38995040 38722404 38529912 38412940 
1327.788 38367804 38391044 38477672 38620296 38809708 39036796 39292580 
1331.163 39569820 39861764 40160048 40454244 40731900 40979036 41184416 
1334.538 41340364 41444200 41497204 41502712 41463704 41381804 41257716 
1337.914 41092912 40891544 40662176 40416568 40166844 39923404 39691968 
1341.289 39473468 39266064 39067608 38877612 38698132 38532776 38385756 
1344.664 38261408 38163212 38095564 38064604 38077660 38143276 38269152 
1348.039 38460508 38719540 39046112 39439140 39897504 40420564 41006056 
1351.415 41647832 42335304 43053684 43785748 44515784 45231128 45921240 
1354.790 46576452 47183784 47725316 48179852 48526140 48747172 48837112 
1358.165 48801924 48660620 48440044 48174000 47898580 47647956 47457608 
1361.540 47362596 47394852 47584476 47953004 48509616 49251280 50162356 
1364.916 51217440 52378852 53598372 54814136 55946212 56912664 57636480 
1368.291 58062500 58174052 57994220 57580408 57003596 56339264 55653164 
1371.666 54991156 54386480 53859124 53419408 53068788 52796564 52578400 
1375.041 52371528 52122980 51779748 51294584 50641416 49818772 48853832 
1378.417 47795700 46707596 45656700 44696948 43868104 43196248 42697104 
1381.792 42382680 42263424 42347356 42642420 43159688 43918660 44953484 
1385.167 46310076 48031532 50134944 52579336 55252224 57963772 60491676 
1388.542 62627992 64204900 65129524 65377356 64983696 64026512 62612684 
1391.917 60867828 58910560 56864692 54857368 53008320 51434660 50226256 
1395.293 49425004 49020200 48956480 49158992 49546428 50050128 50621088 
1398.668 51225720 51846496 52475532 53108212 53737464 54351220 54931328 
1402.043 55458704 55915684 56291172 56585256 56808988 56983232 57130484 
1405.418 57271928 57422980 57592324 57785316 58003800 58245808 58502020 
1408.794 58753676 58973560 59127256 59183184 59121980 58940960 58654792 
1412.169 58289764 57876844 57442308 57004768 56577028 56165204 55772800 
1415.544 55399152 55038992 54680444 54306536 53902000 53463252 53009520 
1418.919 52584460 52246472 52042816 51989628 52068996 52239332 52455040 
1422.295 52675688 52880908 53071256 53266480 53493980 53775864 54118764 
1425.670 54510996 54928132 55341452 55728836 56076036 56378196 56638552 
1429.045 56867036 57080184 57300280 57558956 57893804 58339860 58926576 
1432.420 59667972 60563284 61601436 62771776 64074396 65521008 67131904 
1435.796 68920072 70872440 72937360 75037824 77097248 79060416 80893960 
1439.171 82571680 84064376 85325312 86293880 86913848 87138872 86949224 
1442.546 86353752 85387144 84101608 82554808 80809264 78919288 76923608 
1445.921 74849096 72712016 70532512 68352088 66239676 64284848 62581032 
1449.297 61195776 60161560 59475436 59107136 59007108 59110136 59344140 
1452.672 59623612 59855652 59949292 59804920 59322676 58413352 57025132 
1456.047 55196348 53087620 50974956 49134688 47730976 46784756 46219660 
1459.422 45933908 45839892 45880176 46017928 46224008 46471524 46728888 
1462.798 46961776 47141568 47250500 47290140 47281236 47259916 47264720 
1466.173 47324352 47457056 47669920 47962480 48328892 48758812 49236772 
1469.548 49738032 50229268 50667664 50997352 51161712 51114444 50838120 
1472.923 50351548 49701544 48943352 48120660 47265016 46402500 45560940 
1476.299 44777868 44095432 43547852 43157164 42926560 42845148 42895324 
1479.674 43062024 43338640 43728652 44243476 44896860 45699216 46652628 
1483.049 47750840 48982628 50339272 51819956 53435784 55209740 57171188 
1486.424 59347216 61753740 64392360 67252856 70322904 73596704 77076712 
1489.800 80760736 84634008 88652080 92742968 96820352 100801256 104617424 
1493.175 108199072 111478568 114376016 116785688 118604032 119753368 
1496.068 120224912 120092656 119508232 118657896 117700968 116759032 
1498.961 115911800 115208928 114692216 114398952 114355488 114572024 
1501.854 115030720 115684088 116444040 117183248 117731600 117841336 
1504.747 117196392 115436832 112246808 107546384 101625224 95075000 88499640 
1508.122 82264832 76446872 70949056 65630868 60397540 55228892 50194008 
1511.498 45422448 41045056 37174088 33859520 31086450 28796698 26909302 
1514.873 25344256 24027898 22904582 21938802 21111570 20419526 19864148 
1518.248 19441198 19134058 18911260 18728840 18544250 18329738 18090182 
1521.623 17863188 17701882 17643248 17690284 17816408 17981348 18150532 
1524.999 18303608 18443082 18588652 18767518 18999106 19285542 19614974 
1528.374 19969948 20337992 20715868 21109032 21526052 21970798 22439828 
1531.749 22921942 23403890 23878078 24349422 24835030 25352054 25908698 
1535.124 26495850 27092544 27669046 28195434 28647666 29004968 29254202 
1538.500 29388622 29410072 29324916 29145866 28893472 28594756 28277432 
1541.875 27962178 27654320 27341704 26999626 26604020 26142154 25623872 
1545.250 25078968 24545858 24053220 23606128 23186510 22762412 22303880 
1548.625 21796706 21251914 20701586 20187356 19737634 19356694 19026106 
1552.000 18717528 18408130 18090458 17776642 17491200 17258380 17087304 
1555.376 16967868 16872028 16764155 16602945 16346656 15962625 15442850 
1558.751 14827550 14202508 13662505 13262085 13003013 12854900 12776648 
1562.126 12730140 12683229 12614831 12517388 12399135 12280778 12187602 
1565.501 12138806 12138125 12174074 12224849 12269838 12295810 12302559 
1568.877 12303036 12318511 12369577 12466578 12609885 12793437 13010148 
1572.252 13254022 13520353 13803745 14095193 14384474 14664043 14934635 
1575.627 15210098 15514853 15875701 16305406 16800970 17348962 17934764 
1579.002 18549610 19191540 19863802 20569026 21303310 22054558 22800228 
1582.378 23511574 24159906 24717196 25160204 25471744 25639514 25658248 
1585.753 25530284 25266600 24887202 24419026 23896388 23352386 22814894 
1589.128 22301682 21816946 21354504 20902600 20451168 19994686 19533242 
1592.503 19070072 18608608 18150948 17699292 17259380 16843300 16467709 
1595.879 16151452 15908455 15742065 15645636 15605621 15609502 15649689 
1599.254 15726708 15846489 16015634 16236300 16505567 16817986 17170954 
1602.629 17569064 18025694 18557736 19181914 19908790 20741516 21678092 
1606.004 22715136 23850320 25080932 26399010 27786762 29212700 30634446 
1609.380 32007284 33289916 34455376 35494944 36417148 37242532 37993752 
1612.755 38687628 39327876 39902592 40385548 40742852 40937928 40941860 
1616.130 40743944 40356460 39807328 39126200 38331252 37425600 36403708 
1619.505 35256120 33975380 32556850 31005236 29335692 27579640 25795322 
1622.881 24058926 22452458 21043850 19866402 18917212 18164492 17564198 
1626.256 17071762 16651280 16282083 15956610 15678579 15455073 15292221 
1629.631 15190230 15143428 15141816 15173828 15227358 15289647 15346761 
1633.006 15382874 15379166 15317963 15187861 14993246 14759432 14527421 
1636.382 14339471 14218427 14163926 14157628 14175395 14193607 14195318 
1639.757 14173203 14128634 14070516 14010113 13957108 13915503 13882421 
1643.132 13848931 13802274 13729118 13616928 13457839 13251290 13008578 
1646.507 12752489 12513774 12323420 12200926 12151277 12165077 12224032 
1649.883 12302524 12368691 12387305 12316705 12120680 11789628 11369093 
1653.258 10956509 10646105 10477341 10428228 10451104 10500593 10547032 
1656.633 10575244 10580778 10566145 10536949 10499099 10455890 10407458 
1660.008 10350616 10280753 10192787 10083677 9954898 9813277 9671567 9543755 
1663.866 9442563 9374065 9337298 9324467 9323520 9321352 9304359 9262453 
1667.723 9190159 9088744 8965976 8834888 8711413 8608488 8534716 8492140 
1671.581 8476394 8478523 8484740 8479604 8447575 8377544 8268823 8135718 
1675.438 8004476 7901313 7842606 7827391 7841965 7867134 7887108 7894261 
1679.295 7890854 7886737 7892946 7915553 7949939 7980852 7984159 7935766 
1683.153 7821554 7651186 7460592 7299665 7204957 7182184 7213885 7273552 
1687.010 7339192 7395237 7434401 7454895 7459210 7452435 7441851 7436020 
1690.868 7443738 7471244 7520563 7587050 7659954 7722077 7755301 7745148 
1694.725 7688957 7602324 7517900 7471311 7481053 7541667 7627243 7704202 
1698.583 7737660 7702279 7593726 7439019 7290298 7196030 7178647 7227057 
1702.440 7313380 7406291 7481154 7521507 7520799 7483143 7422166 7356514 
1706.297 7302664 7269138 7256099 7258020 7266813 7275776 7281739 7284536 
1710.155 7286659 7290466 7297846 7307853 7318805 7328105 7334205 7336901 
1714.012 7337103 7335452 7329992 7315402 7284671 7232111 7158436 7074064 
1717.870 6997958 6950685 6944490 6980146 7047863 7133476 7221936 7301889 
1721.727 7367635 7418627 7458502 7493391 7529834 7572754 7624680 7686023 
1725.584 7755874 7831776 7910357 7986961 8056422 8114415 8159215 8192911 
1729.442 8221241 8250721 8285032 8321846 8350725 8353663 8308809 8199597 
1733.299 8024660 7808296 7594974 7432716 7347448 7336159 7375117 7434233 
1737.157 7487728 7515439 7506842 7462143 7391024 7309538 7234132 7175919 
1741.014 7137316 7114615 7100199 7087603 7072313 7053420 7031834 7010451 
1744.872 6991965 6977486 6967419 6960449 6955297 6949843 6942099 6929878 
1748.729 6910823 6882444 6842992 6792774 6735798 6679737 6634685 6609419 
1752.586 6608006 6628528 6663183 6699859 6725298 6729135 6706084 6658977 
1756.444 6598317 6539281 6495085 6471744 6466699 6470331 6471172 6458325 
1760.301 6426075 6375198 6313066 6250606 6199313 6167620 6158445 6170275 
1764.159 6197633 6233194 6268758 6295752 6307216 6299450 6274170 6237900 
1768.016 6201095 6173400 6158411 6152295 6144565 6121646 6072419 5994002 
1771.874 5894910 5793926 5711463 5660570 5642477 5648955 5667385 5686990 
1775.731 5702399 5713209 5722073 5731742 5742217 5750376 5751753 5742755 
1779.588 5723617 5698706 5675475 5660805 5657549 5663558 5672588 5677959 
1783.446 5674199 5659932 5637811 5613241 5591793 5577731 5572898 5577261 
1787.303 5590417 5611194 5637811 5667116 5693267 5709046 5706663 5680846 
1791.161 5631467 5565581 5496081 5436725 5398344 5384119 5390728 5410421 
1795.018 5435349 5459339 5478532 5491014 5495880 5492793 5481048 5460245 
1798.875 5430652 5393915 5352820 5310992 5272186 5238816 5212793 5195054 
1802.733 5185832 5184826 5191633 5204242 5220338 5237005 5251627 5262762 
1806.590 5270174 5274768 5277518 5278692 5277351 5271482 5259508 5241063 
1810.448 5217622 5192740 5170643 5154280 5145059 5142008 5142746 5145059 
1814.305 5147641 5150927 5156627 5166652 5182043 5202867 5227414 5253639 
1818.163 5279028 5302405 5322933 5341449 5359160 5377376 5397270 5418943 
1822.020 5441053 5460647 5473901 5477055 5468465 5450112 5427833 5410555 
1825.877 5405758 5417265 5442495 5474002 5500041 5509437 5495578 5458836 
1829.735 5407435 5354129 5311595 5286708 5279330 5283086 5289995 5293417 
1833.592 5289962 5279632 5265378 5250252 5235731 5222618 5209842 5197233 
1837.450 5185765 5178757 5179428 5191466 5215878 5251325 5293886 5338027 
1841.307 5377175 5404718 5414548 5403342 5371673 5326052 5278055 5241767 
1845.165 5228554 5243109 5282851 5340443 5405389 5468667 5525813 5576422 
1849.022 5624217 5673663 5727847 5786068 5844532 5898067 5942908 5978751 
1852.879 6008717 6038282 6072318 6113413 6160797 6211817 6263077 6312763 
1856.737 6361581 6411480 6463975 6520041 6578537 6637680 6696797 6756797 
1860.594 6820104 6889850 6967789 7052679 7141055 7227798 7308460 7379835 
1864.452 7440233 7488469 7521878 7535363 7522586 7476873 7395843 7282683 
1868.309 7148904 7010922 6885473 6785471 6714598 6669205 6640808 6620319 
1872.167 6599966 6574534 6541232 6498448 6445176 6381553 6308695 6229328 
1876.024 6147489 6067110 5990273 5917111 5844566 5768910 5687762 5601426 
1879.881 5513162 5428571 5353122 5289325 5236938 5192438 5152168 5114080 
1883.739 5078543 5048238 5026517 5015221 5013545 5018238 5025311 5030942 
1887.596 5033355 5032350 5029232 5025645 5023065 5022763 5025947 5034730 
1891.454 5050551 5073783 5103351 5134900 5162729 5181574 5187911 5182010 
1895.311 5167625 5150525 5136376 5128597 5127758 5132955 5142545 5156023 
1899.168 5173560 5196462 5224228 5255316 5286541 5314715 5337893 5356779 
1903.026 5374693 5395156 5421962 5455849 5495712 5539236 5583369 5626399 
1906.883 5667821 5707166 5743056 5773544 5796075 5808835 5812261 5809373 
1910.741 5804537 5802119 5805444 5814309 5827640 5843995 5861660 5881072 
1914.598 5902299 5924064 5942908 5953523 5949895 5929640 5894842 5853432 
1918.456 5816827 5794262 5789829 5800843 5819715 5837648 5847790 5849032 
1922.313 5844566 5840167 5841275 5849771 5863910 5880333 5896220 5911200 
1926.170 5928028 5949895 5978650 6012950 6048193 6079341 6103265 6120336 
1930.028 6134752 6152732 6179416 6216320 6261261 6309637 6356067 6397391 
1933.885 6432363 6460747 6482405 6496396 6500970 6496228 6485163 6473257 
1937.743 6468885 6478369 6504199 6542578 6585904 6624458 6651138 6664730 
1941.600 6669340 6672873 6682664 6702282 6730111 6761710 6791529 6817243 
1945.458 6840232 6864266 6892880 6928733 6970886 7016950 7064769 7113739 
1949.315 7164904 7220960 7283660 7351998 7423413 7493627 7558997 7617734 
1953.172 7670476 7717524 7759787 7796421 7825636 7846115 7858294 7865413 
1957.030 7872498 7885388 7906814 7937453 7974642 8014231 8053620 8092033 
1960.887 8131262 8172856 8218101 8264466 8308741 8347279 8377106 8397644 
1964.745 8409839 8414670 8413285 8405955 8393860 8379943 8370620 8373390 
1968.602 8395415 8440684 8506872 8586926 8671559 8751813 8822107 8881927 
1972.459 8933674 8980114 9023448 9065364 9107015 9153441 9213105 9295185 
1976.317 9408465 9554695 9725880 9906250 10075708 10216770 10318957 10380614 
1980.174 10405931 10403623 10381429 10345832 10302094 10256055 10213242 
1983.550 10180780 10164939 10168806 10191294 10228542 10275189 10327270 
1986.925 10384957 10449916 10525543 10612795 10707944 10803963 10893547 
1990.300 10971121 11037220 11097245 11160508 11234695 11324062 11426851 
1993.675 11537251 11649381 11758885 11864569 11969189 12075469 12183478 
1997.051 12291447 12394635 12488129 12569399 12638948 12699877 12756482 
2000.426 12811660 12866095 12917396 12962284 12997925 13024147 13044666 
2003.801 13064608 13091447 13132153 13190556 13268848 13365571 13475954 
2007.176 13592791 13708257 13814485 13907224 13985680 14054499 14121206 
2010.552 14195079 14283585 14391324 14518205 14661403 14815173 14974760 
2013.927 15135777 15294624 15449373 15597000 15735503 15864290 15984831 
2017.302 16100215 16214836 16331794 16451087 16570346 16684024 16785128 
2020.677 16869684 16934932 16980616 17007906 17016866 17006666 16976310 
2024.052 16925492 16855010 16769079 16672835 16571207 16467469 16362516 
2027.428 16255010 16142821 16025329 15902750 15778245 15655940 15538788 
2030.803 15428705 15327265 15235216 15154853 15090355 15046719 15027888 
2034.178 15035915 15067061 15114300 15168646 15220564 15264009 15296237 
2037.553 15317722 15330628 15338660 15344496 15350915 15360080 15373433 
2040.929 15389705 15407076 15420808 15424070 15412191 15382153 15334473 
2044.304 15273825 15206906 15139860 15077868 15023258 14976989 14939127 
2047.679 14909808 14888478 14872603 14856316 14829710 14780926 14700132 
2051.054 14581249 14427185 14247359 14055765 13867950 13695331 13542162 
2054.430 13406201 13279917 13153772 13020698 12877597 12725091 12566056 
2057.805 12403158 12238414 12073527 11911087 11756094 11615689 11497885 
2061.180 11408414 11348345 11313962 11295835 11283729 11269549 11248568 
2064.555 11220618 11188420 11154729 11120394 11083988 11042114 10991646 
2067.931 10931126 10861441 10784397 10703156 10620096 10535795 10450730 
2071.306 10364733 10278412 10192482 10107485 10022911 9937506 9849711 
2074.681 9758241 9663808 9568685 9476156 9388962 9308929 9234563 9163559 
2078.539 9093346 9022805 8952750 8885715 8824372 8770070 8722232 8678320 
2082.396 8634918 8590306 8544109 8498120 8454602 8415548 8381092 8349914 
2086.253 8319110 8286080 8249033 8206824 8158270 8102870 8039240 7966610 
2090.111 7885084 7797197 7706765 7619622 7541263 7475525 7424425 7387452 
2093.968 7362984 7349100 7343809 7344685 7348999 7352908 7351762 7341787 
2097.826 7321433 7291545 7256065 7220387 7188484 7162242 7140718 7120879 
2101.683 7099694 7076051 7050995 7027995 7010518 7001056 6999507 7004322 
2105.541 7012875 7022741 7033315 7044698 7056956 7069484 7080362 7086963 
2109.398 7087872 7083157 7075175 7066992 7061974 7061031 7063422 7066352 
2113.255 7067126 7064836 7060357 7056181 7054969 7058572 7065712 7073828 
2117.113 7079217 7078408 7070056 7054397 7032709 7006915 6979136 6950415 
2120.970 6922101 6896448 6874466 6857298 6844776 6834274 6822191 6804991 
2124.828 6780220 6748821 6713992 6680511 6652551 6632297 6618469 6607636 
2128.685 6595626 6579142 6556470 6528719 6497944 6467002 6438248 6414809 
2132.542 6400249 6399005 6415684 6452709 6509480 6580151 6654536 6722169 
2136.400 6774028 6805900 6820441 6824210 6824480 6827341 6834241 6843093 
2140.257 6849926 6851138 6845012 6832827 6817108 6799068 6779716 6758143 
2144.115 6733341 6704334 6672335 6638689 6604776 6571506 6536994 6500398 
2147.972 6461049 6420257 6381822 6349712 6326749 6311956 6302476 6292256 
2151.830 6275212 6247245 6204725 6144599 6064657 5961618 5834525 5688265 
2155.687 5536283 5402470 5316023 5308544 5400591 5595116 5872743 6195583 
2159.544 6520916 6809367 7036111 7193975 7289321 7335216 7349066 7347111 
2163.402 7341113 7340169 7348662 7366253 7389103 7409460 7419099 7411718 
2167.259 7385092 7341686 7287636 7231201 7177064 7127683 7082551 7037895 
2171.117 6991965 6945668 6902036 6866925 6845416 6840333 6852485 6880727 
2174.974 6922741 6975634 7037087 7101748 7161535 7208427 7234099 7234435 
2178.832 7213379 7182050 7156146 7151800 7179995 7242319 7330936 7431334 
2182.689 7528047 7609338 7669700 7709564 7733444 7746767 7753243 7755335 
2186.546 7754323 7751422 7747442 7744541 7742113 7739380 7734388 7724877 
2190.404 7710104 7692330 7674017 7659347 7648657 7640833 7630818 7613789 
2194.261 7585667 7546185 7498245 7447648 7400259 7361131 7332048 7312908 
2198.119 7303069 7300676 7304282 7312638 7323186 7332891 7339259 7340371 
2201.976 7336665 7330565 7325645 7324096 7326488 7330970 7333598 7331913 
2205.833 7325780 7318131 7314323 7320422 7338282 7367736 7404000 7441547 
2209.691 7475997 7505493 7531149 7555794 7581891 7609270 7635876 7658639 
2213.548 7674691 7683022 7685652 7684371 7681740 7678536 7673410 7664136 
2217.406 7649500 7628659 7603673 7576901 7550265 7524642 7500133 7474986 
2221.263 7448558 7421627 7395709 7372656 7354188 7340237 7329622 7321197 
2225.121 7314020 7308291 7305528 7307112 7313245 7323085 7334744 7345561 
2228.978 7354559 7361906 7369152 7377678 7387957 7398944 7408954 7416234 
2232.835 7420279 7422807 7427660 7437401 7455064 7480446 7511899 7546354 
2236.693 7580845 7613249 7643497 7671690 7698131 7723123 7746531 7767681 
2240.550 7786942 7804484 7821217 7836837 7850636 7860959 7866223 7866122 
2244.408 7862377 7857957 7857214 7862680 7875535 7894126 7914710 7932830 
2248.265 7945484 7950951 7949770 7944068 7936171 7927701 7920379 7915047 
2252.123 7912753 7914575 7921728 7933573 7948859 7964720 7977949 7986117 
2255.980 7988074 7984800 7977848 7969816 7961683 7953617 7945046 7934922 
2259.837 7922639 7909209 7894802 7880495 7866190 7851006 7834273 7815684 
2263.695 7795949 7777497 7762857 7753885 7751152 7753952 7759855 7766803 
2267.552 7773617 7779858 7785930 7792474 7799019 7804450 7807621 7807959 
2271.410 7805597 7802865 7802088 7805294 7813424 7825399 7839164 7852896 
2275.267 7865413 7876818 7888053 7900470 7914608 7930299 7946497 7962391 
2279.125 7977848 7993440 8010281 8029587 8051358 8074514 8097030 8116677 
2282.982 8131767 8141660 8146218 8146015 8141052 8131194 8115630 8094127 
2286.839 8067155 8036067 8002620 7969782 7939377 7913090 7892035 7876210 
2290.697 7865312 7859273 7856675 7856169 7856135 7854684 7850467 7843585 
2294.554 7835014 7826682 7820710 7818518 7820103 7824489 7829685 7833699 
2298.412 7835521 7834914 7832316 7828740 7824827 7820610 7816190 7811771 
2302.269 7807689 7805563 7807014 7813154 7824557 7840953 7860521 7881203 
2306.126 7901178 7918556 7932897 7943966 7952166 7958241 7963033 7967251 
2309.984 7971706 7977038 7983079 7989728 7996410 8002215 8006737 8010012 
2313.841 8012543 8015040 8018280 8022330 8026887 8031410 8035325 8038127 
2317.699 8040321 8042785 8046532 8052708 8062463 8076573 8095612 8119547 
2321.556 8147197 8176029 8201523 8217865 8219857 8203548 8168264 8117251 
2325.414 8057400 7996781 7944203 7906409 7886906 7885827 7900673 7927600 
2329.271 7962932 8003802 8048286 8095139 8142942 8190009 8234478 8274462 
2333.128 8308640 8336201 8356670 8369539 8374066 8370045 8357446 8337416 
2336.986 8312829 8286722 8262339 8242110 8226205 8213408 8201151 8186902 
2340.843 8168703 8146353 8120390 8091730 8061384 8029284 7995634 7960907 
2344.701 7926958 7897062 7875737 7867943 7877222 7905160 7951256 8012037 
2348.558 8083156 8158304 8231507 8296921 8349576 8386766 8408116 8416393 
2352.416 8415853 8412069 8410076 8412237 8418994 8428318 8437271 8443115 
2356.273 8444197 8440007 8431831 8420683 8408116 8395685 8384773 8376734 
2360.130 8372883 8374099 8379943 8388422 8397036 8402947 8403691 8399502 
2363.988 8392002 8384402 8379875 8381092 8388794 8402509 8420177 8439872 
2367.845 8460009 8479368 8497107 8512886 8526301 8537453 8546677 8555633 
2371.703 8565703 8579086 8597133 8620149 8647492 8678082 8710501 8744105 
2375.560 8778421 8813687 8849497 8885411 8920178 8952715 8982043 9008225 
2379.417 9031804 9053828 9075075 9095545 9114730 9131582 9145218 9155573 
2383.275 9163119 9169380 9176013 9184135 9194457 9207182 9222073 9238895 
2387.132 9257578 9278024 9299823 9322334 9344745 9366143 9386761 9407450 
2390.990 9429492 9454652 9483775 9516356 9551241 9586535 9620342 9652188 
2394.847 9682510 9712360 9743297 9775998 9810023 9844424 9877912 9909268 
2398.705 9938083 9964492 9988191 10008805 10025149 10035864 10039933 
2402.080 10037254 10028777 10016435 10002804 9989547 9977985 9968560 9960898 
2405.937 9954694 9949914 9946659 9944659 9943914 9943507 9943439 9943744 
2409.795 9945609 9951033 9961882 9979512 10003923 10034067 10067569 10102499 
2413.652 10137432 10172232 10207781 10245266 10285774 10329442 10375897 
2417.027 10424732 10475406 10528055 10583291 10641079 10701050 10761335 
2420.403 10819758 10874046 10922598 10964732 11001128 11032870 11060808 
2423.778 11085756 11107307 11125289 11139363 11149595 11156497 11160814 
2427.153 11163364 11164792 11165641 11166730 11168667 11172407 11178561 
2430.528 11187094 11197328 11208310 11218884 11228982 11239286 11251799 
2433.904 11268188 11289816 11316172 11345522 11375488 11403889 11429504 
2437.279 11453011 11476281 11501423 11530208 11562602 11597584 11633045 
2440.654 11667216 11698803 11727907 11755379 11782411 11809818 11838384 
2444.029 11867804 11898180 11929613 11961968 11995586 12030058 12064533 
2447.405 12097852 12128619 12155775 12179049 12198984 12216295 12232210 
2450.780 12247513 12262782 12277983 12292844 12307093 12319875 12330476 
2454.155 12337942 12341521 12340941 12336885 12330715 12324443 12320830 
2457.530 12321614 12328363 12341317 12359827 12383112 12410318 12441038 
2460.906 12475648 12514626 12558212 12606406 12658768 12713729 12770165 
2464.281 12826608 12882033 12936204 12989766 13043949 13100804 13162481 
2467.656 13230623 13306360 13389320 13477833 13569919 13663530 13757435 
2471.031 13851873 13948554 14049639 14157387 14273826 14399270 14533760 
2474.406 14677546 14830499 14993589 15168441 15356304 15558157 15774122 
2477.782 16003499 16245689 16500404 16768597 17051360 17350756 17668198 
2481.157 18003832 18356868 18724896 19103658 19488536 19873200 20250290 
2484.532 20612142 20950096 21255740 21521978 21742708 21913954 22033328 
2487.907 22100158 22115496 22081506 22002236 21883044 21731316 21555230 
2491.283 21362648 21161314 20957224 20754480 20555894 20363236 20177880 
2494.658 20001694 19837268 19687050 19553934 19440714 19349142 19281488 
2498.033 19239474 19224858 19239854 19286372 19366186 19480184 19629846 
2501.408 19815798 20039306 20301776 20604882 20949644 21337136 21766534 
2504.784 22236078 22742754 23282008 23847274 24430558 25020592 25603346 
2508.159 26162706 26679130 27132468 27503210 27772456 27925286 27951506 
2511.534 27846886 27613890 27262070 26807786 26270194 25672028 25036668 
2514.909 24383978 23731986 23094844 22481666 21898342 21347544 20828968 
2518.285 20340422 19878888 19440750 19022712 18622994 18240922 17877516 
2521.660 17535080 17215630 16921116 16652314 16408727 16188422 15989404 
2525.035 15809720 15647285 15501186 15370550 15254126 15151491 15061435 
2528.410 14983437 14917282 14862933 14821105 14791518 14773247 14764333 
2531.786 14762620 14765156 14769613 14775132 14781131 14788090 14796558 
2535.161 14806671 14818260 14830842 14843664 14856041 14867802 14878809 
2538.536 14889439 14900275 14911899 14925135 14940877 14959533 14981207 
2541.911 15005491 15031456 15057799 15083321 15107610 15130700 15153619 
2545.287 15177636 15204126 15233707 15267029 15304234 15345491 15391250 
2548.662 15441580 15496242 15554826 15615753 15677204 15737943 15796868 
2552.037 15854463 15912373 15972422 16036915 16106816 16182644 16263232 
2555.412 16347894 16435327 16524911 16616646 16710881 16808100 16908646 
2558.788 17012936 17121216 17234006 17352100 17475712 17605568 17741746 
2562.163 17884112 18032394 18186776 18347052 18513648 18686706 18865924 
2565.538 19050304 19238676 19429070 19619480 19808584 19994582 20175762 
2568.913 20350352 20515842 20669684 20809468 20933266 21039572 21128756 
2572.289 21200872 21257236 21299134 21328054 21345280 21352346 21350536 
2575.664 21341104 21325374 21304666 21280238 21253652 21226514 21201010 
2579.039 21179198 21162984 21153870 21152966 21161072 21178710 21206784 
2582.414 21246520 21299204 21366268 21448798 21547012 21660818 21789632 
2585.790 21932704 22090292 22262514 22449668 22652192 22869760 23101378 
2589.165 23345462 23600248 23864042 24135106 24412158 24693172 24975704 
2592.540 25257050 25533448 25800878 26055562 26292898 26508070 26696854 
2595.915 26854346 26976496 27060770 27105876 27112224 27081858 27017396 
2599.291 26921568 26796754 26645414 26469544 26272024 26056476 25827146 
2602.666 25588268 25344360 25098554 24853554 24611566 24374584 24145090 
2606.041 23926742 23722642 23536724 23371756 23229642 23111198 23016646 
2609.416 22945798 22898992 22876466 22878980 22906468 22958690 23033976 
2612.792 23129858 23243660 23371860 23510908 23657662 23808632 23960738 
2616.167 24111006 24257158 24397190 24530046 24655224 24772760 24883482 
2619.542 24988478 25089146 25187556 25285392 25384548 25486044 25590590 
2622.917 25697584 25806222 25914748 26021154 26123012 26217468 26300714 
2626.292 26368836 26416368 26437638 26427920 26382568 26298848 26175726 
2629.668 26013556 25814310 25581486 25319634 25033966 24730456 24415382 
2633.043 24094054 23771706 23451942 23137128 22828584 22527798 22235800 
2636.418 21954242 21685338 21430906 21192660 20971236 20766054 20576044 
2639.793 20399316 20234392 20079314 19933384 19795478 19664340 19539238 
2643.169 19418816 19302272 19189464 19080494 18976156 18877274 18784506 
2646.544 18698156 18618324 18544906 18477862 18417396 18363610 18316258 
2649.919 18274890 18238502 18206262 18176860 18150152 18126074 18105382 
2653.294 18089146 18077782 18071770 18071010 18075052 18083514 18096366 
2656.670 18113706 18135610 18162244 18192996 18226960 18263002 18300256 
2660.045 18337996 18375914 18414286 18453524 18494390 18537230 18582600 
2663.420 18631124 18683038 18738526 18797620 18859938 18924860 18991940 
2666.795 19060448 19130458 19202554 19276846 19354164 19434790 19518442 
2670.171 19604712 19693116 19783096 19874448 19967486 20062138 20158722 
2673.546 20257130 20357194 20458668 20561488 20665862 20772136 20881010 
2676.921 20992728 21107500 21225504 21346602 21471042 21599244 21731490 
2680.296 21868340 22010322 22157198 22309146 22465754 22626640 22791918 
2683.672 22961764 23136570 23316794 23502932 23695662 23895760 24103932 
2687.047 24321036 24548242 24786544 25037018 25300492 25578078 25870750 
2690.422 26179422 26504654 26846592 27204602 27577628 27963662 28360898 
2693.797 28766888 29179708 29596608 30014654 30429658 30836092 31226638 
2697.173 31593588 31927786 32219992 32462042 32646324 32767434 32821890 
2700.548 32809130 32731206 32592640 32401312 32165750 31896300 31603422 
2703.923 31296712 30985274 30677078 30378164 30093554 29826804 29579760 
2707.298 29353170 29146680 28959026 28788414 28633120 28491434 28361924 
2710.674 28243876 28136178 28038126 27948998 27867836 27793792 27726046 
2714.049 27664174 27607816 27557080 27511822 27471862 27437838 27409814 
2717.424 27387898 27372724 27364290 27362596 27367500 27378510 27394850 
2720.799 27415744 27440590 27468404 27498726 27530848 27563930 27597540 
2724.175 27631050 27664138 27696874 27729366 27762250 27796406 27833110 
2727.550 27873808 27920270 27974758 28039080 28114580 28202220 28301586 
2730.925 28411692 28530814 28656762 28787670 28921874 29058708 29197746 
2734.300 29339202 29483506 29631618 29784006 29941308 30103746 30270792 
2737.676 30441814 30615034 30789106 30962286 31133116 31300702 31464360 
2741.051 31623308 31776748 31923256 32060504 32186270 32298044 32393814 
2744.426 32472468 32533210 32576386 32602604 32613032 32608782 32591496 
2747.801 32562994 32525390 32481286 32433588 32385390 32339626 32299470 
2751.177 32267314 32245044 32234266 32235444 32248362 32272310 32306038 
2754.552 32347906 32396064 32449010 32504678 32561566 32617640 32671080 
2757.927 32720592 32765038 32803952 32837578 32866098 32890044 32909878 
2761.302 32925714 32937832 32946732 32953452 32959492 32967072 32978150 
2764.677 32994490 33017014 33046224 33081834 33123850 33172558 33228960 
2768.053 33294354 33370520 33458978 33560988 33677340 33808372 33954240 
2771.428 34114888 34290048 34479232 34681344 34894900 35117860 35348380 
2774.803 35585096 35827124 36074652 36328124 36588264 36855808 37130668 
2778.178 37412276 37699264 37989956 38281924 38573076 38861308 39144180 
2781.554 39419840 39686488 39942364 40186032 40416204 40632088 40833588 
2784.929 41021164 41196076 41360080 41515908 41665992 41813176 41959756 
2788.304 42107840 42259520 42416508 42580360 42752784 42934752 43127120 
2791.679 43329524 43540676 43757860 43977832 44196004 44407684 44608084 
2795.055 44793332 44960612 45109320 45241128 45359404 45470128 45580076 
2798.430 45696196 45825272 45973396 46145036 46343768 46572064 46831328 
2801.805 47122176 47444264 47796624 48177076 48583276 49012596 49462056 
2805.180 49929344 50411756 50906364 51410192 51919492 52429768 52936752 
2808.556 53435708 53922444 54392904 54843236 55269232 55667360 56033548 
2811.931 56363596 56654372 56902616 57105392 57260584 57366372 57421280 
2815.306 57425440 57379948 57287084 57150820 56976052 56767756 56531204 
2818.681 56271784 55994416 55704428 55407624 55109328 54815268 54530792 
2822.057 54260020 54006524 53772788 53560732 53371152 53204604 53061260 
2825.432 52940496 52841504 52763300 52704864 52665924 52646920 52648492 
2828.807 52671384 52716312 52782908 52870280 52977252 53101772 53242844 
2832.182 53399140 53569768 53754076 53951180 54160428 54381300 54613896 
2835.558 54858684 55116856 55389928 55679340 55986276 56311952 56657392 
2838.933 57024756 57416932 57837816 58292188 58785048 59321156 59904904 
2842.308 60540772 61233352 61988484 62813088 63714260 64698564 65770632 
2845.683 66930352 68171752 69480824 70835624 72203736 73545712 74817136 
2849.059 75968776 76956520 77743320 78303608 78628432 78724576 78614136 
2852.434 78329120 77909320 77398840 76838016 76266584 75719056 75222336 
2855.809 74797568 74458528 74211288 74055808 73987320 73998240 74078680 
2859.184 74219024 74410584 74644640 74913192 75208704 75522384 75846208 
2862.560 76171208 76488608 76789928 77067488 77314424 77526240 77701432 
2865.935 77841136 77950160 78035800 78106912 78172008 78239368 78315632 
2869.310 78405872 78514040 78643128 78794688 78969000 79164808 79379328 
2872.685 79608512 79848656 80096216 80349264 80606488 80867464 81130744 
2876.061 81394464 81655544 81910472 82156848 82393912 82623416 82849392 
2879.436 83077768 83314856 83567256 83841264 84142192 84475200 84844480 
2882.811 85252968 85701816 86190152 86714512 87269936 87850152 88448656 
2886.186 89059264 89675968 90293448 90906400 91510480 92101568 92677088 
2889.562 93235952 93778032 94304440 94816848 95316920 95806064 96286920 
2892.937 96762008 97235304 97711192 98194152 98688304 99196888 99722320 
2896.312 100267344 100834736 101428104 102051416 102708152 103399976 
2899.205 104126424 104884840 105670192 106476104 107296416 108123792 
2902.098 108950720 109769488 110570608 111344528 112083152 112779216 
2904.991 113428648 114030824 114587168 115100896 115576112 116016872 
2907.884 116427760 116813048 117178816 117530952 117875712 118218880 
2910.777 118564320 118914144 119267728 119622376 119972176 120308176 
2913.670 120618544 120887856 121099000 121235688 121283880 121235080 
2916.563 121088232 120849344 120530104 120145040 119710024 119238112 
2919.457 118738504 118216448 117672736 117105176 116509680 115882592 
2922.350 115222192 114530056 113812584 113080976 112350488 111637584 
2925.243 110959128 110329704 109759296 109254048 108815408 108441608 
2928.136 108128000 107867760 107653440 107476104 107327128 107198856 
2931.029 107084960 106981264 106885768 106797928 106717344 106643552 
2933.922 106574936 106508792 106441936 106371248 106293528 106206312 
2936.815 106106976 105993152 105861896 105711400 105540552 105349720 
2939.708 105141320 104918464 104684720 104442880 104193896 103937296 
2942.601 103671016 103392120 103097176 102783296 102447200 102086288 
2945.494 101698504 101283040 100840376 100373824 99888184 99390792 98889888 
2948.869 98395216 97916880 97465568 97052552 96689848 96388792 96161048 
2952.245 96015816 95959936 95997304 96127968 96348512 96651232 97024256 
2955.620 97451392 97910280 98376056 98820448 99215288 99537520 99770936 
2958.995 99908864 99955496 99924088 99835176 99710984 99575024 99447816 
2962.370 99343808 99272504 99236024 99230576 99246312 99269840 99285960 
2965.746 99279128 99236696 99150176 99015016 98831520 98603728 98338032 
2969.121 98042808 97727280 97401384 97074264 96754848 96449944 96164520 
2972.496 95900848 95658688 95436064 95229392 95034208 94846320 94661488 
2975.871 94475784 94286120 94089920 93885408 93671872 93449528 93219200 
2979.247 92982600 92742136 92500296 92260808 92028160 91806704 91601712 
2982.622 91417920 91258776 91126584 91021848 90943448 90888912 90854976 
2985.997 90837616 90832136 90833728 90836344 90833320 90817768 90782072 
2989.372 90718120 90618672 90476144 90284512 90039672 89740616 89390440 
2992.748 88996416 88569280 88122744 87669328 87220432 86783336 86361032 
2996.123 85952088 85553264 85160248 84769640 84379824 83991640 83607584 
2999.498 83230856 82865032 82513136 82176784 81856736 81552192 81262160 
3002.873 80985224 80720392 80467376 80226808 79999528 79786616 79588256 
3006.249 79403432 79229624 79063560 78900888 78738288 78572240 78400872 
3009.624 78222384 78035248 77838160 77629680 77408416 77174256 76928232 
3012.999 76672544 76410848 76147208 75885464 75629248 75380944 75142592 
3016.374 74915512 74700592 74497936 74307320 74127288 73955464 73789280 
3019.750 73625120 73459608 73290320 73114552 72929992 72735096 72527752 
3023.125 72305904 72067824 71811784 71536768 71242312 70928728 70596904 
3026.500 70248104 69884336 69506760 69116960 68716096 68304816 67883704 
3029.875 67453288 67013972 66566572 66112108 65651484 65185464 64714596 
3033.250 64238592 63757696 63272388 62783720 62293760 61804964 61320152 
3036.626 60841676 60371228 59909732 59457884 59016372 58586116 58168256 
3040.001 57764312 57374956 57000192 56639460 56290640 55951560 55619908 
3043.376 55293844 54971864 54653164 54336992 54022508 53709344 53397116 
3046.751 53085336 52774528 52464728 52156004 51848548 51541872 51235188 
3050.127 50927976 50619636 50309768 49998264 49684976 49369020 49049804 
3053.502 48726672 48399332 48068060 47734192 47399252 47065160 46733168 
3056.877 46404124 46078088 45755284 45435988 45121048 44812140 44511084 
3060.252 44219448 43938016 43666728 43404696 43151164 42905496 42667788 
3063.628 42438904 42220080 42011944 41815000 41628904 41452696 41285372 
3067.003 41126316 40975212 40832100 40697328 40571256 40453844 40345152 
3070.378 40245100 40153616 40071192 39998056 39934660 39881380 39838304 
3073.753 39805292 39782304 39768832 39763932 39766908 39775948 39789568 
3077.129 39805944 39823376 39840736 39857516 39873276 39888096 39901828 
3080.504 39914212 39925000 39934444 39942400 39949376 39956060 39962200 
3083.879 39967212 39970156 39969172 39963108 39951304 39934372 39913556 
3087.254 39891364 39869284 39849056 39831328 39816004 39802676 39791020 
3090.630 39780636 39771376 39763096 39755036 39746468 39736408 39723956 
3094.005 39708596 39690732 39671060 39650840 39631236 39613012 39596644 
3097.380 39581944 39568368 39555556 39542744 39529716 39516360 39503008 
3100.755 39490596 39480000 39472816 39470384 39474012 39484212 39501372 
3104.131 39525436 39556064 39593340 39637552 39689028 39748388 39815932 
3107.506 39891404 39974296 40063784 40159064 40259608 40365368 40476320 
3110.881 40592724 40714724 40842360 40975212 41112836 41254292 41398604 
3114.256 41544164 41689152 41831128 41967892 42097436 42218180 42329204 
3117.632 42429916 42520168 42599984 42669284 42728032 42776840 42816444 
3121.007 42848296 42874296 42895840 42914272 42930144 42943388 42953736 
3124.382 42960980 42965040 42966648 42966904 42966980 42968076 42971224 
3127.757 42976712 42984648 42994488 43005316 43015560 43023608 43027852 
3131.133 43026976 43020464 43008832 42993172 42975392 42956520 42937500 
3134.508 42917928 42896716 42872212 42843320 42809204 42769860 42725732 
3137.883 42677364 42625020 42568660 42507928 42442448 42372452 42298520 
3141.258 42221428 42142632 42063120 41983512 41904432 41826204 41749228 
3144.634 41674016 41601192 41531476 41464836 41401592 41341092 41283040 
3148.009 41226748 41172248 41119280 41068112 41018652 40970988 40924856 
3151.384 40880076 40836392 40793916 40752680 40712648 40673784 40635800 
3154.759 40597924 40559908 40521276 40482028 40442496 40403260 40364820 
3158.135 40327880 40292544 40258516 40225688 40193664 40161792 40129880 
3161.510 40097720 40065420 40032860 40000744 39968704 39937204 39905896 
3164.885 39874260 39841568 39807288 39770760 39731944 39691316 39649492 
3168.260 39607280 39565644 39524892 39485152 39446472 39408412 39370936 
3171.635 39334224 39298708 39264652 39232520 39201944 39172684 39143636 
3175.011 39113688 39081928 39047776 39011096 38972456 38932772 38893124 
3178.386 38854280 38817100 38781380 38746672 38712620 38678716 38644816 
3181.761 38611604 38579740 38550008 38523324 38499644 38478792 38460364 
3185.136 38443856 38429192 38416524 38406536 38399656 38396364 38396292 
3188.512 38398824 38402808 38407476 38412148 38416852 38421808 38427748 
3191.887 38435132 38444432 38455696 38468980 38484004 38500728 38518944 
3195.262 38538928 38560692 38584444 38610484 38639204 38670748 38705448 
3198.637 38743088 38783408 38826016 38870440 38916460 38964300 39014360 
3202.013 39067028 39122608 39180624 39240244 39300016 39358672 39414904 
3205.388 39467992 39517956 39564376 39607532 39647604 39684420 39718400 
3208.763 39750388 39781216 39812408 39845204 39880072 39916644 39953660 
3212.138 39989484 40022472 40051608 40076716 40098628 40118760 40138132 
3215.514 40158012 40179016 40200680 40222524 40243756 40263352 40280396 
3218.889 40294576 40306064 40315848 40325480 40336824 40352056 40372716 
3222.264 40398532 40429004 40462060 40495744 40527716 40557432 40584756 
3225.639 40610840 40637036 40664980 40695400 40729024 40765600 40804616 
3229.015 40846184 40890088 40936544 40986280 41039556 41096956 41158220 
3232.390 41223396 41291644 41361792 41432500 41501948 41569064 41633244 
3235.765 41694476 41753864 41812776 41872320 41933660 41996908 42062096 
3239.140 42128612 42196052 42264156 42332820 42401420 42469048 42534052 
3242.516 42594392 42648708 42695936 42736880 42773112 42807448 42842260 
3245.891 42879124 42918408 42959004 42999352 43037732 43073040 43105640 
3249.266 43136120 43166460 43198444 43233328 43271832 43313748 43358668 
3252.641 43405356 43453144 43501668 43551220 43602872 43657900 43717844 
3256.017 43783732 43855496 43932332 44012592 44094112 44175244 44254996 
3259.392 44333076 44410256 44487372 44564500 44641832 44718256 44792412 
3262.767 44863464 44931032 44995412 45057640 45119208 45180860 45243152 
3266.142 45305704 45367752 45428116 45485800 45539888 45589864 45635536 
3269.518 45676836 45713976 45747516 45777668 45804652 45828440 45848620 
3272.893 45864380 45875316 45881576 45883748 45883492 45882864 45883712 
3276.268 45887320 45893764 45902384 45911404 45918700 45922748 45922860 
3279.643 45919104 45912400 45904448 45896748 45890564 45886952 45885956 
3283.019 45887248 45889752 45892332 45893620 45892440 45888060 45880032 
3286.394 45868544 45854328 45838272 45821516 45805572 45791656 45780940 
3289.769 45774168 45771408 45771996 45774428 45776892 45777776 45775936 
3293.144 45771336 45764560 45756904 45749244 45742100 45734704 45725904 
3296.520 45714600 45699988 45682468 45663328 45644112 45626408 45610696 
3299.895 45596600 45582908 45567748 45549972 45529296 45505892 45481312 
3303.270 45457216 45435216 45416788 45402988 45393940 45389564 45388792 
3306.645 45389856 45390996 45390668 45387948 45383312 45378492 45376100 
3310.021 45378676 45387908 45403908 45425540 45450704 45477304 45504052 
3313.396 45531096 45558876 45589092 45622396 45659096 45698660 45740372 
3316.771 45783556 45828552 45875720 45926360 45980872 46039408 46101484 
3320.146 46165968 46232524 46301008 46372232 46447520 46527728 46613520 
3323.521 46704128 46797820 46891896 46983892 47071176 47151872 47224968 
3326.897 47290692 47349920 47404796 47457756 47511168 47566320 47623552 
3330.272 47681384 47736968 47787268 47829064 47860916 47882192 47893548 
3333.647 47896472 47891848 47880564 47862580 47838280 47808016 47773212 
3337.022 47735488 47696396 47656612 47615716 47572012 47523072 47466772 
3340.398 47401876 47327972 47246172 47157672 47064052 46966168 46864288 
3343.773 46758704 46649196 46536324 46420456 46302664 46183696 46063608 
3347.148 45942788 45821004 45697852 45573156 45446656 45318172 45187592 
3350.523 45055104 44920744 44785288 44649688 44514900 44381776 44251036 
3353.899 44122392 43994988 43867560 43738880 43608040 43475112 43340840 
3357.274 43206424 43073624 42943572 42817616 42696340 42579444 42466456 
3360.649 42356416 42247904 42139784 42031144 41921216 41809712 41696920 
3364.024 41583252 41468920 41354976 41241796 41129808 41020072 40913204 
3367.400 40809896 40710792 40615608 40523496 40433256 40343264 40251824 
3370.775 40158560 40063164 39966196 39868372 39770616 39672980 39575884 
3374.150 39478840 39381924 39285216 39188892 39093604 38999568 38906528 
3377.525 38814348 38722112 38629100 38534908 38439152 38341784 38242844 
3380.901 38142372 38040368 37937124 37833104 37729080 37626380 37526304 
3384.276 37430076 37338748 37252492 37171020 37093748 37019808 36948408 
3387.651 36878788 36810580 36743360 36676980 36610828 36544684 36478408 
3391.026 36411600 36344152 36276284 36207996 36139680 36071844 36004560 
3394.402 35938148 35872252 35806328 35739908 35672280 35602828 35531620 
3397.777 35458812 35384648 35309740 35234848 35160504 35087292 35015812 
3401.152 34946568 34879960 34815980 34753844 34692324 34629488 34563288 
3404.527 34492216 34415600 34333400 34246416 34155964 34063176 33968716 
3407.903 33873600 33777784 33682068 33587044 33493802 33402976 33314996 
3411.278 33229354 33144664 33059486 32971896 32880642 32785762 32687724 
3414.653 32588352 32489430 32392602 32299220 32209322 32122220 32036356 
3418.028 31949934 31860854 31767658 31670134 31568750 31465430 31362348 
3421.404 31262066 31166222 31075774 30990326 30908772 30829476 30750870 
3424.779 30672136 30592528 30512330 30431968 30351976 30272924 30195342 
3428.154 30120046 30047464 29978122 29912058 29849448 29789612 29731808 
3431.529 29675112 29619240 29563834 29509004 29455068 29402412 29350972 
3434.905 29300776 29251118 29201750 29152316 29102744 29052684 29002134 
3438.280 28950244 28896554 28839612 28777578 28709432 28633616 28549000 
3441.655 28455488 28353118 28242742 28125504 28002358 27874302 27741092 
3445.030 27602732 27458980 27310124 27157828 27004598 26853642 26708060 
3448.406 26569286 26437110 26309338 26182942 26054330 25921534 25784000 
3451.781 25643028 25501576 25362066 25226566 25096166 24970264 24847590 
3455.156 24726458 24605464 24483488 24360462 24236066 24110762 23985004 
3458.531 23859842 23735940 23614348 23495660 23379414 23265332 23151946 
3461.906 23038170 22923794 22808644 22693594 22580252 22469348 22361818 
3465.282 22257666 22156536 22057870 21961178 21866320 21772840 21680530 
3468.657 21588692 21496318 21403232 21309260 21215310 21122424 21031678 
3472.032 20943594 20857510 20772136 20685600 20596648 20505284 20412826 
3475.407 20321810 20235398 20156048 20084868 20021888 19965196 19912222 
3478.783 19860262 19806990 19750708 19691002 19628114 19563500 19499140 
3482.158 19437110 19379144 19325584 19275530 19226278 19174538 19116744 
3485.533 19050614 18975254 18891464 18801840 18708568 18614244 18519422 
3488.908 18424414 18328114 18229518 18128008 18024070 17918258 17811370 
3492.284 17703744 17595112 17484368 17370308 17252140 17129212 17001704 
3495.659 16870548 16736949 16602945 16470015 16339809 16213702 16091997 
3499.034 15974520 15860340 15747562 15634473 15519248 15401068 15280072 
3502.409 15157701 15036223 14918415 14807117 14704588 14611918 14528895 
3505.785 14453596 14382487 14311767 14236608 14153485 14060625 13958101 
3509.160 13848452 13735821 13624347 13517892 13418504 13326415 13240665 
3512.535 13159715 13081920 13006051 12931186 12856709 12781596 12704995 
3515.910 12625849 12544297 12460815 12377316 12296014 12219396 12148960 
3519.286 12085348 12027571 11973582 11920759 11866715 11809375 11748162 
3522.661 11682975 11614735 11545247 11475328 11406305 11337598 11268699 
3526.036 11198110 11124304 11046499 10964834 10880909 10796660 10714430 
3529.411 10635952 10561596 10491292 10424121 10359269 10297175 10238311 
3532.787 10183595 10133600 10087781 10044307 10001075 9955474 9906013 
3536.162 9852389 9795857 9738078 9680850 9625357 9571665 9519607 9468469 
3540.019 9417946 9368377 9319830 9272404 9225356 9177908 9128130 9074872 
3543.877 9017223 8954813 8888590 8819841 8750055 8681328 8615687 8554652 
3547.734 8499776 8451663 8409299 8370586 8332181 8290537 8242347 8186835 
3551.592 8124712 8059088 7994115 7933336 7878606 7830090 7785761 7742956 
3555.449 7699413 7653816 7606303 7557648 7509100 7461772 7416302 7372589 
3559.306 7330228 7288681 7247811 7207113 7167059 7127548 7089051 7051467 
3563.164 7014188 6975970 6934457 6885979 6827240 6755821 6671056 6576115 
3567.021 6477192 6382495 6299551 6233194 6184289 6150346 6126889 6108944 
3570.879 6092748 6075510 6055753 6032873 6006130 5975223 5939851 5900183 
3574.736 5857596 5813704 5770656 5729996 5692462 5657415 5623915 5590552 
3578.594 5556855 5522927 5489672 5458332 5429914 5404449 5381804 5361643 
3582.451 5344066 5328602 5315151 5302238 5286843 5264975 5231237 5181607 
3586.308 5114616 5032618 4942123 4852819 4774421 4713957 4673530 4651090 
3590.166 4641412 4637628 4633575 4624098 4606215 4578187 4540485 4494650 
3594.023 4443731 4390443 4337630 4287700 4242059 4201107 4164909 4132360 
3597.881 4102122 4072588 4042119 4009212 3973330 3934510 3894623 3855877 
3601.738 3821446 3793836 3774684 3763955 3759911 3759443 3758842 3753895 
3605.595 3741329 3718470 3684050 3638505 3584180 3524883 3465361 3410256 
3609.453 3362937 3323370 3289549 3257132 3221914 3180323 3131795 3079135 
3613.310 3027681 2983841 2952415 2935101 2929864 2931398 2932132 2925060 
3617.168 2903611 2864520 2807423 2736395 2658679 2583342 2519284 2472395 
3621.025 2445238 2435941 2440439 2452735 2467863 2482026 2494222 2504987 
3624.883 2515584 2526182 2533981 2532381 2511952 2462898 2379967 2267439 
3628.740 2141022 2023697 1937221 1891993 1884306 1901611 1928102 1950201 
3632.597 1959321 1952831 1933860 1908732 1883873 1863707 1849132 1838151 
3636.455 1827304 1814128 1797492 1778660 1759165 1740967 1724334 1709165 
3640.312 1693963 1678030 1661666 1646432 1634692 1628905 1630235 1638483 
3644.170 1651455 1665557 1676334 1679261 1670014 1645268 1603263 1544137 
3648.027 1470257 1386119 1297975 1213937 1141708 1089155 1061286 1059792 
3651.885 1082711 1124101 1176026 1228689 1272386 1298607 1301398 1279465 
3655.742 1237362 1184964 1133801 1094137 1071085 1063944 1067697 1075635 
3659.599 1082046 1082877 1076864 1064940 1049794 1034283 1021131 1012297 
3663.457 1008743 1010736 1018341 1031327 1049163 1070686 1094038 1116261 
3667.314 1133402 1141708 1138086 1123602 1104269 1091779 1102508 1150046 
3671.172 1242014 1376512 1544403 1730388 1916387 2084353 2214350 2288790 
3675.029 2297350 2240794 2132132 1990076 1831863 1667054 1499382 1330977 
3678.886 1165328 1009474 873363 764544 687246 639327 614408 604089 602164 
3683.226 605349 614308 630501 655023 685454 716186 739252 746687 732714 
3687.566 696638 643608 583252 525094 476762 440475 414538 396663 384027 
3691.905 376731 375239 380213 391190 406148 422366 436594 447075 453444 
3696.245 457291 461039 466877 476098 487476 498754 506019 505953 496300 
3700.584 477491 452482 426213 404589 392617 392517 404191 425218 451520 
3704.924 479681 506848 531463 553525 573697 592675 610393 625457 635047 
3709.264 635909 623898 596888 554819 501906 445516 395236 360018 345858 
3713.603 354048 381275 420906 465119 506583 539392 560857 571440 573730 
3717.943 572038 569947 569815 571673 574261 575322 573862 570147 565634 
3722.282 562151 561222 562582 564407 564108 558966 548648 534548 520317 
3726.622 511194 511824 524696 549345 582422 618323 651074 674602 685056 
3730.962 681936 667766 647656 627348 610691 597154 582456 560260 525890 
3735.301 479216 426511 377859 344598 334252 346952 378655 423062 473909 
3739.641 527748 582920 639095 694282 743335 777158 783564 752130 679680 
3743.980 577811 472317 395369 368673 394076 457092 536705 612218 667135 
3748.320 692456 686582 654625 606378 552032 499252 452614 414439 388007 
3752.660 377162 384922 411852 454107 505190 556610 601567 634914 655421 
3756.999 664215 664215 658740 649017 636341 621608 607672 598879 599676 
3761.339 612284 635544 664647 692622 712070 719073 713365 699957 685852 
3765.678 678651 682301 695476 712966 727968 734672 730457 716252 696505 
3770.018 677124 662888 656649 658574 666870 679414 693883 709083 723985 
3774.358 738622 753159 767830 782435 795945 806568 811713 808692 795813 
3778.697 774170 747616 722292 705433 700985 709946 728963 751799 771747 
3783.037 783630 785091 777290 763947 749907 739319 734075 734108 738024 
3787.376 743965 750537 756877 762520 767332 771116 773838 776195 779514 
3791.716 785290 794252 806070 818518 827780 830204 822934 806435 784195 
3796.056 762918 750404 752097 769191 798037 831465 859286 871703 861577 
3800.395 827183 774071 714825 666804 644238 653132 690034 743899 800725 
3804.735 846039 868681 862971 831432 784161 736498 703640 693220 705267 
3809.074 732813 767664 803016 836080 867719 901053 938541 979552 1019238 
3813.414 1049595 1061419 1047934 1008477 950794 891391 848762 836545 858522 
3817.754 907561 970087 1028305 1066866 1074141 1046107 988286 916858 853044 
3822.093 813838 806999 828909 868549 911811 946344 964874 965803 953948 
3826.433 937544 926852 928446 943654 968228 995027 1016382 1026844 1025083 
3830.772 1013459 998149 985728 981444 988452 1006319 1032224 1061320 1088656 
3835.112 1108720 1116460 1109085 1085600 1049196 1006020 965040 934025 
3838.969 918186 917787 928579 944883 959926 969257 971083 965770 956007 
3843.309 944883 935751 930937 931667 938507 951159 969157 991806 1018341 
3847.649 1048764 1083309 1122871 1167721 1216927 1266671 1309474 1333237 
3851.506 1324961 1271888 1169249 1026644 870640 734904 646329 614474 632060 
3855.846 682699 748944 818518 883290 939935 987887 1027475 1059061 1082212 
3860.185 1096463 1101711 1098921 1089786 1076200 1059194 1039166 1016448 
3864.043 992835 972611 962084 967165 991042 1031327 1080286 1125596 1155495 
3868.382 1160146 1137289 1093373 1043683 1006252 993433 1007647 1041490 
3872.240 1082511 1118221 1140279 1146790 1142173 1135163 1134465 1145960 
3876.097 1170312 1203371 1238359 1268399 1286709 1289833 1276839 1250687 
3879.955 1217791 1186990 1166558 1162372 1175528 1201842 1233142 1259925 
3883.812 1272021 1263181 1233441 1190180 1147123 1118885 1116493 1142339 
3887.669 1190346 1249059 1305386 1347795 1368003 1363250 1336827 1297277 
3891.527 1255638 1222210 1204002 1203005 1217758 1244108 1277969 1315091 
3895.384 1352248 1386484 1415603 1437411 1450243 1453169 1446387 1431427 
3899.242 1411481 1389808 1370230 1354509 1342809 1333071 1322236 1307912 
3903.099 1289069 1267368 1245902 1229288 1221246 1223008 1233773 1250388 
3906.957 1269761 1288869 1306051 1321139 1335264 1349490 1364879 1381399 
3910.814 1398684 1416235 1433920 1451640 1469991 1488909 1507395 1523455 
3914.671 1534760 1538717 1534361 1522324 1505300 1486947 1471288 1460416 
3918.529 1455330 1455696 1460184 1468030 1479068 1492898 1508525 1524286 
3922.386 1537620 1545201 1545134 1536988 1522923 1507295 1494494 1488776 
3926.244 1491668 1502275 1517403 1533496 1547096 1556108 1559932 1558369 
3930.101 1552184 1541942 1527844 1510753 1492101 1474213 1459818 1451407 
3933.958 1450509 1456859 1468728 1483323 1498285 1511751 1523189 1533330 
3937.816 1543306 1553913 1565020 1575462 1583343 1586768 1584573 1577058 
3941.673 1565618 1553747 1544636 1541477 1545999 1558136 1575960 1596712 
3945.531 1616699 1632995 1643306 1646865 1644104 1636488 1626011 1614670 
3949.388 1603995 1594517 1586136 1578953 1572336 1566682 1561960 1558868 
3953.246 1557438 1557904 1559998 1563490 1567913 1573400 1579884 1587200 
3957.103 1595647 1604926 1614670 1624781 1634592 1643738 1651953 1658971 
3960.960 1664460 1668185 1670380 1671311 1671478 1672010 1673008 1675203 
3964.818 1678097 1681090 1683219 1683984 1682421 1678928 1674139 1668717 
3968.675 1663728 1660269 1658739 1659703 1663262 1669216 1676833 1685448 
3972.533 1693897 1701215 1706504 1709664 1711028 1711394 1711427 1711693 
3976.390 1712159 1712458 1712126 1711028 1709098 1707169 1705905 1705473 
3980.248 1706138 1707136 1707535 1706737 1704841 1702446 1700882 1701448 
3984.105 1704907 1710895 1718612 1726696 1733782 1739204 1742631 1744227 
3987.962 1744261 1742631 1739204 1734114 1727528 1720009 1712691 1707136 
3991.820 1704475 1704841 1708633 1714820 1722338 1730255 1738006 1745159 
3995.677 1752045 1758599 1765186 1771740 1778760 1786113 1794131 1802649 
3999.535 1811200 1818952 1824942 
##END=
