
##TITLE=Z197_3_b
##JCAMP-DX=5.01  $$ Nicolet v. 1
##DATATYPE=INFRARED SPECTRUM
##ORIGIN=UniL
##OWNER=Nicolet
##LONGDATE=2011/09/08
##TIME=10:58:37
##SPECTROMETER/DATA SYSTEM=Nicolet iS5
##DATA PROCESSING=
Ratio against background
%Transmittance->Absorbance
Truncated
ElementMultiply or ElementDivide
##COMMENTS=
Number of sample scans: 32
Collection length: 51.14 sec
Sample gain: 2.0
Background collected on: Jeu Sep 08 10:53:33 2011 (GMT+02:00);
Number of background scans: 32
Background gain: 2.0
Sample spacing:  1.000
Number of scan points: 12415
Resolution points: 8192
Number of FFT points: 65536
Apodization: N-B fort;
Phase correction: Mertz;
Laser frequency: 15798.0 cm-1
Number of rejected sample scans: 0
Number of rejected background scans: 0
Bench serial number: ASB1000141;
##RESOLUTION=4.000
##XUNITS=1/CM
##YUNITS=ABSORBANCE
##FIRSTX=649.893372
##LASTX=4000.122314
##FIRSTY=0.106496
##MAXX=4000.122314
##MINX=649.893372
##MAXY=0.237433
##MINY=0.000809
##XFACTOR=1.000000
##YFACTOR=1.000000E-009
##NPOINTS=6950
##DELTAX=0.482117
##ZPD=6100
##XYDATA=(X++(Y..Y))
649.893 106496008 106628720 106831400 107120272 107485648 107904672 
652.786 108358640 108849040 109396432 110028184 110754608 111557040 
655.679 112386840 113188296 113920376 114576768 115183104 115783088 
658.571 116411384 117074672 117751416 118406328 119012616 119570456 
661.464 120106288 120658432 121258688 121914568 122607552 123302480 
664.357 123965640 124573136 125104624 125534536 125814752 125870544 
667.250 125629144 125064136 124237568 123278408 122315832 121416160 
670.142 120566496 119698504 118725264 117580200 116234544 114710736 
673.035 113064816 111366664 109667280 107985944 106317272 104649640 
675.928 102985352 101349392 99781184 98320248 96990000 95789912 94702072 
679.302 93702096 92772784 91909456 91115880 90395880 89745920 89152904 
682.677 88601208 88080448 87593512 87153936 86780504 86482752 86254072 
686.052 86070280 85900072 85717712 85512840 85295032 85085192 84904984 
689.427 84762672 84649832 84544840 84426384 84282616 84117016 83944400 
692.802 83781584 83637192 83507376 83378640 83236592 83076928 82907936 
696.177 82747432 82612800 82512536 82440704 82381336 82314848 82229320 
699.551 82124016 82008024 81892424 81782048 81672784 81553872 81415048 
702.926 81254776 81081536 80912248 80762368 80638088 80533136 80432120 
706.301 80318448 80182848 80027288 79861712 79698152 79543168 79395000 
709.676 79247672 79097784 78951432 78826632 78747856 78736336 78802880 
713.051 78941504 79132408 79345752 79552720 79725344 79837384 79864464 
716.425 79781960 79572096 79236144 78804384 78341376 77928744 77650792 
719.800 77557536 77642552 77832256 78000192 78005184 77716016 77057840 
723.175 76024984 74675096 73106792 71433688 69765496 68181752 66735072 
726.550 65450272 64330304 63364432 62532848 61812604 61179908 60613304 
729.925 60099036 59630036 59205288 58826248 58493260 58201592 57942384 
733.300 57703756 57475552 57251284 57028724 56807176 56585632 56360428 
736.674 56126440 55880488 55623332 55362000 55107372 54870716 54658424 
740.049 54469824 54297412 54131788 53964616 53793416 53620560 53451708 
743.424 53292024 53143336 53004916 52874812 52753272 52643444 52550468 
746.799 52478224 52426516 52389284 52356836 52319496 52271508 52213924 
750.174 52152792 52095560 52046808 52006248 51969200 51929840 51885104 
753.548 51836564 51789080 51747980 51714536 51685428 51653700 51613252 
756.923 51561796 51503556 51446708 51400196 51369200 51353616 51348988 
760.298 51351860 51361708 51384084 51427460 51499192 51601608 51730664 
763.673 51878796 52039936 52215380 52415492 52656872 52956328 53326380 
767.048 53771292 54289304 54878500 55544176 56304108 57194736 58269376 
770.423 59600012 61283828 63431300 66163504 69591496 73773688 78673344 
773.797 84101408 89715360 94992600 99293072 102020656 102695856 101114464 
777.172 97394160 91957408 85428888 78466528 71707568 65624928 60489012 
780.547 56401096 53308548 51070912 49503348 48433116 47717736 47247096 
783.922 46951736 46785752 46718852 46730992 46806568 46932648 47100020 
787.297 47302184 47535896 47800512 48097564 48429152 48797292 49203036 
790.671 49646640 50128256 50649344 51213188 51825068 52491760 53220108 
794.046 54016356 54886768 55837416 56876708 58016488 59271176 60657804 
797.421 62196552 63908452 65821068 67971656 70406944 73190504 76397616 
800.796 80103304 84378008 89265328 94767144 100821904 107292936 113966680 
804.171 120527176 126594840 131757064 135591472 137773568 138123232 
807.063 136652864 133568424 129240632 124154520 118793688 113624360 
809.956 109034312 105275560 102483528 100654936 99667888 99289704 99214536 
813.331 99123696 98695664 97680072 95932544 93415048 90200328 86437840 
816.706 82333112 78095488 73917360 69963040 66343160 63123040 60326760 
820.081 57943668 55940256 54269292 52882256 51730812 50772828 49975736 
823.455 49313300 48765148 48316408 47955044 47672696 47464332 47328416 
826.830 47266196 47280348 47373828 47547912 47802176 48134244 48540516 
830.205 49015084 49549140 50130780 50743516 51367188 51983240 52575600 
833.580 53134160 53653740 54129236 54548408 54887972 55109216 55164744 
836.955 55010860 54616568 53977484 53117648 52089168 50958972 49795992 
840.329 48665884 47616936 46681256 45876164 45205792 44665916 44245936 
843.704 43931564 43706520 43553532 43458380 43409640 43400152 43426076 
847.079 43484928 43573420 43687540 43821888 43972588 44137756 44318472 
850.454 44517508 44737536 44979168 45241424 45521532 45818132 46132028 
853.829 46466696 46826860 47216324 47636276 48085384 48561344 49063680 
857.204 49595116 50162280 50774204 51440404 52168708 52966960 53844424 
860.578 54815304 55902572 57137856 58558852 60209932 62135112 64374760 
863.953 66962092 69912440 73211528 76795984 80546256 84269656 87699416 
867.328 90546992 92518512 93377952 93008824 91426224 88785928 85335360 
870.703 81392432 77279904 73266240 69570296 66326172 63590572 61364076 
874.078 59604836 58250848 57230268 56477960 55938636 55566504 55328656 
877.452 55199848 55159328 55191568 55283684 55425804 55613200 55844648 
880.827 56121656 56446072 56818428 57236164 57694372 58187996 58713580 
884.202 59271404 59864780 60498304 61175596 61898304 62665388 63475548 
887.577 64329184 65230168 66186228 67209920 68316064 69523360 70853680 
890.952 72328528 73964888 75765448 77708088 79733224 81739528 83600360 
894.327 85165648 86298376 86903928 86938736 86422152 85421504 84040328 
897.701 82391152 80579408 78703088 76840584 75056408 73405112 71925512 
901.076 70642864 69566800 68691600 67999584 67466680 67070424 66791564 
904.451 66616124 66535092 66540004 66622652 66775724 66993520 67274552 
907.826 67621128 68038296 68530440 69100208 69748144 70475720 71288184 
911.201 72197944 73222864 74383296 75698704 77181936 78839264 80671880 
914.575 82678608 84857408 87205120 89713080 92362240 95120240 97945112 
917.950 100783456 103576664 106263192 108764336 110981464 112795112 
920.843 114058616 114632208 114414136 113371040 111567488 109166016 
923.736 106419760 103609976 101023312 98914520 97461056 96774440 96896712 
927.110 97810992 99453736 101720904 104483888 107576944 110813192 114006784 
930.485 116964232 119513728 121516080 122854624 123447664 123248968 
933.378 122251592 120498272 118089312 115195144 112034304 108871096 
936.271 106000296 103692216 102193856 101703072 102340744 104157128 
939.163 107114048 111087016 115838904 121021016 126213312 130903664 
942.056 134578432 136809152 137283824 135898192 132761792 128188280 
944.949 122615592 116523888 110387336 104570928 99326480 94795912 91015640 
948.324 87954616 85538736 83681264 82291056 81283856 80590416 80149816 
951.698 79911936 79839616 79902936 80080320 80357800 80723512 81167608 
955.073 81679944 82249256 82864984 83518176 84202200 84912600 85646432 
958.448 86400112 87169080 87947552 88729592 89510872 90289240 91064880 
961.823 91839496 92614208 93389376 94164152 94937552 95709616 96482136 
965.198 97257896 98039616 98827944 99621696 100418048 101215136 102013576 
968.573 102817760 103634800 104473304 105340216 106239664 107173752 
971.465 108143856 109152984 110207208 111314512 112483544 113720608 
974.358 115028736 116407352 117854760 119369904 120954080 122609976 
977.251 124338984 126138744 128000664 129911680 131854016 133809816 
980.143 135762416 137694320 139586816 141417840 143160784 144789952 
983.036 146284144 147632704 148837328 149911728 150876336 151751664 
985.929 152556080 153305136 154012192 154693328 155366944 156051616 
988.821 156762064 157505184 158277680 159068608 159864896 160657024 
991.714 161441536 162221120 163000256 163781680 164562288 165335232 
994.607 166091488 166825360 167534688 168219664 168879136 169506544 
997.500 170089136 170612400 171064496 171443584 171758736 172030320 
1000.392 172282080 172536192 172809952 173116304 173465408 173870848 
1003.285 174348240 174913120 175577424 176344080 177207008 178154288 
1006.178 179175872 180269648 181444688 182718784 184114576 185653280 
1009.070 187349968 189214976 191254448 193469424 195848384 198355104 
1011.963 200919424 203420016 205695472 207571200 208876656 209498928 
1014.856 209406800 208662128 207404608 205823152 204131328 202514496 
1017.748 201120608 200049648 199346064 199011952 199016064 199309520 
1020.641 199833616 200531984 201362224 202294752 203315712 204421408 
1023.534 205611936 206883584 208227728 209630288 211077360 212559104 
1026.427 214071232 215612784 217182560 218772480 220368112 221950400 
1029.320 223500160 225004640 226457424 227855408 229193728 230459440 
1032.213 231631024 232685088 233601616 234372848 235005952 235520448 
1035.106 235940720 236287616 236576608 236816352 237012880 237172064 
1037.999 237298416 237390384 237432512 237392400 237221040 236856304 
1040.892 236240128 235323472 234072160 232470208 230513984 228210368 
1043.785 225576976 222646448 219471184 216119184 212676144 209232208 
1046.678 205866208 202646928 199622704 196823584 194269440 191970432 
1049.571 189929392 188140656 186587312 185241392 184064144 183015168 
1052.464 182057744 181162704 180312704 179496800 178704896 177924880 
1055.357 177138000 176320768 175450656 174505488 173466016 172315008 
1058.250 171032496 169596192 167984832 166181680 164182272 161996944 
1061.144 159651856 157182400 154626976 152023600 149403728 146794048 
1064.037 144219936 141704000 139268272 136932112 134708448 132604016 
1066.930 130619336 128751440 126997336 125355896 123828712 122418200 
1069.823 121125144 119946848 118876672 117905232 117023096 116220992 
1072.716 115491328 114827256 114219352 113656720 113126680 112616864 
1075.609 112119104 111631248 111157968 110708776 110295832 109932104 
1078.502 109628640 109395712 109243136 109179144 109209648 109335232 
1081.395 109547784 109828280 110146656 110467576 110750120 110957800 
1084.288 111062024 111042904 110893728 110619552 110239488 109784208 
1087.181 109295256 108824480 108423360 108141688 108023384 108099656 
1090.074 108394224 108924576 109704984 110752176 112085640 113724872 
1092.967 115687848 117983392 120605640 123525248 126683592 129991216 
1095.860 133312944 136480112 139300272 141559568 143070688 143694992 
1098.753 143368208 142119616 140066320 137398160 134328176 131078688 
1101.646 127851248 124794784 122018600 119585640 117517304 115808272 
1104.540 114432280 113354344 112533648 111931904 111517416 111262752 
1107.433 111147096 111152584 111259928 111447856 111691696 111963464 
1110.326 112236904 112489344 112703312 112868880 112982288 113042464 
1113.219 113047840 112990368 112848992 112588008 112152040 111471880 
1116.112 110481072 109123928 107379816 105273120 102879528 100313344 
1119.005 97703632 95182400 92850328 90767776 88956200 87401360 86068984 
1122.380 84916952 83910520 83025456 82250816 81587408 81045440 80642792 
1125.755 80402088 80349264 80508688 80893440 81497544 82284496 83186344 
1129.131 84094696 84875416 85386976 85484720 85053432 84021352 82366592 
1132.506 80126824 77392504 74301984 71010432 67677576 64450584 61437620 
1135.881 58712748 56314028 54248228 52502936 51054144 49875932 48941832 
1139.256 48227096 47709636 47366256 47174588 47114532 47167384 47318252 
1142.632 47556080 47870832 48252716 48690644 49171384 49681708 50209556 
1146.007 50745192 51282800 51818796 52351080 52879000 53402548 53923796 
1149.382 54447024 54979348 55528960 56102464 56703488 57331172 57980892 
1152.757 58645576 59318272 59994064 60668968 61339808 62002240 62649236 
1156.133 63272276 63861588 64407384 64901048 65333752 65695540 65974584 
1159.508 66156320 66224896 66166280 65969028 65626556 65136956 64501284 
1162.883 63723588 62809104 61765736 60604428 59339052 57988124 56571968 
1166.258 55110724 53624836 52131836 50646628 49182960 47752576 46366368 
1169.634 45034776 43766104 42566944 41440924 40389076 39410516 38503520 
1173.009 37666196 36897400 36196108 35560712 34988516 34475500 34016980 
1176.384 33608276 33245452 32926104 32648146 32409594 32207680 32039352 
1179.759 31901934 31795218 31722140 31688918 31703926 31776250 31912736 
1183.135 32117978 32394816 32744958 33170592 33675192 34262620 34936836 
1186.510 35701560 36560652 37521572 38597552 39808160 41180372 42741632 
1189.885 44512556 46498780 48682932 51021124 53439904 55849852 58150108 
1193.260 60239468 62038704 63495496 64596696 65370224 65884492 66239832 
1196.635 66546104 66920692 67466408 68254752 69324184 70668240 72238016 
1200.011 73938488 75641992 77203464 78462440 79275880 79531152 79153480 
1203.386 78119960 76454576 74224928 71525800 68474576 65203332 61836024 
1206.761 58493488 55279844 52269976 49515940 47042044 44848288 42917708 
1210.136 41222012 39731252 38415476 37250724 36220132 35311356 34516756 
1213.512 33831188 33250854 32773436 32397490 32122296 31947222 31870018 
1216.887 31886458 31989950 32172710 32427446 32748782 33134830 33585508 
1220.262 34101704 34682924 35325984 36025400 36773620 37562824 38386008 
1223.637 39235928 40105064 40985008 41866300 42740168 43601552 44450004 
1227.013 45291248 46135680 46997552 47890884 48829400 49825912 50891464 
1230.388 52036836 53271760 54603076 56033808 57562176 59182956 60889288 
1233.763 62676528 64544416 66498020 68545616 70696400 72958096 75335384 
1237.138 77829480 80438184 83154248 85961416 88825400 91692752 94483024 
1240.514 97088640 99394536 101280864 102643264 103414944 103571880 103145784 
1243.889 102218208 100924304 99434024 97923768 96576352 95548520 94957016 
1247.264 94887256 95384632 96466368 98132096 100372664 103175584 106521240 
1250.639 110378704 114690624 119355384 124230240 129113528 133746608 
1253.532 137851072 141119408 143254320 144021296 143257872 140917824 
1256.426 137076016 131923736 125734776 118811936 111480920 104036320 
1259.319 96723712 89754312 83278288 77392144 72147632 67549504 63568360 
1262.694 60148164 57220892 54712240 52548484 50668188 49018680 47559632 
1266.069 46264256 45115052 44103536 43229188 42498136 41922384 41517624 
1269.444 41301992 41291532 41495604 41912496 42525688 43301888 44187900 
1272.820 45116968 46011188 46782652 47350400 47644148 47614940 47246580 
1276.195 46556832 45596712 44435872 43156908 41839776 40546920 39324536 
1279.570 38198088 37176364 36256976 35432420 34693940 34032964 33442016 
1282.945 32914988 32445654 32029078 31661260 31339552 31062070 30826560 
1286.321 30629966 30468574 30338618 30237008 30162950 30116460 30098100 
1289.696 30106232 30136100 30180068 30229512 30276974 30318862 30356276 
1293.071 30394298 30439716 30498394 30574610 30670322 30786544 30924854 
1296.446 31087876 31278338 31498526 31748444 32026154 32328024 32651790 
1299.822 32996636 33364258 33757980 34179980 34630528 35107224 35606028 
1303.197 36123584 36658164 37210908 37783872 38378412 38993768 39626408 
1306.572 40271056 40922856 41578220 42235196 42892036 43545656 44190100 
1309.947 44817356 45419620 45990704 46528576 47034696 47513864 47971840 
1313.323 48413668 48844228 49267684 49688096 50107020 50520428 50915120 
1316.698 51263820 51527136 51660268 51617656 51368232 50901820 50232392 
1320.073 49393780 48432820 47401356 46344100 45297904 44291248 43343440 
1323.448 42470180 41684340 40994656 40406312 39919624 39530624 39232664 
1326.823 39018888 38883992 38823516 38833336 38908092 39039876 39219428 
1330.199 39437436 39685324 39956388 40244520 40541756 40837704 41119648 
1333.574 41373164 41586572 41751928 41866556 41931688 41950300 41925084 
1336.949 41856816 41745652 41592548 41401880 41182704 40947468 40708900 
1340.324 40477520 40258844 40053716 39860456 39677268 39504532 39344920 
1343.700 39202272 39080372 38982748 38911784 38871344 38867504 38908452 
1347.075 39003808 39162096 39388964 39686488 40054044 40490212 40994256 
1350.450 41566116 42204300 42903300 43652292 44435836 45235392 46033952 
1353.825 46817856 47575308 48295300 48962528 49555380 50048680 50417040 
1357.201 50640524 50712348 50640264 50447704 50166968 49838916 49506432 
1360.576 49209456 48988824 48883424 48927812 49153352 49581156 50218816 
1363.951 51060552 52087864 53272432 54572944 55936864 57296196 58562492 
1367.326 59644024 60454240 60930804 61054652 60851552 60386916 59741496 
1370.702 59001604 58242588 57517800 56865716 56309576 55860892 55519776 
1374.077 55271376 55084880 54908840 54681876 54344164 53844272 53155356 
1377.452 52278348 51245328 50111556 48946912 47825072 46804832 45930448 
1380.827 45231604 44726480 44429304 44351720 44502164 44889216 45525984 
1384.203 46436420 47662564 49259964 51279964 53742300 56598312 59715608 
1387.578 62872476 65811156 68292288 70124264 71202528 71501616 71064240 
1390.953 69982040 68379896 66404620 64195028 61895052 59650256 57595656 
1394.328 55859272 54536916 53670684 53245616 53199736 53452048 53915208 
1397.704 54515164 55197324 55921148 56662072 57405624 58142572 58863848 
1401.079 59557440 60206396 60792548 61298936 61714896 62041036 62289628 
1404.454 62483188 62645868 62800452 62963016 63142696 63345104 63572468 
1407.829 63823088 64087452 64345360 64566480 64711676 64744516 64641916 
1411.205 64399392 64032808 63571244 63049472 62496924 61934640 61376748 
1414.580 60830548 60300872 59788988 59291800 58799312 58296128 57767568 
1417.955 57209932 56642628 56110040 55672068 55377660 55244096 55253692 
1421.330 55364640 55530204 55710000 55883464 56052244 56236820 56464564 
1424.706 56756124 57115672 57528280 57967184 58402096 58810428 59178628 
1428.081 59502984 59787620 60043520 60288308 60545496 60848960 61238768 
1431.456 61752364 62421364 63261388 64273664 65451004 66789208 68297760 
1434.831 69999280 71922192 74079072 76442208 78933072 81443744 83875024 
1438.207 86163520 88279072 90202736 91910680 93355768 94471208 95192104 
1441.582 95463840 95261824 94595568 93504832 92050072 90297440 88318664 
1444.957 86175960 83914216 81565544 79150176 76691872 74237112 71861584 
1448.332 69663296 67745272 66182644 65013252 64236016 63818328 63704320 
1451.708 63817716 64073124 64370380 64603692 64673564 64475068 63906728 
1455.083 62879832 61346064 59351472 57069036 54790908 52808012 51292868 
1458.458 50267992 49654400 49345816 49250872 49308624 49479660 49732788 
1461.833 50040016 50368928 50684424 50956140 51162232 51297904 51377184 
1465.208 51430744 51495836 51603696 51777992 52031684 52369060 52787360 
1468.584 53278128 53826720 54408640 54989764 55524144 55947908 56191372 
1471.959 56191828 55915572 55374124 54617920 53715192 52725140 51693896 
1475.334 50658656 49653436 48720296 47903760 47239596 46750920 46441584 
1478.709 46301120 46312252 46460428 46739108 47152020 47710636 48428488 
1482.085 49315712 50373836 51596160 52971336 54491648 56158496 57986604 
1485.460 60003880 62244924 64741708 67513744 70565056 73887264 77470040 
1488.835 81309672 85409280 89762256 94342728 99088648 103908552 108698960 
1492.210 113366992 117842592 122057480 125946168 129425880 132377864 
1495.104 134676096 136215328 136961328 136976400 136419440 135500256 
1497.997 134407184 133290424 132252392 131358144 130660744 130206392 
1500.890 130027608 130139496 130525928 131138232 131883856 132626864 
1503.783 133184016 133284656 132578032 130656408 127147048 121929392 
1506.676 115294080 107882624 100373704 93196448 86462216 80084344 73921088 
1510.051 67876000 61930436 56162112 50713724 45727856 41325604 37559248 
1513.426 34409644 31810120 29669824 27898680 26413094 25148970 24064040 
1516.802 23133562 22351214 21717452 21228114 20867276 20603422 20391746 
1520.177 20187946 19962038 19716520 19487494 19327248 19273174 19328494 
1523.552 19467224 19649432 19841152 20022860 20197770 20386222 20615374 
1526.927 20903330 21250834 21643822 22063274 22495624 22937310 23394554 
1530.302 23877800 24393720 24942680 25517458 26107600 26706296 27314288 
1533.678 27940412 28592032 29269548 29960514 30644686 31296142 31889488 
1537.053 32405418 32827788 33147488 33359930 33465494 33464168 33358034 
1540.428 33156536 32879714 32555458 32209676 31854794 31485238 31079760 
1543.803 30615388 30078250 29477370 28842728 28214702 27624940 27080906 
1547.179 26565906 26047998 25496236 24895588 24257124 23614628 23011790 
1550.554 22479116 22021512 21620036 21244710 20871208 20491284 20116518 
1553.929 19771896 19482228 19256654 19084786 18937944 18780250 18570254 
1557.304 18267080 17838606 17276480 16618712 15948739 15358947 14904046 
1560.680 14587828 14381973 14246811 14145304 14045840 13927889 13784898 
1564.055 13626057 13473561 13352826 13282650 13265125 13286578 13323443 
1567.430 13354091 13365503 13359079 13349649 13360037 13410917 13511637 
1570.805 13660453 13849683 14071474 14320636 14593825 14887622 15195136 
1574.181 15508123 15820580 16133707 16460724 16823254 17244830 17735050 
1577.556 18289440 18895130 19539342 20215542 20923948 21668722 22452146 
1580.931 23268130 24101130 24924222 25704402 26409856 27010098 27480582 
1584.306 27803682 27967408 27967514 27807956 27502362 27073466 26551324 
1587.682 25973030 25373938 24783072 24218374 23683030 23169350 22664166 
1591.057 22156674 21641106 21118318 20592270 20066998 19545234 19029534 
1594.432 18526270 18048628 17614954 17246176 16957532 16753340 16626321 
1597.807 16562464 16547628 16573651 16640505 16754443 16922080 17145586 
1601.183 17422178 17746302 18115848 18536816 19024478 19597712 20275494 
1604.558 21069622 21984216 23017556 24166490 25428986 26801442 28274178 
1607.933 29826306 31421152 33010684 34544664 35976844 37276972 38434516 
1611.308 39458080 40368928 41191808 41945848 42636972 43255728 43777284 
1614.684 44169412 44395316 44424164 44240580 43849376 43270588 42528392 
1618.059 41638680 40606112 39429092 38103196 36626436 34998392 33228676 
1621.434 31336776 29358594 27358080 25417112 23623094 22047760 20725738 
1624.809 19653004 18795094 18104966 17535424 17048844 16623911 16252637 
1628.185 15938323 15687373 15503934 15385792 15325000 15309417 15325892 
1631.560 15362036 15405462 15442919 15460257 15440309 15366808 15229761 
1634.935 15033376 14801563 14572477 14385466 14261466 14199598 14182651 
1638.310 14187889 14193093 14182480 14149207 14094439 14026402 13955363 
1641.686 13890118 13834256 13785035 13734145 13669993 13580312 13453635 
1645.061 13282890 13067817 12819066 12558109 12313910 12115466 11981314 
1648.436 11915786 11909792 11945791 11999332 12040414 12036292 11948992 
1651.811 11747140 11425388 11029268 10650383 10373691 10231324 10198995 
1655.187 10231188 10285571 10335041 10366294 10375150 10363986 10337620 
1658.562 10301246 10257852 10207543 10148150 10075810 9986733 9878794 
1661.937 9754141 9619903 9488347 9372812 9284489 9228335 9202105 9197164 
1665.794 9201191 9201023 9183796 9140413 9066854 8965400 8844797 8717837 
1669.652 8599566 8501905 8432372 8392780 8379436 8384436 8395212 8397711 
1673.509 8377207 8322657 8232926 8120087 8008020 7920784 7873511 7865346 
1677.367 7883903 7911335 7933134 7942414 7941368 7939275 7946261 7967723 
1681.224 7998941 8025503 8024963 7975925 7867032 7709632 7539004 7401944 
1685.082 7330363 7327364 7374274 7445525 7520462 7584925 7632369 7661337 
1688.939 7674388 7676277 7673882 7675669 7689868 7722651 7775776 7844327 
1692.796 7917544 7978556 8009775 7997389 7939545 7852187 7767175 7719447 
1696.654 7726361 7782422 7862545 7935159 7968331 7939883 7847464 7717456 
1700.511 7597570 7530070 7532599 7592546 7683089 7775034 7846351 7882621 
1704.369 7879145 7841088 7782928 7723595 7678739 7656345 7655671 7670307 
1708.226 7691520 7711824 7727204 7737323 7744136 7750444 7758101 7767141 
1712.083 7776316 7783737 7788392 7790484 7790990 7790214 7785660 7771863 
1715.941 7741809 7690441 7619656 7541196 7474682 7440503 7449536 7500976 
1719.798 7583509 7682381 7782455 7873005 7948926 8010484 8061721 8108744 
1723.656 8157595 8212328 8274800 8344915 8421595 8502547 8584696 8663852 
1727.513 8735416 8795192 8841618 8876956 8906751 8937055 8971320 9006872 
1731.371 9033056 9032007 8982279 8868096 8689069 8470516 8257239 8096760 
1735.228 8014028 8004983 8045248 8104389 8156279 8180757 8167117 8115395 
1739.085 8035797 7944708 7859610 7792272 7745924 7716883 7697827 7681807 
1742.943 7664102 7643126 7619656 7595951 7574203 7555120 7538735 7523800 
1746.800 7509236 7494234 7477918 7459884 7438918 7412662 7379228 7337237 
1750.658 7288613 7239152 7197782 7173089 7169889 7187271 7218264 7251281 
1754.515 7273181 7273451 7246160 7194447 7128592 7064095 7014794 6986846 
1758.373 6977654 6977620 6974994 6958900 6923582 6870022 6805631 6741317 
1762.230 6688587 6655310 6644644 6654872 6680814 6715641 6751513 6780220 
1766.087 6794760 6791158 6770124 6737480 6702349 6673479 6653964 6640203 
1769.945 6622170 6587418 6526264 6437273 6330380 6225261 6142213 6093487 
1773.802 6079038 6089287 6110759 6132198 6148027 6157806 6164461 6170913 
1777.660 6177770 6182441 6181197 6171081 6152463 6129544 6109079 6096780 
1781.517 6094529 6099838 6106390 6107936 6099838 6081693 6056358 6029345 
1785.375 6006063 5990206 5983555 5986309 5997799 6017385 6043288 6071881 
1789.232 6096814 6110423 6104509 6073763 6018729 5947308 5873515 5811790 
1793.089 5773040 5760113 5769212 5791978 5819883 5846480 5867571 5880770 
1796.947 5885069 5880165 5865657 5842047 5810817 5774719 5736946 5701325 
1800.804 5670104 5644625 5625022 5610958 5601963 5598237 5599782 5605790 
1804.662 5615221 5625660 5635294 5642511 5647043 5649426 5650030 5649090 
1808.519 5645733 5638080 5625224 5607468 5586390 5565615 5548835 5538330 
1812.376 5534437 5535780 5539907 5544774 5549774 5555580 5564138 5577059 
1816.234 5595250 5618175 5644189 5671379 5697867 5722778 5745339 5765720 
1820.091 5784020 5800742 5816290 5831099 5844902 5856656 5864213 5865522 
1823.949 5859813 5848361 5835835 5828950 5832980 5850174 5877277 5906363 
1827.806 5926684 5928162 5905590 5861257 5805074 5751014 5711665 5693200 
1831.664 5693838 5705521 5718883 5726404 5724456 5713209 5695853 5676146 
1835.521 5656139 5637039 5618376 5600788 5585853 5577596 5579744 5595318 
1839.378 5624788 5665438 5712135 5758468 5797955 5824752 5833853 5823409 
1843.236 5795235 5755983 5716466 5689776 5685747 5708375 5755312 5819245 
1847.093 5891014 5961820 6027228 6086397 6142347 6198675 6257799 6318882 
1850.951 6378460 6431758 6475645 6510455 6539617 6569084 6603801 6646394 
1854.808 6696191 6750336 6805092 6858712 6911227 6964388 7020081 7079250 
1858.666 7141695 7206103 7272238 7341349 7415796 7497976 7588938 7686731 
1862.523 7787077 7884646 7974574 8053721 8120695 8174544 8212901 8231102 
1866.380 8222963 8182377 8106719 7999245 7871047 7737660 7614969 7514764 
1870.238 7440367 7387519 7347853 7312537 7274866 7230999 7179894 7122058 
1874.095 7058370 6989910 6918128 6844608 6771706 6701339 6633407 6566494 
1877.953 6496867 6420728 6335961 6243748 6148329 6055787 5972334 5901493 
1881.810 5843458 5795269 5753364 5714888 5679403 5648016 5623076 5606159 
1885.667 5596895 5593203 5592700 5592968 5593170 5592968 5592935 5593203 
1889.525 5593673 5594915 5597902 5605152 5619014 5641403 5672118 5708174 
1893.382 5744500 5776297 5799534 5812966 5818137 5817936 5815383 5811857 
1897.240 5807928 5803933 5800978 5802287 5811320 5831469 5863104 5903911 
1901.097 5948753 5991953 6029479 6060222 6086598 6111834 6139693 6171451 
1904.955 6206540 6243143 6279280 6314141 6348233 6381553 6413733 6443124 
1908.812 6467338 6484625 6495286 6502282 6508841 6518864 6533933 6552871 
1912.669 6573289 6593103 6610967 6628024 6645115 6662443 6677045 6684448 
1916.527 6678728 6657631 6623381 6584357 6551760 6534808 6537566 6556604 
1920.384 6583549 6609083 6626106 6633541 6635324 6638218 6648311 6668162 
1924.242 6696023 6727351 6758109 6786716 6814247 6843396 6876048 6911968 
1928.099 6948328 6982234 7012235 7039781 7068979 7104679 7149981 7203677 
1931.957 7261456 7317120 7365478 7404370 7434638 7458671 7478458 7494301 
1935.814 7504449 7507449 7504111 7497841 7495683 7504010 7527069 7563852 
1939.671 7609338 7655671 7696107 7727744 7751894 7773854 7799120 7830832 
1943.529 7869429 7911808 7954461 7994689 8032187 8067898 8103174 8139263 
1947.386 8176503 8215232 8256159 8301716 8353933 8414265 8482679 8556207 
1951.244 8631472 8705734 8777948 8849700 8923730 9000648 9078932 9153238 
1955.101 9217436 9265804 9297318 9315361 9327345 9342816 9367937 9406129 
1958.958 9455126 9510123 9565569 9616820 9662352 9701924 9737197 9769085 
1962.816 9799788 9831477 9867506 9910353 9960627 10016435 10072147 10120949 
1966.673 10156799 10178507 10190277 10201369 10221994 10259820 10317431 
1970.049 10391439 10474626 10559831 10642098 10720102 10794587 10867421 
1973.424 10938975 11009216 11079672 11155001 11243604 11354910 11496694 
1976.799 11668680 11860891 12054347 12226145 12357543 12437731 12465418 
1980.174 12448438 12398897 12329318 12250785 12171211 12096728 12032136 
1983.550 11981655 11948208 11933904 11937616 11957234 11990204 12034691 
1986.925 12090527 12158092 12237766 12327647 12423615 12519639 12611454 
1990.300 12697046 12778764 12861453 12951190 13050949 13160842 13277423 
1993.675 13395881 13513312 13629373 13745431 13864734 13988486 14115319 
1997.051 14241093 14360841 14471169 14570627 14661163 14745377 14826042 
2000.426 14904046 14978258 15045931 15105208 15155334 15196989 15233329 
2003.801 15267304 15303444 15346727 15401068 15472549 15565300 15680777 
2007.176 15817039 15967919 16124044 16275512 16415162 16541328 16656445 
2010.552 16766220 16877952 16996744 17125180 17263586 17409970 17562922 
2013.927 17719516 17876168 18029734 18175306 18309588 18431984 18545634 
2017.302 18656476 18771600 18895928 19029914 19169206 19304972 19428968 
2020.677 19534734 19619410 19683026 19726956 19751332 19754556 19733856 
2024.052 19687602 19616464 19524370 19416702 19299084 19175058 19045700 
2027.428 18910946 18770598 18626106 18480974 18340624 18209164 18089284 
2030.803 17980176 17880588 17788688 17705712 17635138 17582450 17552018 
2034.178 17545256 17558230 17583520 17613124 17640280 17662436 17680518 
2037.553 17697324 17714822 17733738 17751788 17766390 17775434 17778160 
2040.929 17775190 17767148 17754172 17733738 17703158 17660122 17603912 
2044.304 17536528 17461706 17383860 17306446 17231800 17161338 17096160 
2047.679 17037402 16985476 16938410 16890492 16832106 16751412 16638406 
2051.054 16487533 16301794 16091241 15870305 15655220 15458232 15283881 
2054.430 15129430 14986627 14844899 14696019 14535952 14366630 14192203 
2057.805 14017607 13847117 13683670 13528967 13385629 13256242 13143731 
2061.180 13049617 12972833 12908998 12851930 12795245 12734849 12669889 
2064.555 12602312 12535634 12472341 12413114 12356145 12298298 12236880 
2067.931 12169848 12097103 12018715 11935232 11846897 11753881 11657618 
2071.306 11560423 11466211 11379059 11301107 11232349 11168667 11104485 
2074.681 11033822 10952465 10859064 10755526 10645392 10533215 10421610 
2078.056 10313258 10209375 10111623 10021758 9941269 9870591 9808803 9753022 
2081.914 9699823 9646225 9591312 9536202 9482997 9434232 9390485 9350603 
2085.771 9312111 9272201 9228944 9182273 9133070 9081706 9027372 8967328 
2089.629 8898296 8817778 8725477 8624610 8521165 8422710 8335965 8265716 
2093.486 8214285 8181466 8165293 8162727 8169547 8180959 8190886 8193891 
2097.344 8186125 8166407 8136865 8102094 8067730 8036946 8010686 7986252 
2101.201 7960097 7929017 7892878 7854921 7820677 7794633 7779925 7775507 
2105.058 7778003 7783468 7788730 7793520 7799592 7809173 7822431 7838052 
2108.916 7851918 7860116 7859948 7851783 7838456 7824287 7813053 7806170 
2112.773 7803235 7801954 7799963 7796118 7790518 7783839 7777024 7769975 
2116.631 7761946 7751490 7737964 7721605 7703359 7684843 7667104 7650512 
2120.488 7634696 7619420 7605089 7592276 7581790 7573765 7566685 7557783 
2124.345 7544162 7523361 7495616 7462985 7429177 7397866 7371173 7348898 
2128.203 7329184 7309066 7286659 7261321 7235109 7210987 7192998 7184138 
2132.060 7187810 7206507 7241274 7292589 7357828 7432008 7506977 7573529 
2135.918 7624815 7656885 7671555 7674691 7675096 7679885 7692734 7713746 
2139.775 7739482 7765724 7789337 7808869 7824692 7836972 7844529 7845069 
2143.633 7835285 7813862 7780870 7739987 7696006 7654221 7618577 7590624 
2147.490 7570697 7558559 7554816 7559537 7571472 7586915 7598615 7598311 
2151.347 7578485 7534790 7468008 7383070 7286221 7182555 7075209 6965903 
2155.205 6858611 6763225 6698883 6689091 6759489 6926276 7187776 7521068 
2159.062 7886299 8238869 8537993 8759251 8894948 8952783 8948826 8903674 
2162.920 8837424 8766689 8704280 8657903 8630356 8619642 8619642 8622549 
2166.777 8621602 8612206 8593956 8568711 8539682 8508190 8473962 8435312 
2170.635 8390179 8338835 8284830 8234006 8193418 8168737 8162457 8174713 
2174.492 8203245 8245386 8297731 8357885 8421122 8480889 8530051 8562020 
2178.349 8573780 8568339 8555024 8546103 8553131 8583547 8636879 8705971 
2182.207 8779875 8848347 8904655 8947608 8979641 9004571 9025410 9043306 
2186.064 9057380 9067023 9071962 9073282 9072741 9070271 9065297 9055519 
2189.922 9038908 9014652 8984816 8952344 8921904 8895083 8872965 8852912 
2193.779 8831778 8807600 8779503 8748601 8717296 8687615 8661250 8638501 
2197.636 8619878 8606799 8600276 8601594 8610246 8623225 8635459 8641814 
2201.494 8638738 8625760 8606089 8585237 8568271 8557863 8553639 8552794 
2205.351 8552388 8551375 8551510 8556173 8569353 8592029 8622549 8655841 
2209.209 8686771 8711853 8730109 8743767 8755599 8767974 8780010 8789883 
2213.066 8794718 8793636 8787888 8781667 8778793 8782208 8791337 8802664 
2216.924 8811084 8812469 8804997 8790086 8770713 8749447 8727573 8704517 
2220.781 8677745 8645127 8606832 8564588 8521908 8482274 8448048 8419771 
2224.638 8396192 8376126 8358763 8344408 8334242 8328972 8328230 8330188 
2228.496 8332215 8331911 8327959 8320900 8312322 8304756 8300096 8299251 
2232.353 8302426 8309046 8318401 8330932 8346097 8365046 8387983 8415481 
2236.211 8447305 8482713 8520422 8558201 8593280 8622920 8645566 8661148 
2240.068 8671965 8681903 8694680 8712935 8736329 8761820 8784676 8800264 
2243.926 8806147 8803273 8795428 8787245 8782681 8783392 8787820 8792724 
2247.783 8794482 8791540 8783865 8774533 8766553 8762903 8764863 8772335 
2251.640 8784574 8800500 8819503 8841245 8864512 8887473 8906751 8919197 
2255.498 8922275 8915037 8898871 8876415 8851019 8825149 8800229 8776663 
2259.355 8753909 8731630 8710163 8689339 8669361 8649386 8628227 8605007 
2263.213 8579492 8553131 8528903 8510319 8500486 8501026 8511365 8528870 
2267.070 8549651 8570164 8586588 8596761 8599668 8595139 8584256 8568981 
2270.927 8552726 8538804 8530661 8530288 8538094 8552355 8569420 8585845 
2274.785 8598822 8607339 8611902 8614099 8616026 8618831 8623393 8629781 
2278.642 8638501 8650230 8665847 8685621 8709555 8735518 8761246 8783932 
2282.500 8801819 8814126 8821904 8825894 8827145 8824879 8817711 8803746 
2286.357 8781633 8751238 8714558 8674196 8634175 8597504 8566818 8543197 
2290.215 8526606 8516468 8511433 8509710 8509474 8508426 8504844 8497478 
2294.072 8486429 8472745 8458286 8444838 8434264 8427069 8423318 8422575 
2297.929 8424467 8428622 8434872 8442812 8451494 8459129 8464063 8464839 
2301.787 8461090 8453825 8445109 8437575 8433487 8434162 8439939 8450042 
2305.644 8463522 8479436 8497005 8515657 8534580 8552963 8569792 8584290 
2309.502 8596254 8606596 8616262 8626300 8637285 8648811 8659526 8667841 
2313.359 8672809 8674094 8672742 8670342 8668787 8669734 8674026 8681700 
2317.217 8691942 8703740 8716282 8728689 8741197 8754450 8769833 8788734 
2321.074 8811625 8837594 8863666 8884430 8893494 8885276 8856362 8807397 
2324.931 8743294 8672404 8604196 8547725 8509744 8493052 8497174 8519104 
2328.789 8554619 8600174 8652123 8708607 8767331 8826063 8882570 8934451 
2332.646 8979742 9017427 9046994 9068139 9080827 9084414 9078763 9064620 
2336.504 9043780 9018780 8993036 8968884 8947473 8927586 8907259 8883686 
2340.361 8855415 8822580 8786874 8750968 8717194 8686162 8657294 8629004 
2344.219 8599803 8569893 8541473 8518766 8506804 8510183 8531437 8570941 
2348.076 8626469 8694173 8768312 8842902 8912095 8970440 9015160 9045471 
2351.933 9063775 9074195 9081741 9090470 9101703 9114561 9125761 9132258 
2355.791 9131446 9122885 9107861 9089116 9069053 9049769 9032345 9017595 
2359.648 9005823 8997670 8993036 8991716 8991954 8991784 8989417 8983971 
2363.506 8976934 8971184 8970575 8977950 8994559 9018881 9048009 9077511 
2367.363 9104274 9126336 9143594 9156825 9167417 9176351 9184237 9191918 
2371.220 9200311 9210804 9225288 9245021 9270306 9300399 9333676 9368343 
2375.078 9402980 9436569 9469315 9501250 9532375 9562384 9590804 9616989 
2378.935 9641109 9663300 9684171 9703754 9721814 9737401 9749633 9757902 
2382.793 9762646 9765019 9767153 9771050 9777828 9788130 9801415 9816734 
2386.650 9833409 9850830 9869371 9889064 9910250 9932930 9956864 9982257 
2390.508 10009179 10038373 10070113 10104398 10140213 10176132 10210495 
2393.883 10242247 10271525 10299855 10329103 10361576 10398057 10438376 
2397.258 10480735 10522793 10562105 10596973 10626207 10649500 10666479 
2400.633 10677414 10682270 10681557 10676430 10668517 10659484 10651029 
2404.009 10643695 10637480 10631572 10625223 10617922 10609977 10602337 
2407.384 10595649 10590692 10587535 10586312 10586821 10589877 10596599 
2410.759 10608143 10625392 10648380 10676327 10707774 10741567 10777094 
2414.134 10814697 10855292 10899663 10948285 11000584 11055302 11111454 
2417.510 11168123 11225209 11283389 11343244 11404604 11466551 11527384 
2420.885 11585095 11637912 11684711 11725354 11759975 11789151 11813222 
2424.260 11832051 11845977 11855341 11860891 11864092 11866374 11868792 
2427.635 11872640 11878156 11885682 11895081 11906285 11918783 11931929 
2431.010 11944938 11956859 11967315 11976819 11986287 11997562 12012345 
2434.386 12031523 12055232 12082521 12111992 12142418 12172949 12203755 
2437.761 12234903 12267043 12299900 12332556 12364327 12394158 12422149 
2441.136 12449188 12476399 12505248 12536555 12570217 12605553 12641370 
2444.511 12676917 12711750 12745596 12779002 12811865 12843842 12874593 
2447.887 12903469 12930025 12953955 12975427 12994443 13011104 13025854 
2451.262 13038623 13050199 13060817 13071368 13082228 13093223 13103843 
2454.637 13113269 13120987 13126928 13131915 13137242 13144619 13155206 
2458.012 13169482 13187243 13207634 13229837 13253408 13278618 13306530 
2461.388 13338817 13376813 13421784 13474142 13533719 13600038 13671429 
2464.763 13746593 13823789 13901853 13979966 14058400 14137739 14218941 
2468.138 14303172 14390844 14482234 14576863 14674358 14775201 14879597 
2471.513 14988822 15103973 15226054 15355583 15493185 15639350 15795184 
2474.889 15962316 16142752 16338054 16549245 16776208 17017968 17273722 
2478.264 17543290 17827352 18127732 18446262 18784366 19142264 19518442 
2481.639 19910420 20314554 20726886 21143226 21557910 21964872 22356168 
2485.014 22722818 23055814 23346930 23589230 23778216 23911196 23987350 
2488.390 24007554 23974498 23892328 23767016 23606232 23418684 23212480 
2491.765 22995440 22773760 22551948 22333424 22120902 21916884 21723616 
2495.140 21543704 21379040 21231490 21102874 20995128 20911258 20854936 
2498.515 20830220 20841240 20890710 20980244 21109414 21277628 21484272 
2501.891 21730026 22016840 22347550 22725122 23151386 23626104 24147050 
2505.266 24709796 25308042 25933460 26576298 27223862 27861088 28470806 
2508.641 29032812 29526026 29930196 30225180 30394618 30427028 30316908 
2512.016 30065822 29683592 29187574 28599286 27944016 27247498 26531704 
2515.392 25816032 25114526 24436622 23787842 23170782 22585488 22030714 
2518.767 21504500 21004412 20528244 20074874 19644092 19237014 18855646 
2522.142 18501374 18175202 17876756 17604394 17355652 17128110 16920394 
2525.517 16731577 16561637 16410723 16278367 16163900 16065933 15982976 
2528.893 15913954 15857900 15814325 15782163 15759898 15745331 15736328 
2532.268 15730694 15727086 15725197 15725162 15727431 15732137 15739111 
2535.643 15747769 15757699 15768763 15780926 15794361 15808862 15824014 
2539.018 15838895 15852744 15865494 15877763 15890857 15906187 15924608 
2542.394 15946299 15970360 15995970 16022407 16049670 16078724 16110944 
2545.769 16147360 16188182 16232824 16280225 16329557 16380304 16432919 
2549.144 16488014 16546629 16608350 16672799 16738946 16806102 16874128 
2552.519 16943820 17016212 17092094 17171816 17254968 17340512 17428112 
2555.895 17517970 17611294 17709508 17814164 17925926 18044312 18168048 
2559.270 18296282 18427974 18563510 18703690 18849624 19002288 19161794 
2562.645 19327800 19499624 19676854 19859326 20047286 20240918 20439704 
2566.020 20642720 20847984 21053276 21257098 21457814 21654164 21845202 
2569.396 22029494 22204832 22368622 22517748 22649086 22760700 22850866 
2572.771 22919636 22967876 22997676 23011966 23013818 23006410 22992436 
2576.146 22973850 22951876 22927076 22899972 22871576 22843426 22817968 
2579.521 22798308 22787168 22786784 22798690 22823208 22860154 22909332 
2582.896 22970602 23044598 23132306 23234992 23353784 23489572 23642722 
2586.272 23813952 24002896 24209440 24433186 24673216 24928292 25197212 
2589.647 25478386 25770886 26073222 26383800 26700200 27018982 27335988 
2593.022 27646198 27944544 28225842 28485772 28719662 28923822 29094276 
2596.397 29227372 29320484 29371640 29380078 29346362 29272420 29160750 
2599.773 29014390 28837240 28633154 28406598 28162094 27904298 27637160 
2603.148 27364782 27090074 26815822 26544948 26280332 26025304 25783542 
2606.523 25558714 25354198 25172388 25015082 24883482 24778090 24699556 
2609.898 24648598 24625382 24630292 24662310 24719968 24800754 24901484 
2613.274 25019190 25150688 25293222 25444408 25601976 25763466 25926634 
2616.649 26089022 26248372 26402356 26549632 26688962 26819982 26943214 
2620.024 27060276 27173418 27285144 27398202 27514258 27634264 27757480 
2623.399 27882710 28007518 28129040 28244192 28349226 28439640 28510892 
2626.775 28556998 28572144 28551408 28490514 28387320 28241436 28054172 
2630.150 27827988 27566542 27274558 26957140 26619942 26269068 25910280 
2633.525 25549154 25190330 24836924 24491236 24154720 23828444 23513742 
2636.900 23211852 22924456 22653206 22399460 22163754 21946016 21745074 
2640.276 21559720 21387394 21226374 21074352 20929164 20789342 20653700 
2643.651 20521574 20393064 20268690 20149106 20035074 19926860 19824782 
2647.026 19729384 19640626 19559202 19485416 19419334 19360920 19309234 
2650.401 19263614 19223092 19187006 19155458 19128724 19107464 19091746 
2653.777 19081670 19076894 19076408 19079974 19087142 19098220 19113802 
2657.152 19134162 19159372 19188908 19221844 19257242 19294200 19332686 
2660.527 19372768 19414796 19459460 19507076 19557850 19611750 19668744 
2663.902 19728690 19791454 19856830 19924608 19994650 20066510 20140326 
2667.278 20216096 20294694 20376186 20460822 20548496 20638828 20731298 
2670.653 20825492 20921236 21018740 21118596 21221190 21326836 21435500 
2674.028 21547116 21661200 21777682 21896426 22017398 22140530 22265756 
2677.403 22392902 22522214 22654044 22788984 22928056 23071956 23221254 
2680.779 23376372 23536792 23702556 23873318 24049296 24230916 24418852 
2684.154 24613846 24816400 25026842 25245566 25473078 25710274 25957588 
2687.529 26216024 26486412 26769442 27065740 27376428 27702700 28046078 
2690.904 28407624 28788556 29188460 29606328 30040184 30487342 30944708 
2694.280 31409218 31877328 32345158 32807704 33258508 33689980 34093636 
2697.655 34459756 34778972 35042392 35241636 35370948 35426204 35406792 
2701.030 35314952 35156372 34940104 34676284 34376612 34052604 33714220 
2704.405 33371024 33030524 32698836 32381176 32081302 31801670 31543452 
2707.781 31306398 31089334 30890272 30706984 30537674 30380900 30235872 
2711.156 30102114 29979542 29867902 29767044 29676424 29595510 29523686 
2714.531 29460138 29404542 29355756 29313288 29276956 29246794 29223014 
2717.906 29206426 29197568 29196434 29203238 29217200 29237262 29262352 
2721.281 29291382 29323038 29356432 29390500 29424572 29458116 29490456 
2724.657 29521912 29552840 29584122 29616862 29652336 29692142 29737592 
2728.032 29790536 29852534 29925120 30009470 30105914 30214098 30333180 
2731.407 30461610 30597930 30740842 30889456 31043244 31201928 31365230 
2734.782 31532944 31704568 31879682 32058220 32239690 32424126 32611102 
2738.158 32799844 32989770 33179532 33367980 33554222 33736924 33915116 
2741.533 34087256 34251256 34404840 34545492 34670612 34778396 34867324 
2744.908 34936660 34986396 35016924 35029316 35024864 35005432 34973432 
2748.283 34931560 34883012 34830844 34778436 34728756 34684932 34649404 
2751.659 34624396 34611620 34611908 34625040 34650408 34686620 34731628 
2755.034 34783352 34840252 34899888 34960824 35021088 35078848 35132516 
2758.409 35180876 35223276 35259712 35290440 35315888 35336516 35352548 
2761.784 35364336 35372496 35378608 35384324 35392156 35404308 35422464 
2765.160 35447808 35480312 35519864 35566396 35620344 35683068 35756132 
2768.535 35841804 35941384 36056076 36186384 36332408 36494228 36671932 
2771.910 36865368 37074404 37298272 37535732 37784776 38043660 38310660 
2775.285 38584956 38866124 39154768 39451116 39755288 40066944 40384748 
2778.661 40706752 41030672 41353884 41674200 41989604 42298452 42599360 
2782.036 42891412 43173376 43444060 43702052 43945896 44174732 44388272 
2785.411 44587192 44773128 44948852 45117628 45282716 45447396 45614340 
2788.786 45785912 45964072 46150232 46345832 46551556 46767632 46993308 
2792.162 47226672 47464776 47704164 47940424 48169080 48385668 48586760 
2795.537 48769560 48933376 49079704 49211868 49335756 49458456 49587576 
2798.912 49730824 49895112 50085860 50307540 50563160 50854804 51183252 
2802.287 51548404 51948956 52382332 52845544 53334844 53846936 54378068 
2805.663 54925384 55485284 56054280 56628360 57202676 57772748 58333872 
2809.038 58881228 59410924 59918176 60398532 60846824 61257884 61626332 
2812.413 61948012 62219648 62438768 62604068 62714844 62770432 62771388 
2815.788 62718248 62613220 62459464 62261328 62023916 61753164 61455408 
2819.164 61136800 60803984 60463952 60123084 59788036 59464532 59157064 
2822.539 58869240 58603256 58360708 58142228 57948588 57779716 57635948 
2825.914 57516780 57421696 57349960 57300920 57274384 57270564 57289848 
2829.289 57332948 57399952 57490796 57604584 57739972 57895472 58069128 
2832.665 58259448 58464676 58683160 58914240 59157328 59412860 59682228 
2836.040 59967624 60271484 60596160 60943424 61314888 61711608 62135456 
2839.415 62588876 63075832 63601316 64171368 64792560 65471464 66214940 
2842.790 67030056 67924304 68905896 69982896 71162632 72450184 73845792 
2846.166 75342480 76924040 78564104 80222744 81850536 83390976 84781472 
2849.541 85965864 86897208 87543896 87894976 87960016 87767536 87358368 
2852.916 86782936 86096696 85350152 84593104 83868232 83208456 82639488 
2856.291 82177464 81829008 81593648 81465128 81433832 81487992 81615880 
2859.667 81806728 82049568 82334352 82651432 82989880 83340144 83692104 
2863.042 84035984 84362640 84663528 84930968 85159520 85346728 85493512 
2866.417 85604912 85689416 85758000 85821504 85890712 85974144 86077424 
2869.792 86204408 86356536 86533632 86734216 86955744 87194920 87448288 
2873.167 87712992 87987072 88269616 88559928 88857312 89159416 89462904 
2876.543 89762984 90055120 90335984 90604752 90863464 91116976 91371872 
2879.918 91635920 91916736 92221888 92558440 92932608 93349896 93814056 
2883.293 94326336 94885400 95487040 96124992 96791696 97479176 98179872 
2886.668 98886392 99592576 100292176 100980456 101653784 102310208 102949864 
2890.044 103573768 104183864 104781664 105368336 105944088 106509936 
2892.937 107067536 107620880 108174928 108735640 109309016 109900312 
2895.830 110513384 111151760 111818776 112518192 113253912 114029448 
2898.723 114846632 115704928 116601552 117530688 118484920 119456712 
2901.616 120437144 121417120 122387856 123339144 124261160 125145808 
2904.509 125986232 126778600 127521888 128217384 128867504 129475608 
2907.402 130045712 130582672 131092176 131582080 132060360 132535280 
2910.295 133014072 133501384 133999464 134506848 135019568 135529552 
2913.188 136024384 136488848 136902416 137242736 137488816 137622496 
2916.081 137632720 137517504 137283728 136944736 136517856 136021536 
2918.974 135471600 134879744 134253184 133594200 132901296 132170184 
2921.867 131396976 130579192 129719112 128824176 127908928 126993088 
2924.760 126097680 125244512 124451896 123731688 123090576 122529384 
2927.654 122045456 121632736 121283440 120989456 120741040 120529232 
2930.547 120345376 120182616 120036560 119905272 119788248 119685536 
2933.440 119596200 119517832 119445976 119375568 119301040 119217976 
2936.333 119122496 119011664 118882992 118733760 118561672 118365720 
2939.226 118145976 117904144 117643448 117367632 117079840 116781920 
2942.119 116474416 116156256 115825664 115479920 115116664 114732776 
2945.012 114325272 113891472 113429760 112939920 112424696 111888904 
2947.905 111340072 110787016 110240176 109710920 109210888 108753432 
2950.798 108352896 108023248 107779000 107631664 107589632 107656920 
2953.691 107832720 108111088 108481296 108928152 109431904 109966752 
2956.584 110504712 111014744 111465760 111833048 112098848 112256376 
2959.477 112310832 112277448 112179416 112041984 111891520 111750888 
2962.370 111636000 111557080 111516256 111509016 111524360 111547064 
2965.263 111560600 111547528 111493904 111389656 111229792 111014280 
2968.156 110747336 110436936 110092816 109726656 109351000 108977120 
2971.050 108615552 108274192 107957736 107667744 107402896 107160056 
2973.943 106934296 106720648 106514128 106309440 106102112 105887936 
2976.836 105663432 105426496 105176776 104915128 104644160 104366984 
2979.729 104087392 103809024 103536168 103273288 103025008 102796472 
2982.622 102592576 102416912 102271344 102156040 102069528 102008752 
2985.515 101969824 101948624 101940120 101939032 101938776 101931568 
2988.408 101909280 101863112 101783696 101662864 101492736 101266928 
2991.301 100981496 100635504 100232328 99779520 99288872 98775152 98252440 
2994.676 97733680 97227304 96737048 96262272 95799536 95344568 94893856 
2998.052 94445760 94000632 93560400 93128000 92705960 92296952 91902656 
3001.427 91524512 91163248 90819192 90492424 90182672 89889512 89612680 
3004.802 89351896 89106648 88876136 88658872 88452072 88252112 88055000 
3008.177 87856728 87653960 87444112 87225816 86998048 86759944 86511064 
3011.552 86251048 85979632 85697976 85407632 85111264 84811808 84512152 
3014.928 84215312 83923584 83639720 83365960 83104568 82857336 82624776 
3018.303 82406048 82198608 81999064 81802808 81605928 81405296 81198248 
3021.678 80982912 80757984 80521128 80269776 80000680 79710416 79396472 
3025.053 79057392 78693528 78306744 77899728 77476184 77038648 76589336 
3028.429 76129168 75657880 75174896 74679272 74170920 73650832 73120672 
3031.804 72582840 72039592 71492632 70942808 70390344 69835032 69277320 
3035.179 68718384 68160232 67605984 67058556 66520884 65994872 65481864 
3038.554 64982272 64496212 64023516 63563996 63117296 62682800 62259912 
3041.930 61847640 61445216 61052056 60667480 60290820 59921140 59556872 
3045.305 59195984 58836340 58476352 58114956 57752576 57390008 57028608 
3048.680 56669472 56312668 55957364 55602280 55245600 54885980 54522900 
3052.055 54155996 53785280 53411016 53033144 52651784 52267172 51880252 
3055.431 51492144 51104644 50719200 50337264 49959488 49586352 49218028 
3058.806 48855092 48498468 48149348 47809276 47479156 47159332 46849708 
3062.181 46549860 46259504 45978956 45708932 45450632 45204800 44971856 
3065.556 44751308 44542292 44343684 44154740 43975192 43805396 43645992 
3068.932 43497676 43360572 43234496 43119032 43013916 42919100 42834944 
3072.307 42761888 42700576 42650972 42612632 42584708 42566212 42555652 
3075.682 42551852 42553860 42560696 42571256 42584524 42599292 42614568 
3079.057 42629404 42642784 42654444 42663800 42670712 42675428 42678020 
3082.433 42678536 42677436 42674480 42669248 42661424 42650240 42635400 
3085.808 42616832 42595268 42571660 42547248 42523200 42500436 42479168 
3089.183 42459328 42440404 42422028 42403540 42384548 42364856 42343924 
3092.558 42321608 42297608 42271896 42244180 42214964 42184400 42153000 
3095.934 42121456 42090208 42060200 42032020 42006508 41984204 41965152 
3099.309 41949096 41935560 41923844 41913516 41904720 41898008 41894468 
3102.684 41895528 41902536 41916508 41938112 41967708 42005484 42051476 
3106.059 42105648 42167860 42237864 42315108 42399304 42489948 42586900 
3109.435 42690452 42800904 42918552 43043768 43176232 43315692 43461384 
3112.810 43612400 43767276 43924340 44081644 44236616 44386616 44529624 
3116.185 44663824 44788516 44903656 45009600 45106600 45194356 45272308 
3119.560 45339284 45394456 45437828 45469872 45492608 45508028 45518660 
3122.936 45526384 45532348 45536688 45539300 45539412 45536576 45530656 
3126.311 45522228 45512184 45502360 45494264 45489520 45489076 45492796 
3129.686 45499268 45506300 45511340 45511484 45504972 45491100 45470128 
3133.061 45443088 45411340 45375844 45337076 45295036 45249364 45200204 
3136.437 45147552 45091860 45033196 44971416 44905788 44835356 44759244 
3139.812 44677008 44589028 44496292 44400308 44302400 44203600 44104452 
3143.187 44005444 43906708 43809168 43713740 43621740 43534008 43450836 
3146.562 43371924 43295776 43221028 43145928 43070000 42993244 42916944 
3149.938 42842332 42771288 42704856 42643148 42585732 42530876 42477048 
3153.313 42422756 42367156 42310136 42252652 42195976 42141244 42089296 
3156.688 42040196 41993220 41947020 41900308 41852104 41801868 41749848 
3160.063 41696376 41642252 41587808 41533372 41479160 41425320 41372472 
3163.438 41320976 41271272 41223324 41176768 41130540 41083476 41034424 
3166.814 40982712 40928316 40871812 40814116 40756428 40699696 40644460 
3170.189 40591412 40540084 40490396 40441880 40393984 40345988 40297088 
3173.564 40246956 40195192 40142024 40087584 40032172 39976112 39919552 
3176.939 39862780 39806052 39749844 39694512 39641036 39589200 39539080 
3180.315 39490488 39442588 39395240 39348480 39302736 39258704 39217360 
3183.690 39178772 39142696 39108648 39075872 39043864 39013016 38983876 
3187.065 38957632 38935164 38916860 38902544 38891528 38883088 38876344 
3190.440 38870836 38866272 38862684 38860036 38858336 38858120 38859820 
3193.816 38864424 38873048 38886200 38904176 38926172 38950852 38976840 
3197.191 39002648 39027916 39052708 39078124 39105276 39135188 39168404 
3200.566 39204668 39243800 39285180 39328312 39372928 39418532 39464940 
3203.941 39511608 39558204 39604304 39649532 39693892 39737060 39778420 
3207.317 39817312 39852720 39884356 39912216 39937060 39960056 39982504 
3210.692 40005212 40028104 40050232 40070648 40088164 40102588 40114512 
3214.067 40125088 40136244 40148856 40163572 40180436 40198280 40215800 
3217.442 40231796 40244920 40254516 40259932 40261388 40259752 40256444 
3220.818 40253244 40252084 40254628 40261204 40271640 40284872 40300176 
3224.193 40316316 40333372 40351732 40372060 40394676 40419696 40445952 
3227.568 40473300 40501200 40529716 40560416 40594684 40633868 40678588 
3230.943 40728368 40781980 40837776 40894380 40950960 41007292 41063520 
3234.319 41119684 41175928 41232140 41288144 41344080 41400464 41457364 
3237.694 41515180 41573480 41631604 41688352 41742916 41795120 41845392 
3241.069 41894468 41942964 41990996 42037968 42082428 42123392 42159648 
3244.444 42191488 42219712 42245712 42270584 42295380 42319964 42343960 
3247.820 42366756 42388160 42408108 42427032 42446140 42466272 42488048 
3251.195 42512240 42539136 42569028 42601812 42637084 42674480 42713556 
3254.570 42753992 42796040 42840320 42887976 42940096 42997120 43058660 
3257.945 43123828 43190832 43257812 43323340 43386680 43447796 43507012 
3261.321 43564704 43621080 43676072 43729752 43782232 43834092 43886068 
3264.696 43938712 43992352 44046400 44099980 44151912 44200592 44245496 
3268.071 44286072 44322436 44354692 44383060 44407392 44427396 44442628 
3271.446 44452832 44458152 44459180 44456684 44452132 44446992 44442480 
3274.822 44440164 44440680 44443840 44449196 44454996 44459328 44460500 
3278.197 44457604 44450080 44439212 44426440 44413628 44402508 44393556 
3281.572 44386692 44381188 44375828 44369772 44362252 44353260 44343020 
3284.947 44331904 44320052 44307136 44292896 44276828 44258664 44238748 
3288.323 44218020 44198500 44182064 44170000 44163136 44161124 44162220 
3291.698 44164056 44164240 44161232 44154336 44144432 44133136 44121620 
3295.073 44111384 44101960 44092316 44080760 44065800 44046768 44024176 
3298.448 43999024 43973064 43947400 43922580 43898384 43874228 43849376 
3301.823 43823608 43797624 43772412 43749432 43730008 43714804 43703992 
3305.199 43697028 43693112 43691096 43689700 43687944 43685524 43682484 
3308.574 43679372 43677060 43676696 43678820 43683692 43690876 43699452 
3311.949 43709084 43719532 43731404 43745988 43764344 43787544 43815620 
3315.324 43848460 43884896 43924012 43965512 44009404 44056008 44105996 
3318.700 44159324 44215888 44275068 44336232 44399316 44464648 44532672 
3322.075 44603860 44678260 44755164 44833260 44911152 44987184 45060616 
3325.450 45131228 45198768 45263596 45325636 45385004 45441652 45495588 
3328.825 45546880 45595824 45642420 45686148 45726676 45763420 45795484 
3332.201 45822768 45844640 45860516 45869500 45870196 45861508 45842836 
3335.576 45814484 45778144 45736876 45693508 45650628 45609076 45567820 
3338.951 45524512 45475872 45419468 45353812 45279004 45197004 45109688 
3342.326 45019560 44928020 44835356 44741208 44644252 44543464 44437488 
3345.702 44326656 44211192 44092168 43971452 43850512 43730560 43611884 
3349.077 43494232 43376500 43257228 43135680 43011648 42885560 42758560 
3352.452 42631928 42505808 42380636 42255392 42129560 42002928 41876296 
3355.827 41750796 41628324 41509892 41395648 41284864 41175928 41067088 
3359.203 40957332 40846328 40734480 40622808 40511852 40401768 40292144 
3362.578 40182584 40072536 39962528 39853340 39745812 39641072 39539440 
3365.953 39440336 39343508 39247932 39152848 39058548 38964844 38872032 
3369.328 38779928 38688464 38596832 38504856 38412108 38318148 38223412 
3372.704 38127612 38030784 37933292 37835672 37738584 37643360 37550940 
3376.079 37461932 37375980 37291664 37207584 37121540 37032328 36939352 
3379.454 36843544 36745996 36648356 36552040 36457760 36365660 36275672 
3382.829 36187396 36100828 36016116 35933324 35852528 35773404 35695700 
3386.205 35618616 35542232 35466432 35391656 35318724 35248180 35180804 
3389.580 35116748 35055572 34996668 34939064 34881468 34822948 34762820 
3392.955 34700472 34636124 34569820 34501756 34431848 34360044 34286068 
3396.330 34210240 34132812 34055256 33979068 33905696 33836168 33770876 
3399.706 33709028 33649520 33590876 33532206 33472936 33413100 33352774 
3403.081 33291488 33228568 33162866 33092920 33018012 32937902 32853302 
3406.456 32765396 32675720 32585174 32494928 32405202 32316462 32228984 
3409.831 32143022 32058578 31975400 31892520 31808800 31723566 31636208 
3413.207 31547122 31457412 31368188 31280652 31195200 31111474 31028438 
3416.582 30945278 30861208 30776302 30690912 30605468 30520078 30434740 
3419.957 30348460 30260916 30171686 30081410 29990796 29901480 29814384 
3423.332 29730212 29648894 29569508 29491094 29412376 29332714 29251898 
3426.708 29170458 29089530 29010458 28935156 28865106 28801230 28743806 
3430.083 28692088 28644588 28599358 28554486 28508770 28461608 28413356 
3433.458 28364682 28316546 28269298 28222976 28177118 28131160 28084462 
3436.833 28036782 27987798 27937266 27884478 27828728 27768536 27702526 
3440.208 27629744 27549526 27462192 27368242 27268950 27165446 27058688 
3443.584 26948890 26835772 26717888 26593876 26462606 26323420 26177592 
3446.959 26027802 25877468 25730560 25589710 25456250 25329434 25207360 
3450.334 25087250 24967070 24845624 24722984 24600450 24479142 24359690 
3453.709 24242758 24127260 24012352 23897090 23780876 23663470 23545048 
3457.085 23425396 23304136 23181268 23056266 22929382 22801240 22672998 
3460.460 22545526 22420256 22297706 22178746 22064040 21954034 21848828 
3463.835 21748524 21652110 21558330 21465472 21372010 21277002 21180380 
3467.210 21083048 20986226 20891058 20797510 20705130 20613254 20521052 
3470.586 20428556 20336742 20246714 20159866 20076644 19996490 19917842 
3473.961 19839140 19759274 19678312 19597364 19518442 19443626 19374016 
3477.336 19310064 19250522 19193758 19137798 19080632 19021260 18959090 
3480.711 18894404 18828552 18763332 18700682 18642432 18589032 18539858 
3484.087 18492348 18443186 18388116 18324104 18249144 18163352 18069146 
3487.462 17968642 17865604 17761766 17658708 17556366 17454600 17352892 
3490.837 17251244 17149962 17048948 16948334 16847468 16745111 16639885 
3494.212 16530899 16417399 16299523 16178483 16055310 15932342 15811026 
3497.588 15693007 15579244 15469734 15363547 15259033 15154133 15046891 
3500.963 14935458 14819425 14699309 14577103 14455205 14336903 14224898 
3504.338 14121720 14028181 13943969 13867130 13793792 13719987 13640963 
3507.713 13553442 13455960 13349649 13238103 13126314 13019059 12920024 
3511.089 12830259 12748600 12672175 12598049 12523766 12448029 12370941 
3514.464 12292981 12214592 12136080 12057038 11977329 11897226 11817921 
3517.839 11741320 11669497 11603812 11544669 11490945 11440118 11389297 
3521.214 11335966 11277982 11215076 11148100 11078686 11009318 10941523 
3524.590 10876560 10813678 10751382 10687296 10618737 10544384 10463900 
3527.965 10379087 10292967 10208900 10129903 10057599 9992328 9932862 
3531.340 9878048 9826969 9779150 9735131 9694673 9657066 9620512 9582268 
3535.198 9539353 9489837 9432913 9370239 9304901 9240046 9179058 9123730 
3539.055 9074297 9029774 8988841 8949502 8910201 8869550 8825995 8778691 
3542.912 8726457 8668652 8605244 8536641 8463961 8389166 8314145 8241907 
3546.770 8175186 8116137 8066041 8024795 7990268 7958579 7925102 7885623 
3550.627 7836669 7778104 7712026 7643126 7576665 7517293 7466862 7425301 
3554.485 7389945 7357626 7325612 7292084 7256941 7219983 7181747 7142268 
3558.342 7101445 7059179 7015367 6970886 6927117 6885305 6846661 6811454 
3562.199 6779177 6748653 6718029 6685053 6647302 6601648 6545773 6478201 
3566.057 6398837 6311217 6220824 6135189 6061095 6003073 5961686 5934443 
3569.914 5916674 5903307 5889637 5872709 5850544 5822805 5789560 5751383 
3573.772 5709416 5665102 5620558 5577865 5539169 5505175 5475680 5449172 
3577.629 5423573 5396700 5367681 5336418 5303948 5271515 5240460 5211519 
3581.487 5184793 5160215 5138052 5118338 5100636 5083706 5064899 5040160 
3585.344 5004730 4955461 4891118 4814992 4733687 4655880 4589941 4540819 
3589.201 4509146 4491804 4483903 4479819 4475232 4466797 4452870 4432518 
3593.059 4405605 4372135 4333647 4291314 4247613 4205657 4167652 4135404 
3596.916 4109246 4087973 4068908 4049109 4025632 3996236 3960290 3918896 
3600.774 3874932 3831842 3793334 3762317 3740326 3726825 3719739 3716164 
3604.631 3712421 3704467 3689663 3666005 3633059 3592098 3546062 3498662 
3608.489 3453772 3414397 3381737 3353988 3327443 3297528 3260170 3213335 
3612.346 3157694 3097822 3040260 2992148 2958453 2940939 2937303 2941906 
3616.203 2947611 2947044 2934034 2905346 2860551 2803654 2741430 2681949 
3620.061 2632676 2598475 2580342 2576143 2581342 2591075 2601642 2611175 
3623.918 2619942 2630209 2643310 2659312 2674414 2681282 2669213 2628109 
3627.776 2551812 2444171 2320668 2203627 2115351 2067274 2057353 2074765 
3631.633 2105695 2137459 2161534 2174521 2176852 2171657 2162633 2151744 
3635.490 2139624 2125006 2106427 2083621 2057619 2031287 2007186 1987613 
3639.348 1972701 1961618 1952132 1942280 1931097 1918950 1907202 1898150 
3643.205 1893624 1894489 1900645 1910197 1920114 1926804 1926005 1913225 
3647.063 1885570 1840747 1779093 1703377 1619227 1534660 1458621 1400213 
3650.920 1366142 1359062 1376945 1414074 1461946 1510520 1550422 1573699 
3654.778 1575628 1556241 1520861 1479300 1441600 1415869 1405033 1407227 
3658.635 1417498 1430264 1441134 1447584 1448880 1445523 1438973 1430363 
3662.492 1421188 1412811 1406761 1404767 1408623 1419027 1436081 1457690 
3666.350 1480730 1500778 1512648 1512050 1496390 1467830 1433688 1407360 
3670.207 1406595 1445489 1531900 1663961 1832461 2021799 2214717 2393360 
3674.065 2538313 2632276 2663746 2631543 2546012 2422980 2278098 2120911 
3677.922 1955593 1785747 1617131 1458621 1321871 1215930 1144697 1105066 
3681.780 1088823 1085235 1086198 1087726 1090583 1097592 1111776 1132406 
3685.637 1155196 1172737 1176658 1160511 1123204 1069358 1008776 951956 
3689.494 907063 876849 859485 851716 850422 854538 864233 879837 901020 
3693.834 925591 950428 971980 987588 996422 999610 999876 1000108 1002499 
3698.174 1007083 1012430 1015020 1011500 999378 978555 951657 923930 901485 
3702.513 889332 890196 903477 926421 954446 983703 1011267 1035977 1058197 
3706.853 1078658 1098489 1116726 1131309 1138186 1132838 1111079 1071849 
3710.710 1017079 953583 891225 841159 812178 808825 830038 870109 920975 
3715.050 973806 1021530 1059459 1085667 1101711 1110780 1116460 1121476 
3718.907 1126492 1129947 1129349 1122606 1109252 1091347 1073410 1059260 
3722.765 1052219 1052750 1058330 1064641 1067232 1063545 1053879 1041723 
3726.622 1032755 1033054 1046672 1073908 1111677 1153634 1192174 1219452 
3730.479 1230384 1223074 1200845 1170312 1140046 1116493 1101179 1089520 
3734.337 1073742 1046406 1004359 951690 898164 856796 837142 842454 870109 
3738.677 914268 968228 1027010 1087361 1147754 1204899 1253279 1283851 
3742.534 1284283 1244805 1162837 1051388 937578 855069 825623 850554 914002 
3746.874 993433 1067331 1118586 1138552 1126426 1088823 1037007 981943 
3750.731 931335 888735 855667 834553 828810 841757 874126 921938 978323 
3755.071 1033818 1081050 1114500 1132838 1138153 1135063 1127854 1119350 
3758.928 1111045 1103438 1098090 1098057 1106129 1124167 1150943 1182007 
3762.785 1210747 1230185 1236598 1229620 1214335 1197855 1187788 1188552 
3766.643 1198852 1214003 1227061 1232212 1226596 1211212 1190246 1169947 
3770.500 1155594 1150212 1154299 1166226 1183701 1204035 1225633 1247065 
3774.358 1267734 1287573 1306516 1323998 1339253 1349922 1353212 1346332 
3778.215 1327720 1299105 1265375 1234006 1213338 1208122 1219386 1242911 
3782.073 1271722 1297676 1314625 1319843 1313927 1300734 1285014 1271057 
3785.930 1260889 1254874 1252315 1252681 1256004 1262716 1272852 1285746 
3789.787 1299770 1312465 1322469 1329216 1333802 1337790 1342311 1347263 
3793.645 1350221 1348260 1338588 1320707 1297743 1275577 1262118 1263248 
3797.502 1280727 1310770 1345800 1374983 1387515 1375781 1337857 1280462 
3801.360 1217392 1167322 1145295 1156757 1197024 1253744 1311601 1355572 
3805.217 1374319 1362752 1324862 1272187 1221712 1189582 1183734 1203503 
3809.074 1240918 1286776 1333702 1378241 1420989 1464572 1510853 1558336 
3812.932 1601467 1630934 1636920 1612076 1556640 1480131 1402274 1344837 
3816.789 1323433 1342211 1392800 1459352 1522191 1564321 1573333 1545534 
3820.647 1487213 1415570 1352282 1314559 1309208 1331974 1371493 1413775 
3824.504 1447318 1465503 1467897 1459818 1449745 1447118 1457391 1480597 
3828.362 1511318 1541776 1563956 1572668 1567181 1551120 1531335 1515342 
3832.219 1508791 1514145 1530238 1553281 1577490 1597643 1608484 1605957 
3836.076 1588098 1555576 1511917 1463475 1418961 1386019 1369300 1369565 
3839.934 1382828 1403836 1426042 1444791 1457457 1463708 1465337 1464339 
3843.791 1463608 1464705 1468861 1476907 1488676 1504436 1524053 1547894 
3847.649 1576293 1609815 1648627 1692067 1737641 1780424 1812497 1822612 
3851.506 1799355 1733249 1622519 1479566 1331476 1209816 1138186 1123071 
3855.364 1155395 1218256 1294585 1372358 1443561 1505101 1556108 1597610 
3859.221 1630834 1656510 1674970 1686479 1691269 1689506 1681090 1665391 
3863.078 1641809 1611145 1576459 1544137 1522457 1518700 1536522 1573466 
3866.936 1621388 1667520 1699951 1708832 1691535 1653883 1610114 1577224 
3870.793 1566716 1580982 1613041 1651654 1685082 1705938 1712957 1710828 
3874.651 1708067 1713157 1731054 1761760 1800353 1839116 1870196 1886269 
3878.508 1883341 1860479 1821381 1773337 1726563 1690537 1672476 1674006 
3882.365 1691469 1716749 1740235 1751779 1745059 1719544 1682255 1645900 
3886.223 1624348 1627741 1657874 1708600 1768646 1825274 1867434 1887633 
3890.080 1883640 1859315 1823777 1787743 1761227 1750216 1756137 1776731 
3893.938 1807573 1844141 1881910 1916953 1946374 1967808 1979392 1980557 
3897.795 1971869 1954928 1933227 1910629 1890329 1874988 1864972 1858815 
3901.653 1853724 1846770 1835656 1819817 1801251 1783119 1770010 1765719 
3905.510 1771940 1788342 1812464 1840680 1869264 1894955 1916087 1931929 
3909.367 1943445 1952098 1959820 1968541 1979558 1993738 2011280 2031420 
3913.225 2052825 2073200 2089913 2100468 2102865 2096705 2083155 2065177 
3917.082 2046633 2031387 2021333 2017638 2019635 2026160 2035781 2047765 
3920.940 2061281 2075497 2088848 2099668 2105595 2105262 2098503 2087216 
3924.797 2074765 2065010 2060915 2063911 2072834 2085219 2097970 2108691 
3928.655 2116150 2119879 2120412 2118214 2113120 2104563 2092410 2077195 
3932.512 2060815 2046267 2036546 2033650 2038144 2048298 2061548 2075164 
3936.369 2087250 2097438 2106560 2116183 2127137 2139424 2151445 2160569 
3940.227 2164098 2160302 2149247 2132598 2114318 2098603 2089281 2089014 
3944.084 2098137 2115251 2137126 2159936 2179583 2192504 2196667 2191638 
3947.942 2179183 2162200 2144619 2130101 2120745 2117148 2118480 2122443 
3951.799 2126871 2129635 2129868 2127537 2123441 2118314 2113419 2109790 
3955.656 2108125 2109224 2113952 2122609 2135129 2150679 2167928 2184711 
3959.514 2199131 2209521 2215183 2216448 2214250 2210521 2207090 2205292 
3963.371 2206258 2209921 2215982 2223742 2232401 2241194 2249520 2256848 
3967.229 2262843 2267273 2270104 2271536 2272102 2272335 2273068 2274967 
3971.086 2278531 2283560 2289356 2295085 2299715 2302347 2302747 2301248 
3974.944 2298283 2294686 2290988 2287224 2283560 2279863 2276399 2273568 
3978.801 2271969 2272369 2274634 2278664 2283061 2286658 2288457 2288190 
3982.658 2286458 2284426 2283627 2285192 2289289 2295452 2302580 2309309 
3986.516 2314672 2317936 2319235 2318636 2316304 2312273 2306910 2299849 
3990.373 2291654 2283261 2275433 2269571 2266407 2266640 2270204 2276632 
3994.231 2285192 2294852 2305045 2314572 2323166 2330661 2336924 2342587 
3998.088 2348217 2354514 2361809 2370271 2379267 2387762 
##END=
