
##TITLE=Z197_2_b
##JCAMP-DX=5.01  $$ Nicolet v. 1
##DATATYPE=INFRARED SPECTRUM
##ORIGIN=UniL
##OWNER=Nicolet
##LONGDATE=2011/09/08
##TIME=10:31:14
##SPECTROMETER/DATA SYSTEM=Nicolet iS5
##DATA PROCESSING=
Ratio against background
%Transmittance->Absorbance
Truncated
ElementMultiply or ElementDivide
##COMMENTS=
Number of sample scans: 32
Collection length: 51.14 sec
Sample gain: 2.0
Background collected on: Jeu Sep 08 10:26:36 2011 (GMT+02:00);
Number of background scans: 32
Background gain: 2.0
Sample spacing:  1.000
Number of scan points: 12415
Resolution points: 8192
Number of FFT points: 65536
Apodization: N-B fort;
Phase correction: Mertz;
Laser frequency: 15798.0 cm-1
Number of rejected sample scans: 0
Number of rejected background scans: 0
Bench serial number: ASB1000141;
##RESOLUTION=4.000
##XUNITS=1/CM
##YUNITS=ABSORBANCE
##FIRSTX=649.893372
##LASTX=4000.122314
##FIRSTY=0.098618
##MAXX=4000.122314
##MINX=649.893372
##MAXY=0.217680
##MINY=-0.002158
##XFACTOR=1.000000
##YFACTOR=1.000000E-009
##NPOINTS=6950
##DELTAX=0.482117
##ZPD=6100
##XYDATA=(X++(Y..Y))
649.893 98617656 98705728 98873448 99138808 99490152 99897144 100329208 
653.268 100774976 101244504 101763088 102351056 103008960 103716240 
656.161 104441624 105161112 105871616 106591120 107345920 108151296 
659.054 108997392 109849696 110661184 111398184 112050432 112637224 
661.946 113193200 113755488 114347304 114975544 115636168 116323448 
664.839 117033984 117756240 118458424 119069016 119465264 119509984 
667.732 119110032 118286264 117172648 115946720 114738744 113588160 
670.624 112464616 111301368 110035952 108636368 107112992 105508192 
673.517 103877704 102262664 100676240 99111168 97553872 96003504 94479976 
676.892 93017568 91650936 90401672 89270456 88241152 87291360 86405376 
680.267 85578160 84814064 84117576 83486856 82910464 82372488 81860136 
683.642 81370928 80913960 80505176 80156904 79869520 79629568 79414416 
687.016 79202704 78981520 78751904 78525000 78314592 78127256 77960304 
690.391 77802488 77642512 77474832 77303456 77137928 76987688 76855144 
693.766 76733904 76610960 76474736 76321888 76159168 76000312 75858040 
697.141 75738864 75639224 75549280 75458360 75361904 75263312 75170248 
700.516 75088432 75015576 74939768 74845440 74719840 74560368 74376728 
703.890 74186760 74008456 73850192 73709840 73574952 73432464 73273728 
707.265 73100080 72920352 72745472 72582456 72432104 72290840 72156744 
710.640 72034304 71936224 71879024 71876592 71934232 72044792 72191880 
714.015 72351936 72502064 72619856 72682056 72664976 72544040 72301520 
717.390 71938064 71482832 70996584 70556440 70240704 70097000 70121024 
720.765 70248808 70368832 70356096 70093968 69515272 68611888 67431768 
724.139 66058404 64589128 63118516 61716196 60427736 59275200 58261076 
727.514 57375224 56599636 55915080 55301372 54742532 54229120 53757376 
730.889 53327804 52941992 52598564 52292212 52013644 51752944 51502292 
734.264 51258376 51021536 50792976 50572428 50356052 50138296 49914476 
737.639 49683712 49450584 49223708 49011744 48819388 48645240 48482608 
741.013 48323332 48161232 47995304 47829992 47672028 47527540 47398216 
744.388 47282340 47175732 47075132 46979424 46890124 46808892 46735972 
747.763 46668856 46603452 46535844 46465440 46394976 46329504 46272328 
751.138 46223532 46177944 46128456 46068140 45994904 45912144 45826524 
754.513 45745636 45672936 45607052 45543132 45476860 45407332 45339172 
757.888 45280036 45237416 45214472 45208992 45214652 45225168 45238516 
761.262 45257640 45289264 45339724 45411784 45502656 45606572 45719352 
764.637 45842948 45986952 46166596 46396784 46688268 47044408 47463116 
768.012 47941612 48483016 49101336 49826092 50701924 51790012 53174756 
771.387 54954604 57238620 60130428 63688128 67887184 72569568 77442160 
774.762 82053488 85848192 88306312 89005168 87756096 84646968 80030080 
778.136 74437400 68436640 62584280 57298504 52823020 49253728 46551260 
781.511 44597032 43232300 42307652 41697980 41305636 41066800 40938072 
784.886 40889140 40900136 40955620 41044184 41158480 41294372 41450760 
788.261 41629048 41832552 42065272 42331284 42634012 42976052 43359184 
791.636 43785276 44256868 44776840 45348404 45974796 46658456 47402652 
795.010 48211620 49092836 50057972 51122120 52303912 53624272 55104104 
798.385 56767976 58646636 60776692 63208228 66001772 69220040 72925248 
801.760 77160400 81935520 87207992 92868504 98737928 104543360 109950880 
805.135 114592640 118088616 120142200 120583120 119411080 116798392 
808.028 113067008 108643896 103958392 99427240 95397720 92096816 89645872 
811.402 88042144 87177136 86843912 86771280 86677736 86280064 85358784 
814.777 83788416 81538000 78674376 75332160 71695456 67950880 64268596 
818.152 60792624 57617976 54799028 52353696 50270224 48518252 47056632 
821.527 45843388 44837668 44003060 43311404 42739332 42268684 41886040 
824.902 41580336 41343204 41169444 41056056 41002700 41011044 41083696 
828.277 41223360 41431920 41710236 42057096 42468572 42936036 43447172 
831.651 43984616 44528156 45059476 45564216 46034064 46466548 46859676 
835.026 47205540 47485960 47669256 47714596 47584104 47249500 46705200 
838.401 45970040 45087556 44114944 43111824 42136024 41230756 40424640 
841.776 39733068 39158904 38697120 38336716 38064492 37866040 37727600 
845.151 37638556 37591440 37581540 37606000 37661392 37742380 37842324 
848.525 37953648 38071004 38192804 38321840 38463732 38624680 38809456 
851.900 39019432 39253952 39510700 39788152 40086164 40405764 40747728 
855.275 41112036 41497716 41904284 42333224 42788764 43277688 43808288 
858.650 44387976 45022316 45716224 46476948 47315964 48253568 49317756 
862.025 50542428 51967292 53632144 55573544 57823128 60397312 63287488 
865.400 66442648 69761920 73079144 76161184 78752744 80590376 81458688 
868.774 81246064 79955872 77717280 74743496 71314424 67717352 64194688 
872.149 60945712 58094544 55694780 53748412 52218032 51047208 50169984 
875.524 49526712 49067348 48751284 48550520 48444340 48416632 48455044 
878.899 48548300 48686676 48863848 49076288 49323692 49607528 49929716 
882.274 50291316 50691684 51129764 51604448 52115136 52662672 53247600 
885.648 53870152 54529588 55224868 55956276 56726556 57540836 58407476 
889.023 59336692 60340312 61432396 62630212 63951180 65410628 67011812 
892.398 68737168 70536056 72320816 73980560 75383704 76408592 76971424 
895.773 77032240 76606216 75751560 74558240 73125016 71544784 69904888 
899.148 68275192 66713400 65268404 63974216 62852756 61911484 61144276 
902.523 60534640 60060912 59703100 59444356 59272960 59181096 59161692 
905.897 59207568 59312764 59472588 59686332 59957088 60290364 60691180 
909.272 61162660 61705768 62321908 63015000 63794732 64674908 65671912 
912.647 66800804 68071792 69490496 71059640 72781008 74657232 76689664 
916.022 78874152 81196008 83626904 86128288 88650456 91138928 93537008 
919.397 95773512 97761352 99395120 100546328 101092928 100945792 100076176 
922.771 98540992 96483536 94126256 91715832 89502072 87706176 86480456 
926.146 85919384 86057952 86881792 88337872 90339664 92779264 95515528 
929.521 98386448 101228656 103870120 106156896 107964104 109186720 109751696 
932.896 109617632 108776888 107265320 105169856 102639488 99866624 97085248 
936.271 94557456 92523672 91203672 90773536 91341248 92953416 95580352 
939.646 99117952 103363736 108016280 112707824 116985224 120387520 122524552 
943.020 123104560 122018992 119352064 115374120 110472920 105079648 99625040 
946.395 94443248 89766776 85727648 82361752 79642744 77505328 75871936 
949.770 74661400 73797920 73219328 72870424 72705600 72690712 72798168 
953.145 73008384 73308288 73687224 74136096 74646096 75207872 75812632 
956.520 76453120 77123600 77820048 78538384 79274200 80021920 80775464 
959.894 81529688 82281256 83029792 83776768 84523584 85270960 86017800 
963.269 86761408 87499712 88232384 88961648 89691816 90427752 91172648 
966.644 91927552 92691688 93463704 94243920 95035120 95842128 96670936 
970.019 97526288 98411216 99327856 100278152 101266432 102299768 103386152 
973.394 104533960 105748680 107032088 108383472 109801144 111285144 
976.286 112837296 114461096 116157856 117924352 119750832 121622648 
979.179 123521016 125427008 127324208 129195648 131024256 132789224 
982.072 134465376 136027936 137455888 138737696 139874240 140878048 
984.964 141769536 142570096 143300688 143980064 144624656 145252176 
987.857 145881360 146528352 147205408 147915952 148655184 149411792 
990.750 150174048 150934400 151691712 152449824 153213840 153985072 
993.643 154759648 155528896 156282864 157014800 157722192 158404432 
996.535 159059760 159680944 160254912 160766912 161204976 161566384 
999.428 161859600 162102992 162319136 162528288 162747488 162989472 
1002.321 163265584 163590416 163980976 164453648 165021104 165686592 
1005.213 166444288 167282544 168191360 169167936 170220048 171363744 
1008.106 172618816 174003728 175530720 177207904 179039232 181024832 
1010.999 183153920 185393888 187682560 189912000 191939440 193611424 
1013.891 194778992 195345376 195286320 194659760 193590272 192244720 
1016.784 190809024 189442784 188271952 187380416 186803312 186540736 
1019.677 186564400 186832400 187294928 187905312 188629200 189443504 
1022.570 190338368 191312048 192364048 193490528 194681360 195921712 
1025.462 197196624 198496080 199814992 201152672 202507904 203874336 
1028.355 205240032 206588688 207903840 209174432 210393760 211557200 
1031.249 212657632 213680752 214604880 215408160 216073024 216594720 
1034.142 216982704 217257824 217445264 217566592 217638976 217673616 
1037.035 217679536 217666256 217641792 217607984 217553168 217449648 
1039.928 217253824 216909760 216364800 215573584 214503632 213137888 
1042.821 211469536 209501152 207244704 204726608 201991872 199100368 
1045.714 196128816 193157648 190257408 187488112 184892144 182494816 
1048.607 180312896 178355376 176625200 175118080 173819632 172704560 
1051.500 171738032 170882704 170104832 169377344 168683600 168012832 
1054.393 167355248 166698448 166024464 165311328 164538384 163685648 
1057.286 162735872 161673008 160477568 159127872 157602864 155886032 
1060.179 153973840 151877392 149623824 147249088 144791712 142289296 
1063.072 139772288 137266608 134796112 132382128 130044952 127802368 
1065.965 125665856 123640720 121726656 119920728 118220144 116625256 
1068.858 115138560 113764096 112503424 111354120 110309072 109357648 
1071.751 108489288 107693640 106962776 106289472 105665208 105079992 
1074.645 104521656 103978472 103442352 102910600 102387296 101881544 
1077.538 101405632 100973008 100595824 100285080 100050768 99900656 99840144 
1080.913 99868624 99978352 100151320 100361264 100576864 100763440 100889824 
1084.288 100932248 100873984 100709336 100442344 100089064 99675304 99236984 
1087.663 98818752 98465248 98220080 98121088 98195616 98463712 98939904 
1091.039 99636080 100565880 101745496 103191376 104918928 106936376 
1093.932 109239768 111805656 114586000 117505320 120448248 123268856 
1096.825 125798776 127849016 129253072 129886192 129688336 128681912 
1099.718 126967248 124709416 122094128 119316176 116551064 113928512 
1102.611 111542904 109447808 107661256 106178384 104977696 104030840 
1105.504 103305144 102770528 102401888 102177336 102078912 102090016 
1108.397 102191176 102360200 102571848 102797400 103010808 103189528 
1111.290 103316320 103381936 103382360 103317544 103187304 102986784 
1114.183 102700680 102301360 101744320 100973512 99934600 98583312 96904504 
1117.558 94922424 92704648 90351496 87974776 85687480 83574288 81684536 
1120.934 80033264 78605280 77368624 76285144 75324000 74463800 73694840 
1124.309 73017752 72441376 71981936 71659696 71499392 71524352 71749160 
1127.684 72171768 72763144 73466088 74186912 74807808 75203024 75243296 
1131.059 74824536 73880904 72391776 70389248 67953136 65206216 62285844 
1134.435 59333504 56479128 53818060 51415228 49304020 47490208 45962232 
1137.810 44698604 43675560 42868664 42255136 41815328 41529508 41379360 
1141.185 41349216 41424408 41593280 41845720 42171368 42558980 42996248 
1144.560 43468596 43962800 44467620 44974832 45479992 45981424 46478568 
1147.936 46972408 47464484 47958188 48458752 48973096 49508660 50070504 
1151.311 50660368 51275752 51911020 52558916 53212656 53867976 54521660 
1154.686 55171140 55812888 56441280 57048784 57627020 58167008 58660216 
1158.061 59097188 59466280 59754080 59944536 60020888 59969416 59779596 
1161.437 59445952 58967596 58346532 57586688 56693484 55674816 54541460 
1164.812 53307384 51990672 50610884 49187192 47738448 46280696 44827676 
1168.187 43392608 41987124 40622776 39310644 38059680 36876800 35766244 
1171.562 34728828 33764144 32870528 32046270 31290054 30600422 29975140 
1174.938 29411136 28903778 28448342 28040104 27675720 27352644 27068844 
1178.313 26821884 26608422 26424434 26266602 26133956 26029456 25959278 
1181.688 25932228 25957798 26043388 26194062 26412742 26700764 27059818 
1185.063 27492054 28000096 28586016 29251686 29999318 30834386 31767804 
1188.438 32817316 34007484 35364192 36907212 38643076 40557364 42611460 
1191.814 44740364 46864660 48894884 50741584 52334856 53628544 54610664 
1195.189 55304872 55770084 56093188 56369368 56701488 57180636 57871468 
1198.564 58810772 59996424 61389072 62908016 64442708 65865636 67033848 
1201.939 67818392 68115936 67855776 67013124 65605588 63690016 61348352 
1205.315 58683768 55813036 52846780 49892768 47044776 44370508 41917676 
1208.690 39709108 37746068 36014168 34489204 33144914 31955142 30899132 
1212.065 29962288 29134492 28409288 27782418 27250250 26809830 26459506 
1215.440 26197582 26023124 25934232 25927338 25997444 26138284 26343522 
1218.816 26608706 26931580 27311678 27748862 28242742 28790572 29387982 
1222.191 30029284 30708550 31420474 32159220 32918136 33689476 34463484 
1225.566 35231468 35987388 36730092 37464392 38199968 38950132 39728712 
1228.941 40548412 41421020 42356052 43362404 44447508 45616804 46872444 
1232.317 48213024 49634048 51130028 52696856 54334436 56046664 57840844 
1235.692 59725072 61706836 63791156 65980912 68276200 70672688 73157880 
1239.067 75703160 78261944 80762776 83109104 85196568 86915392 88168856 
1242.442 88893784 89065600 88710408 87900216 86756352 85431952 84086376 
1245.818 82884760 81968248 81441944 81382072 81828968 82798192 84289936 
1249.193 86298096 88814376 91826432 95312288 99227408 103487560 107970016 
1252.568 112496432 116833560 120726160 123888024 126038672 126953136 
1255.461 126470464 124536848 121211600 116663656 111141328 104922552 
1258.354 98309152 91575240 84950752 78632960 72762240 67428936 62681080 
1261.729 58523476 54928804 51845452 49211052 46957384 45017316 43334872 
1265.105 41862396 40562964 39412072 38393216 37497512 36723172 36074256 
1268.480 35560680 35195932 34997060 34979788 35154324 35521768 36069252 
1271.855 36768788 37573376 38423112 39247208 39965468 40503964 40798644 
1275.230 40804980 40508584 39925728 39102956 38102868 36999244 35862964 
1278.606 34747888 33693452 32720380 31834684 31034098 30312218 29662448 
1281.981 29078866 28556078 28089164 27672858 27301972 26972760 26682406 
1285.356 26430066 26214758 26035120 25888968 25773240 25685034 25622432 
1288.731 25584368 25570276 25578464 25605034 25643908 25688268 25731896 
1292.107 25771448 25807382 25843776 25886190 25940212 26010108 26098698 
1295.482 26207824 26339508 26495814 26678990 26889912 27128234 27391638 
1298.857 27676886 27981826 28306220 28651524 29020412 29414718 29834328 
1302.232 30277080 30739666 31219374 31715650 32230054 32764896 33321756 
1305.608 33899892 34495660 35103960 35719440 36338212 36957860 37576372 
1308.983 38191032 38796596 39386028 39952388 40489740 40995420 41469828 
1312.358 41915996 42337968 42739736 43125512 43499616 43865612 44225316 
1315.733 44575076 44902956 45184392 45384928 45465420 45386880 45123768 
1319.109 44668676 44035508 43255432 42370480 41426816 40464100 39515056 
1322.484 38604656 37749860 36963884 36257592 35638180 35110064 34673520 
1325.859 34325620 34060772 33873384 33758484 33711860 33728976 33804864 
1329.234 33932244 34103280 34310380 34546712 34806576 35083912 35370412 
1332.610 35654836 35923532 36161756 36358096 36504860 36600264 36646336 
1335.985 36646988 36605600 36523852 36402196 36241924 36046928 35825360 
1339.360 35588584 35347912 35112904 34888612 34675532 34472056 34276460 
1342.735 34089012 33912756 33751784 33610460 33492838 33401686 33340574 
1346.111 33314564 33330198 33395212 33516854 33700004 33946860 34257636 
1349.486 34631856 35069580 35570640 36133812 36753424 37418668 38115024 
1352.861 38825072 39533056 40226488 40895256 41529764 42117952 42641324 
1356.236 43079148 43409492 43615840 43692192 43645772 43496832 43273480 
1359.612 43010624 42744852 42509352 42337788 42261744 42309480 42507012 
1362.987 42872836 43414876 44130900 45007872 46024044 47146076 48329668 
1366.362 49516348 50628684 51585300 52308804 52741976 52865456 52699292 
1369.737 52298940 51734432 51081572 50407252 49759096 49171752 48665812 
1373.113 48251052 47927140 47680940 47485480 47296716 47061796 46729328 
1376.488 46255044 45615700 44812472 43874080 42849756 41801940 40796172 
1379.863 39884500 39104880 38481940 38029448 37757668 37675452 37789804 
1383.238 38109200 38646880 39426152 40486144 41877356 43646248 45810472 
1386.614 48326780 51077696 53867044 56466788 58665788 60295160 61263148 
1389.989 61547792 61187764 60264628 58890220 57195112 55303292 53342376 
1393.364 51440588 49715144 48276232 47204136 46533188 46248484 46295848 
1396.739 46605852 47104304 47727836 48428968 49170420 49926704 50681068 
1400.115 51420936 52135908 52814560 53442044 54003560 54485376 54879140 
1403.490 55185964 55417296 55592600 55733056 55858028 55982208 56114376 
1406.865 56261180 56426868 56612320 56811144 57006204 57171152 57271056 
1410.240 57273324 57157584 56920072 56575216 56148576 55670336 55164704 
1413.615 54648468 54131828 53620224 53117572 52626612 52146108 51669080 
1416.991 51183292 50675636 50141640 49596976 49080000 48644348 48335704 
1420.366 48172524 48142424 48210360 48335256 48480608 48626448 48771004 
1423.741 48929372 49123332 49369724 49672568 50019752 50388832 50754240 
1427.116 51096220 51401984 51666840 51892868 52088312 52267920 52452464 
1430.492 52672208 52963928 53362308 53897088 54584216 55426556 56419172 
1433.867 57559000 58854288 60324476 61993912 63872756 65936440 68116592 
1437.242 70319944 72461184 74486960 76372408 78101920 79654520 80987784 
1440.617 82040120 82750272 83064528 82955464 82426968 81510776 80258696 
1443.993 78730024 76990064 75096232 73090832 71004384 68856000 66666960 
1447.368 64478376 62356716 60388780 58666168 57255936 56192732 55475796 
1450.743 55077244 54948056 55021956 55224908 55470228 55666080 55725556 
1454.118 55556752 55069456 54183812 52854416 51117128 49119772 47116048 
1457.494 45361904 44011712 43089432 42528864 42239760 42143912 42189732 
1460.869 42343668 42579152 42870640 43188088 43496976 43766104 43970608 
1464.244 44101448 44168348 44199456 44231772 44298880 44427948 44635216 
1467.619 44927580 45304380 45758156 46274912 46830812 47392344 47913972 
1470.995 48332596 48578312 48587724 48325296 47800624 47062428 46178056 
1474.370 45206268 44192812 43173560 42180896 41253784 40433988 39755216 
1477.745 39239412 38890440 38698060 38645396 38716784 38904284 39208984 
1481.120 39640236 40209988 40928172 41797564 42813592 43966868 45250652 
1484.496 46665540 48223688 49949340 51873340 54024908 56423432 59074224 
1487.871 61971972 65108896 68482688 72097432 75948888 80017216 84250472 
1491.246 88570208 92886688 97118232 101202544 105077880 108684192 111944944 
1494.621 114749008 116976632 118524056 119349272 119499424 119111512 
1497.514 118374944 117463680 116520120 115644344 114900464 114340832 
1500.407 114009240 113935712 114133464 114586992 115252128 116044960 
1503.301 116842928 117481048 117714224 117221608 115625712 112572808 
1506.194 107934152 101957544 95223048 88358736 81773928 75587336 69732232 
1509.569 64087144 58567836 53158356 47928548 43005280 38514416 34561492 
1512.944 31189966 28379892 26069776 24177140 22621056 21325514 20230954 
1516.319 19296244 18495772 17821242 17273170 16849880 16539952 16318444 
1519.695 16147118 15986895 15809171 15613830 15430833 15306327 15275369 
1523.070 15343191 15488928 15678165 15880926 16078861 16273070 16479548 
1526.445 16720731 17011388 17351754 17729940 18130150 18542452 18966014 
1529.820 19409426 19884542 20399592 20955764 21545550 22155978 22774912 
1533.196 23395954 24021492 24656488 25304426 25959980 26610714 27237304 
1536.571 27818800 28337378 28776092 29122694 29368342 29507018 29533724 
1539.946 29446166 29252004 28970928 28632058 28263642 27881192 27482664 
1543.321 27050648 26564214 26010986 25399160 24757290 24124456 23531790 
1546.697 22987580 22476850 21968462 21431392 20847776 20225262 19593656 
1550.072 18994950 18460818 18000518 17600288 17235592 16884256 16537784 
1553.447 16204655 15905121 15659239 15474266 15340617 15232917 15119137 
1556.822 14961178 14718059 14352690 13845304 13219487 12548867 11927672 
1560.198 11421748 11048164 10788745 10609739 10476424 10357470 10230746 
1563.573 10086425 9928420 9773389 9642431 9552528 9507414 9497627 9504637 
1567.430 9511038 9505992 9490176 9474869 9477815 9514357 9591108 9706566 
1571.288 9855134 10031998 10234682 10461795 10710763 10975232 11246086 
1574.663 11515407 11780980 12051519 12344896 12682171 13074374 13519875 
1578.038 14009359 14533075 15086443 15671125 16292781 16955086 17654428 
1581.413 18377850 19101648 19795928 20431752 20981810 21424188 21742812 
1584.789 21926570 21969856 21873706 21647200 21307416 20879236 20394108 
1588.164 19883086 19372492 18879074 18407060 17950960 17500410 17046776 
1591.539 16586283 16120020 15651578 15184294 14719293 14258041 13804873 
1594.914 13371142 12973038 12629568 12354577 12152367 12016944 11935709 
1598.290 11896648 11893446 11927672 12006247 12136932 12322227 12559406 
1601.665 12841760 13165588 13533856 13958032 14454075 15038488 15722552 
1605.040 16510695 17402588 18396586 19491966 20686538 21972538 23332176 
1608.415 24732842 26131774 27483934 28747134 29894132 30915176 31817928 
1611.791 32621962 33350342 34021536 34642264 35206208 35693320 36076380 
1615.166 36323256 36405692 36306508 36024644 35572620 34968152 34223972 
1618.541 33345188 32331702 31181068 29892286 28465430 26909054 25240508 
1621.916 23492580 21722816 20005684 18420198 17030890 15868999 14930382 
1625.292 14183405 13585748 13094315 12674768 12307263 11984822 11710479 
1628.667 11491217 11332123 11232723 11186924 11184103 11211744 11257987 
1632.042 11310425 11356576 11383515 11376032 11319947 11205794 11036303 
1635.417 10831037 10622812 10446250 10321536 10250457 10220163 10212122 
1638.792 10207781 10193296 10162124 10114538 10056514 9996193 9940557 
1642.168 9892013 9847745 9799822 9738113 9651984 9532239 9373523 9176622 
1646.025 8951127 8715369 8493762 8310937 8183188 8115900 8103579 8133253 
1649.883 8185855 8236403 8255922 8208579 8059527 7793689 7439660 7073593 
1653.740 6776788 6590815 6505780 6487416 6499995 6518965 6530502 6528787 
1657.597 6513583 6486676 6450355 6405562 6351998 6288020 6211346 6120269 
1661.455 6014529 5895985 5770757 5648083 5538666 5451890 5393043 5361777 
1665.312 5352351 5355370 5360133 5355068 5330849 5281979 5207997 5114247 
1669.170 5010462 4909482 4822531 4757437 4717776 4701564 4702938 4711579 
1673.027 4714962 4699487 4653770 4574805 4471617 4364906 4277126 4223925 
1676.885 4207363 4218036 4240855 4262537 4276289 4282748 4289440 4305503 
1680.742 4336525 4379766 4423480 4448050 4433288 4365207 4248183 4108376 
1684.599 3985369 3910771 3892617 3919765 3972829 4034694 4092522 4139218 
1688.457 4171934 4190836 4198665 4199936 4201843 4211880 4236338 4278197 
1692.314 4334952 4398543 4455247 4490063 4490432 4453238 4389573 4325180 
1696.172 4288972 4296735 4345093 4413873 4476371 4504191 4476136 4387498 
1700.029 4259224 4132895 4048607 4025765 4056600 4119415 4188795 4244201 
1703.886 4271705 4264344 4224126 4161095 4090849 4026936 3978212 3946480 
1707.744 3928124 3917559 3909668 3901744 3893888 3888238 3887101 3892116 
1711.601 3902714 3916823 3931534 3944173 3953502 3959220 3961360 3958618 
1715.459 3947283 3922340 3879245 3818671 3748314 3683047 3639040 3626544 
1719.316 3646692 3692638 3753126 3817000 3875400 3924379 3963533 3995868 
1723.174 4026100 4058708 4096903 4142094 4194483 4253469 4317516 4384452 
1727.031 4450460 4511523 4563220 4603938 4634881 4660770 4687228 4718178 
1730.888 4751742 4779815 4786615 4752613 4662210 4512193 4321532 4127610 
1734.746 3972561 3881250 3852968 3869382 3905689 3939793 3954137 3939459 
1738.603 3894924 3828131 3752391 3681443 3625107 3586318 3562498 3548033 
1742.461 3537510 3527288 3516165 3504808 3495422 3490078 3490178 3496190 
1746.318 3507480 3523046 3541051 3560059 3578199 3593033 3601619 3601552 
1750.176 3590995 3570917 3545862 3523614 3512524 3518303 3541719 3578600 
1754.033 3620596 3656783 3677801 3677633 3657017 3622935 3587220 3560861 
1757.890 3549703 3552543 3562732 3571117 3568812 3550639 3516265 3470471 
1761.748 3421443 3377964 3347444 3333921 3337727 3356693 3386345 3421009 
1765.605 3453605 3477352 3487439 3482696 3466731 3446992 3430961 3422479 
1769.463 3419239 3412694 3392123 3347711 3276695 3186065 3092249 3013735 
1773.320 2962656 2941005 2941539 2953382 2966426 2975400 2979570 2980972 
1777.177 2982306 2984308 2984608 2979871 2967460 2947244 2922825 2900309 
1781.035 2885299 2880296 2883765 2890736 2895773 2894505 2885266 2869689 
1784.892 2851178 2833369 2818561 2808156 2802787 2802954 2809190 2821930 
1788.750 2839906 2859350 2874559 2878395 2865454 2833436 2786013 2731660 
1792.607 2680315 2640143 2614942 2602942 2599642 2600575 2602242 2602975 
1796.465 2602475 2600708 2597375 2591809 2582842 2570177 2553745 2534981 
1800.322 2515218 2495922 2477893 2461665 2447337 2435475 2426811 2422047 
1804.179 2421314 2424046 2429344 2435608 2441906 2447670 2452868 2457233 
1808.037 2460099 2459899 2455134 2444671 2428844 2409419 2389328 2371937 
1811.894 2358678 2349950 2344320 2339623 2334226 2327763 2321434 2316737 
1815.752 2315904 2320068 2329695 2344053 2361943 2382332 2403821 2425812 
1819.609 2447537 2468430 2487957 2506286 2523416 2538713 2551078 2558278 
1823.467 2558144 2549379 2533314 2514484 2499488 2494489 2502154 2520450 
1827.324 2542713 2559377 2561211 2543446 2507253 2461099 2416549 2384231 
1831.181 2368906 2368639 2376102 2382998 2383098 2373736 2356213 2334192 
1835.039 2312074 2292387 2276166 2262377 2250386 2240361 2233600 2232401 
1838.896 2238596 2252884 2274367 2300615 2328429 2354314 2374203 2384331 
1842.754 2381799 2365907 2339756 2310075 2286791 2278531 2290089 2321034 
1846.611 2366340 2418581 2470929 2519150 2562844 2604409 2647811 2695285 
1850.469 2746765 2799019 2847910 2889802 2923793 2952114 2978336 3005861 
1854.326 3036190 3068657 3101026 3131795 3160965 3191138 3226621 3270619 
1858.183 3325106 3389451 3461621 3538780 3619628 3703498 3790159 3878509 
1862.041 3966007 4048340 4121321 4181603 4228341 4262135 4284287 4294694 
1865.898 4290645 4267322 4218906 4142094 4038641 3917157 3790961 3674325 
1869.756 3578801 3508783 3461788 3431128 3409220 3389017 3365608 3335657 
1873.613 3296994 3248319 3188835 3119514 3042830 2962423 2882664 2806722 
1877.470 2735595 2668180 2601808 2533981 2463798 2391994 2320934 2253217 
1881.328 2190273 2132099 2078161 2027625 1981489 1941980 1911728 1892559 
1885.185 1884272 1884006 1887633 1890595 1890129 1885004 1876519 1866768 
1889.043 1858250 1853724 1855022 1864472 1883507 1912593 1949669 1990609 
1892.900 2028723 2056854 2070170 2067207 2051427 2029589 2009216 1996234 
1896.758 1991940 1994337 1999530 2004123 2006687 2009083 2013577 2022365 
1900.615 2035981 2052925 2070836 2088482 2106694 2127970 2154741 2188941 
1904.472 2228937 2271769 2313406 2350816 2383232 2412451 2440473 2468763 
1908.330 2496722 2522016 2541646 2554011 2559444 2560344 2559711 2559511 
1912.187 2560211 2560344 2559577 2558044 2557611 2560944 2569143 2580842 
1916.045 2591842 2596242 2589609 2571410 2545946 2521316 2504553 2499988 
1919.902 2505986 2517484 2527349 2531015 2528115 2522116 2518950 2523649 
1923.760 2538080 2560211 2586209 2612842 2639010 2666046 2696351 2730560 
1927.617 2767573 2803154 2832368 2852179 2862418 2866021 2867722 2871557 
1931.474 2879029 2889335 2899842 2908915 2916154 2923392 2932165 2943507 
1935.332 2956251 2967927 2976301 2981672 2986910 2996919 3015370 3042930 
1939.189 3075964 3108134 3132663 3146146 3150552 3151887 3159063 3178688 
1943.047 3212100 3255329 3301134 3342202 3374357 3397866 3415599 3431796 
1946.904 3449230 3469102 3491714 3517468 3548200 3586451 3634830 3693239 
1950.761 3758942 3826192 3888706 3942167 3985135 4019445 4048908 4077069 
1954.619 4105834 4134835 4162500 4187658 4209973 4230416 4250826 4272341 
1958.476 4295296 4319692 4346699 4377657 4415547 4461105 4513432 4567941 
1962.334 4618170 4656550 4680363 4689071 4688100 4683578 4681401 4683846 
1966.191 4690109 4697310 4704378 4713020 4728026 4754590 4795293 4846888 
1970.049 4902177 4952143 4990016 5014919 5032249 5050887 5079280 5123199 
1973.906 5183016 5255685 5338598 5431558 5537793 5659966 5798727 5946603 
1977.763 6090765 6215178 6307014 6359496 6375333 6362858 6333809 6298475 
1981.621 6263682 6232959 6207245 6187449 6174039 6168460 6170207 6178207 
1985.478 6190406 6204623 6221362 6243547 6275716 6322277 6383907 6457047 
1989.336 6534135 6607838 6673041 6730481 6786480 6849455 6928161 7025267 
1993.193 7138091 7259435 7381082 7496830 7603167 7700998 7792238 7878775 
1997.051 7961447 8040152 8114787 8186260 8256632 8328263 8402712 8479469 
2000.908 8555970 8628362 8693125 8748195 8792994 8829546 8858864 8883314 
2004.765 8905838 8929851 8960361 9003150 9062760 9141800 9237981 9346913 
2008.623 9461221 9576577 9690676 9806600 9928420 10061601 10206492 10360898 
2012.480 10517871 10670860 10816123 10952431 11082867 11211370 11341067 
2015.855 11472947 11605479 11736588 11864603 11988671 12108993 12224237 
2019.231 12331874 12427775 12506714 12565749 12603882 12622642 12625099 
2022.606 12614320 12591057 12554631 12502486 12433708 12347998 12248638 
2025.981 12139590 12026584 11913675 11803110 11696693 11594521 11497477 
2029.356 11406135 11321988 11244589 11174107 11109244 11048844 10993210 
2032.732 10944548 10905134 10878089 10864363 10862460 10868406 10877647 
2036.107 10886888 10894295 10900750 10907614 10915836 10925690 10935442 
2039.482 10943800 10950359 10956407 10963237 10972514 10984068 10995215 
2042.857 11002589 11002080 10991782 10971121 10941354 10904623 10862019 
2046.233 10814595 10762251 10706619 10650350 10596022 10545470 10497029 
2049.608 10444791 10380207 10294800 10183595 10047698 9894386 9733606 
2052.983 9576306 9429256 9293052 9163187 9032109 8893257 8743970 8586960 
2056.841 8428521 8275745 8133624 8002924 7881440 7766466 7655772 7550197 
2060.698 7452603 7366118 7292286 7229719 7175110 7124012 7074266 7025536 
2064.555 6978597 6935669 6896280 6857567 6815930 6767162 6709819 6644913 
2068.413 6576653 6508538 6443494 6380511 6316663 6247715 6170745 6084784 
2072.270 5992154 5896018 5799567 5704917 5612972 5524135 5439174 5359530 
2076.128 5286608 5220841 5160550 5101977 5040327 4971984 4896379 4816131 
2079.985 4736601 4663281 4600255 4548018 4504828 4467231 4432886 4400350 
2083.843 4370361 4343921 4320662 4298509 4274181 4244569 4207564 4163905 
2087.700 4116304 4068206 4021117 3975203 3928391 3877974 3822381 3761816 
2091.557 3699087 3637603 3579937 3527489 3479523 3434735 3392123 3352319 
2095.415 3316859 3287445 3265178 3249454 3238204 3229224 3220545 3211866 
2099.272 3203188 3194609 3184529 3171512 3152821 3128158 3098556 3068089 
2103.130 3041462 3023044 3013434 3011065 3012300 3012834 3010365 3005727 
2106.987 3000956 2998354 2998654 3000289 2999755 2994417 2983607 2969228 
2110.844 2956118 2949279 2951314 2962222 2978136 2993950 3005160 3009564 
2114.702 3007529 3001623 2994450 2988178 2983107 2978837 2974666 2970429 
2118.559 2966426 2962156 2956818 2947611 2932132 2908048 2875693 2837705 
2122.417 2798885 2764605 2738296 2721091 2710821 2703553 2694985 2682516 
2126.274 2665013 2643177 2618309 2591642 2563777 2535114 2506120 2478127 
2130.132 2452602 2431543 2416149 2407486 2406220 2412384 2427278 2451335 
2133.989 2484125 2523683 2565877 2605442 2637843 2660812 2675581 2686016 
2137.846 2697118 2711622 2730060 2749633 2766405 2776743 2779977 2776843 
2141.704 2768940 2757035 2739396 2711888 2671680 2617309 2553178 2487158 
2145.561 2428644 2385264 2359910 2349317 2346285 2343187 2334093 2317337 
2149.419 2294352 2265840 2231402 2188374 2132032 2059950 1973201 1877251 
2153.276 1780524 1690338 1611710 1545367 1490505 1448182 1424180 1430197 
2157.134 1480464 1584607 1743362 1942646 2158537 2364475 2539613 2673414 
2160.991 2768640 2834570 2882698 2922125 2958052 2991347 3021409 3047601 
2164.848 3069724 3088245 3102527 3111471 3113574 3107533 3092950 3071426 
2168.706 3045032 3014002 2979070 2939271 2894305 2846109 2799052 2759403 
2172.563 2733128 2723791 2730994 2750133 2775709 2802220 2827633 2852012 
2176.421 2876961 2903278 2929030 2950647 2963223 2965192 2958519 2949846 
2180.278 2947711 2960254 2991948 3041662 3104063 3172246 3238738 3298863 
2184.135 3349314 3389050 3417903 3435737 3443753 3444120 3439812 3433800 
2187.993 3428323 3422345 3413094 3396397 3368981 3330882 3285376 3239039 
2191.850 3198214 3168241 3149584 3140306 3136034 3134065 3132897 3133998 
2195.708 3138036 3145779 3155258 3161966 3161332 3151319 3132563 3109569 
2199.565 3087711 3072627 3066521 3069024 3077299 3087410 3097321 3106532 
2203.423 3115042 3123719 3132396 3139838 3145011 3148816 3153422 3162834 
2207.280 3180824 3209530 3248252 3293522 3340899 3386546 3428056 3464827 
2211.137 3498161 3529426 3558990 3586318 3611375 3633393 3653274 3672086 
2214.995 3689831 3705771 3717467 3721511 3715763 3700323 3677233 3649966 
2218.852 3621732 3593835 3565204 3533335 3495789 3452403 3405480 3359531 
2222.710 3319964 3290383 3271988 3262540 3259436 3259169 3259970 3261739 
2226.567 3264243 3267581 3270386 3271087 3268850 3264610 3261405 3262874 
2230.425 3272389 3291185 3316959 3345440 3371352 3390753 3402007 3406883 
2234.282 3408319 3409855 3414898 3424415 3439711 3460953 3488441 3522011 
2238.139 3560594 3601285 3639742 3671552 3694075 3706840 3712922 3716030 
2241.997 3720943 3730501 3744938 3762117 3780466 3797813 3814025 3829970 
2245.854 3846583 3863198 3877740 3886900 3887268 3878375 3862228 3842605 
2249.712 3824989 3813089 3808677 3810816 3817468 3825858 3835352 3845280 
2253.569 3856244 3867878 3878910 3886499 3888706 3884259 3874096 3860958 
2257.427 3848556 3839597 3835084 3834115 3833914 3832009 3826627 3817367 
2261.284 3805468 3792332 3778929 3765793 3753294 3741295 3730434 3721644 
2265.141 3715763 3713390 3714459 3717835 3722346 3727192 3732038 3736917 
2268.999 3742331 3748247 3753995 3758741 3761315 3761649 3759944 3757538 
2272.856 3755433 3754965 3756569 3760613 3767565 3777993 3792532 3811551 
2276.714 3834884 3860824 3887703 3913179 3935747 3954906 3971659 3986840 
2280.571 4002155 4017873 4033658 4048440 4061216 4071551 4079277 4084762 
2284.428 4087973 4088609 4085966 4079477 4069176 4056366 4042219 4028608 
2288.286 4016769 4007171 3999213 3992692 3987408 3983864 3982694 3984934 
2292.143 3990451 3998577 4007473 4015532 4022254 4028340 4035430 4045831 
2296.001 4060380 4078976 4099345 4118913 4135103 4147012 4155275 4162065 
2299.858 4170061 4181168 4196223 4214757 4235568 4257518 4280138 4303997 
2303.716 4329932 4359116 4392117 4429304 4470646 4516043 4565228 4618137 
2307.573 4674033 4731878 4790100 4846821 4900903 4951339 4998093 5041367 
2311.430 5081627 5119075 5153542 5185094 5213933 5240996 5268061 5297039 
2315.288 5329809 5367916 5411629 5460681 5514504 5572126 5632575 5695215 
2319.145 5759039 5823409 5887588 5950735 6011707 6069092 6120605 6163453 
2323.003 6194541 6211615 6214035 6203682 6185130 6165334 6151690 6150547 
2326.860 6166645 6200860 6251446 6313906 6383538 6455332 6525490 6591758 
2330.718 6652281 6706084 6752422 6791360 6824042 6851508 6876081 6899545 
2334.575 6922438 6944355 6963816 6978933 6988496 6992469 6992200 6989641 
2338.432 6986476 6983109 6978732 6971627 6960213 6943480 6921596 6895640 
2342.290 6865983 6831784 6789913 6735360 6663149 6569118 6453180 6320260 
2346.147 6180526 6047219 5935014 5857697 5824618 5841207 5907774 6020408 
2350.005 6170712 6347224 6537734 6729875 6913617 7082382 7233593 7367500 
2353.862 7485402 7589106 7679480 7757055 7822195 7875941 7919906 7956149 
2357.719 7986656 8011766 8031984 8046902 8055780 8058683 8056118 8048590 
2361.577 8036169 8018787 7996073 7968230 7935934 7900571 7864165 7827694 
2365.434 7791530 7754964 7716343 7674455 7628289 7578114 7524810 7469053 
2369.292 7410875 7349942 7285244 7216276 7143851 7069450 6995668 6924794 
2373.149 6857197 6792471 6728159 6661366 6589739 6512137 6428798 6341139 
2377.007 6251177 6160865 6071545 5984932 5901862 5823678 5751954 5687594 
2380.864 5631333 5582899 5541519 5505947 5475009 5447964 5424244 5403544 
2384.721 5385427 5369358 5354632 5341382 5330011 5322027 5319344 5323369 
2388.579 5334640 5352720 5375565 5401229 5427833 5454306 5480746 5507860 
2392.436 5536014 5565481 5595485 5624955 5652917 5679101 5703809 5728082 
2396.294 5752559 5777539 5802321 5826196 5847824 5866899 5883726 5898738 
2400.151 5912946 5926650 5939583 5950936 5959401 5964138 5964910 5962088 
2404.009 5956311 5948719 5939985 5930883 5922049 5914189 5907942 5903844 
2407.866 5902164 5902702 5904751 5907472 5910225 5912845 5915533 5918891 
2411.723 5924064 5931957 5943916 5960510 5982849 6011639 6046951 6088548 
2415.581 6135357 6185634 6237463 6289399 6340433 6390397 6439963 6489771 
2419.438 6540391 6591522 6642491 6692221 6739533 6783721 6824446 6861910 
2423.296 6896179 6927117 6954961 6979001 6998867 7014458 7025368 7031631 
2427.153 7033551 7031598 7026446 7019441 7012101 7005972 7002100 7001123 
2431.010 7002908 7006982 7012774 7019913 7029039 7041061 7056989 7076826 
2434.868 7100401 7125696 7151059 7174403 7194615 7212133 7228068 7244475 
2438.725 7263444 7286221 7313615 7345224 7380172 7416942 7454255 7490458 
2442.583 7524406 7555288 7583172 7608596 7633313 7659010 7687170 7718806 
2446.440 7753446 7789978 7826311 7860048 7889976 7914878 7934720 7949400 
2450.298 7959726 7966002 7968500 7967893 7964720 7960130 7955170 7951154 
2454.155 7948724 7948691 7951390 7956958 7965530 7977005 7991010 8006839 
2458.012 8023681 8040895 8057906 8075392 8094397 8116441 8142875 8174713 
2461.870 8212057 8254132 8299825 8348022 8398050 8450042 8503898 8560263 
2465.727 8619405 8681463 8746403 8814667 8886223 8961443 9039856 9121329 
2469.585 9204677 9289397 9374844 9461628 9551444 9646157 9747736 9857677 
2473.442 9975918 10101685 10233664 10370908 10513593 10663185 10822170 
2476.817 10993346 11179784 11383480 11605717 11847067 12107494 12387033 
2480.193 12685139 13001647 13335504 13685928 14050255 14425370 14807014 
2483.568 15189097 15564476 15925433 16263301 16570140 16839200 17064834 
2486.943 17243280 17372204 17450874 17479506 17460326 17397382 17295686 
2490.318 17162302 17004598 16829626 16644016 16452912 16259998 16068066 
2493.694 15879275 15695790 15519867 15354107 15201038 15063357 14943620 
2497.069 14844041 14767213 14715864 14692420 14699276 14738213 14810511 
2500.444 14917214 15059275 15237687 15454592 15711557 16010202 16351439 
2503.819 16735021 17159132 17621336 18118404 18646446 19200096 19772554 
2507.195 20353442 20929442 21484064 21997774 22450332 22822682 23096906 
2510.570 23259146 23299766 23214332 23004558 22677782 22248318 21733616 
2513.945 21155504 20537068 19898972 19260324 18636380 18036538 17467294 
2517.320 16931246 16428271 15956920 15514613 15098107 14703560 14327246 
2520.696 13966484 13618876 13284529 12964298 12660610 12376464 12114513 
2524.071 11876454 11663200 11473729 11306276 11158435 11027806 10911657 
2527.446 10808786 10717691 10638092 10569880 10513288 10468143 10434099 
2530.821 10409630 10393171 10383057 10377560 10375727 10377288 10382175 
2534.197 10389946 10400636 10413703 10427923 10443297 10459283 10475542 
2537.572 10492276 10508943 10524796 10538952 10550529 10559185 10565433 
2540.947 10570728 10576161 10583494 10593034 10604545 10617481 10631538 
2544.322 10646649 10664306 10686515 10715042 10751416 10795878 10846969 
2547.698 10902347 10959432 11015843 11070053 11121652 11171285 11220346 
2551.073 11270637 11324232 11382630 11446752 11517074 11592479 11671437 
2554.448 11751533 11830519 11907068 11980735 12052643 12124768 12199904 
2557.823 12280437 12368350 12464464 12568750 12680295 12798044 12920809 
2561.198 13047877 13178944 13313808 13453089 13597748 13748235 13905274 
2564.574 14069250 14239587 14415197 14594579 14775749 14956857 15136429 
2567.949 15312471 15484086 15650032 15809549 15961491 16105235 16239531 
2571.324 16362999 16473629 16569486 16648354 16709160 16751586 16776828 
2574.699 16787332 16786540 16777896 16764395 16747935 16729476 16709195 
2578.075 16687432 16664501 16641539 16620228 16602498 16590655 16586835 
2581.450 16592927 16611174 16643293 16690738 16754443 16834792 16930970 
2584.825 17042332 17167646 17305996 17457360 17622164 17800908 17994198 
2588.200 18201944 18423550 18658240 18904856 19162418 19429522 19704280 
2591.576 19984242 20265636 20544466 20815864 21075986 21321232 21549032 
2594.951 21756954 21943020 22104342 22237752 22340436 22409684 22443492 
2598.326 22441190 22402950 22329238 22221220 22080738 21910226 21713342 
2601.701 21495030 21261100 21017592 20770468 20524352 20282404 20046800 
2605.077 19818574 19598890 19389260 19191750 19008764 18843188 18696980 
2608.452 18571984 18469460 18390018 18334368 18303160 18296766 18315220 
2611.827 18358080 18424034 18511330 18617670 18740048 18875372 19020116 
2615.202 19170520 19322292 19472214 19616984 19754556 19884264 20006550 
2618.578 20122592 20234218 20343026 20450472 20557702 20665618 20774742 
2621.953 20885842 20999022 21114248 21230760 21347022 21460634 21568670 
2625.328 21666982 21751242 21816946 21859316 21874088 21857644 21807052 
2628.703 21720796 21598200 21439956 21247808 21024374 20773458 20498994 
2632.079 20205508 19898382 19582322 19262056 18942788 18628182 18322030 
2635.454 18027214 17745576 17478090 17225180 16986440 16761295 16548522 
2638.829 16347792 16158227 15979435 15810786 15651613 15501324 15358878 
2642.204 15223446 15094060 14970335 14851859 14738590 14630423 14527285 
2645.580 14429104 14335636 14246605 14162283 14082802 14008641 13940069 
2648.955 13877392 13820847 13770021 13724980 13685380 13651563 13623663 
2652.330 13602090 13586842 13577612 13573338 13572996 13575560 13580346 
2655.705 13586978 13596038 13608038 13623594 13642981 13666095 13692698 
2659.081 13722209 13753946 13787703 13823275 13860322 13898911 13939008 
2662.456 13980616 14023801 14068770 14115969 14165740 14218668 14274682 
2665.831 14334129 14396906 14463049 14532356 14604722 14679842 14757135 
2669.206 14836396 14916905 14998734 15081675 15165971 15251998 15339759 
2672.582 15429357 15520244 15612627 15706267 15801439 15898729 15998961 
2675.957 16102724 16210433 16322058 16437082 16555097 16675383 16797526 
2679.332 16921358 17046638 17173714 17302894 17434870 17570650 17711682 
2682.707 17859426 18014642 18178172 18350062 18529450 18715798 18908490 
2686.083 19107432 19313182 19526762 19749702 19983098 20228282 20486282 
2689.458 20758166 21045032 21347820 21667678 22004642 22358400 22727984 
2692.833 23111652 23507410 23913122 24326678 24745400 25165646 25583454 
2696.208 25992800 26386756 26757708 27096986 27396226 27647188 27842400 
2699.583 27975924 28043532 28043674 27978044 27851092 27670352 27444332 
2702.959 27183472 26898126 26597608 26290962 25986080 25689148 25405484 
2706.334 25138578 24890256 24661188 24450818 24257860 24081236 23919706 
2709.709 23772232 23638138 23516296 23405396 23303964 23210452 23123744 
2713.084 23043130 22968716 22900636 22839654 22785668 22738738 22698692 
2716.460 22665562 22639348 22620706 22609816 22607162 22612050 22623568 
2719.835 22640430 22661060 22684238 22709342 22735596 22762796 22790382 
2723.210 22817444 22843182 22867140 22888830 22909052 22929312 22950970 
2726.585 22976052 23006410 23043724 23089568 23145130 23211152 23288372 
2729.961 23376408 23474428 23580764 23693808 23811678 23933254 24057982 
2733.336 24185898 24317286 24452642 24592736 24737612 24887624 25042986 
2736.711 25203322 25368248 25536714 25707286 25878452 26048454 26216200 
2740.086 26380736 26541672 26698334 26849552 26993596 27127988 27250496 
2743.462 27358786 27451426 27527744 27587692 27631368 27659298 27671940 
2746.837 27670036 27654638 27627944 27592668 27551608 27507868 27463886 
2750.212 27422062 27384262 27352362 27328296 27314146 27311464 27321098 
2753.587 27342798 27375264 27416238 27463004 27513588 27566082 27619046 
2756.963 27671554 27722090 27769878 27813292 27851408 27883772 27910518 
2760.338 27932460 27950200 27964900 27976666 27986138 27993558 27999920 
2763.713 28006530 28015328 28027876 28045724 28069936 28100724 28138266 
2767.088 28183342 28236448 28299216 28373100 28459556 28559438 28673256 
2770.464 28800770 28941884 29096226 29263878 29444536 29638182 29844016 
2773.839 30061062 30288200 30524096 30767800 31018972 31277236 31542670 
2777.214 31814932 32093752 32378000 32666400 32957312 33248708 33538614 
2780.589 33825100 34106180 34379984 34645316 34900680 35145272 35378284 
2783.965 35598832 35806832 36002288 36186348 36360292 36526628 36687436 
2787.340 36845240 37001988 37159144 37318312 37480644 37647916 37821868 
2790.715 38004276 38196276 38398064 38608092 38823408 39039584 39251452 
2794.090 39454200 39643180 39815132 39968592 40103720 40223364 40331224 
2797.466 40433660 40537644 40650316 40778776 40928972 41105368 41310916 
2800.841 41547444 41815260 42114120 42442964 42800280 43184428 43593276 
2804.216 44024804 44476764 44947640 45435068 45936708 46449920 46970820 
2807.591 47494716 48016656 48531400 49033816 49519432 49984176 50424036 
2810.967 50835176 51213488 51555004 51855720 52112148 52321628 52482224 
2814.342 52592804 52653168 52663492 52625524 52540856 52412648 52244676 
2817.717 52040760 51805732 51544708 51262964 50966424 50661412 50353820 
2821.092 50049940 49755268 49474164 49210272 48966200 48743540 48543444 
2824.468 48366260 48212064 48080532 47970880 47882264 47814012 47765556 
2827.843 47737188 47729608 47743292 47778984 47836320 47914932 48013252 
2831.218 48129356 48261976 48409560 48571380 48746616 48934896 49135836 
2834.593 49349196 49575284 49814500 50067864 50336852 50622540 50926408 
2837.969 51249988 51594704 51963188 52359300 52788036 53255280 53767688 
2841.344 54331360 54952456 55636512 56389100 57216508 58126280 59126196 
2844.719 60224472 61426780 62734364 64140944 65630056 67175112 68735152 
2848.094 70260376 71693968 72974240 74046064 74864608 75400456 75645376 
2851.469 75611344 75329512 74842640 74203032 73466552 72683928 71903344 
2854.845 71165528 70500664 69931936 69472696 69128264 68896576 68770320 
2858.220 68739376 68791624 68914944 69099008 69333320 69608336 69915008 
2861.595 70243200 70582952 70924592 71257688 71573576 71864240 72123416 
2864.970 72346768 72532720 72682712 72800952 72894800 72973224 73045704 
2868.346 73121216 73207448 73309424 73430216 73571616 73733288 73914336 
2871.721 74112904 74327144 74554464 74793048 75040936 75296888 75559728 
2875.096 75827944 76099280 76371176 76639856 76901976 77155064 77398680 
2878.471 77634792 77867336 78102552 78347616 78609968 78896760 79214240 
2881.847 79567280 79959456 80392128 80865304 81376760 81922624 82498312 
2885.222 83098072 83716568 84348680 84988632 85631384 86271496 86903200 
2888.597 87522128 88124648 88708936 89274976 89824312 90359648 90883520 
2891.972 91399232 91909128 92415528 92921240 93428776 93940528 94460176 
2895.348 94990872 95536792 96102792 96694320 97316760 97975208 98673128 
2898.723 99411864 100190296 101005240 101851592 102722800 103612088 
2901.616 104511832 105413152 106307376 107184488 108035272 108852024 
2904.509 109629280 110364608 111058600 111713472 112332376 112919112 
2907.402 113477304 114010488 114523328 115021656 115511736 116000816 
2910.295 116495384 116999928 117516616 118044000 118576904 119105456 
2913.188 119615096 120087848 120501768 120833848 121063536 121174416 
2916.081 121157072 121010864 120743144 120368152 119903256 119367640 
2918.974 118778480 118148368 117485648 116792328 116066512 115302768 
2921.867 114496376 113645016 112752632 111829448 110892960 109965688 
2924.760 109070128 108227592 107454536 106760552 106149576 105620872 
2927.654 105170272 104791744 104477904 104221096 104012656 103843952 
2930.547 103707448 103596400 103506440 103434624 103379168 103338344 
2933.440 103310016 103290640 103275848 103261392 103243064 103217472 
2936.333 103181208 103131000 103063192 102973848 102859704 102719400 
2939.226 102553336 102364688 102157088 101935168 101702272 101459912 
2942.119 101208072 100945792 100671224 100382848 100078632 99756720 99414328 
2945.494 99048976 98658240 98241264 97798992 97335376 96856296 96369600 
2948.869 95884816 95412616 94963944 94551856 94189632 93890512 93667480 
2952.245 93531304 93489632 93546584 93702048 93951840 94286824 94693624 
2955.620 95153448 95641920 96131768 96593280 96997912 97323680 97556520 
2958.995 97693344 97740648 97714048 97634392 97523216 97402256 97289688 
2962.370 97198296 97136880 97107664 97107952 97129248 97159376 97183656 
2965.746 97186520 97154944 97079616 96955368 96782256 96564192 96308344 
2969.121 96023720 95720272 95408736 95098592 94798016 94513304 94247960 
2972.496 94003096 93777664 93569272 93374672 93189880 93011160 92834488 
2975.871 92655424 92469960 92274208 92065968 91843992 91608872 91362832 
2979.247 91108848 90850848 90592992 90340024 90097440 89870560 89664936 
2982.622 89485424 89335248 89215928 89126872 89066048 89029856 89014480 
2985.997 89015376 89027776 89045920 89063488 89073088 89066944 89037176 
2989.372 88975840 88875968 88731088 88535920 88287152 87984112 87629792 
2992.748 87231048 86798752 86345744 85884448 85425664 84976264 84538560 
2996.123 84111872 83693072 83279256 82868200 82459416 82053896 81653504 
2999.498 81260320 80876400 80503904 80144912 79801424 79475320 79167952 
3002.873 78879360 78608464 78353760 78113176 77885256 77669376 77465248 
3006.249 77272696 77090960 76918184 76751576 76587368 76421552 76250552 
3009.624 76071728 75882704 75682096 75468808 75242664 75003832 74753808 
3012.999 74494520 74229088 73960648 73692520 73427912 73169288 72919328 
3016.374 72680248 72453792 72241096 72042640 71857320 71682872 71516424 
3019.750 71354568 71193664 71031112 70864328 70690864 70508456 70314248 
3023.125 70105064 69878032 69630344 69360104 69066800 68750440 68412208 
3026.500 68053880 67677968 67286864 66883004 66468908 66045708 65614448 
3029.875 65175036 64727292 64270556 63804896 63330464 62848388 62359888 
3033.250 61866132 61368620 60868476 60367156 59866452 59368832 58876864 
3036.626 58392920 57919248 57456680 57005748 56566044 56137376 55719416 
3040.001 55312472 54916588 54532292 54159264 53797016 53444400 53100272 
3043.376 52763080 52431640 52104748 51781092 51458908 51136772 50813052 
3046.751 50486744 50157708 49826652 49494660 49162924 48831996 48501912 
3050.127 48172116 47841572 47509428 47175400 46839336 46501400 46161548 
3053.502 45819452 45474508 45125896 44773492 44417412 44059052 43700072 
3056.877 43342376 42987536 42636752 42290636 41949204 41612936 41282020 
3060.252 40957300 40639364 40329300 40027736 39735756 39453656 39182404 
3063.628 38922624 38675204 38440596 38219396 38011400 37816260 37633388 
3067.003 37462440 37302644 37153516 37014432 36884956 36764348 36652432 
3070.378 36548832 36453904 36367860 36291052 36223516 36164996 36115052 
3073.753 36073140 36038576 36011220 35990732 35977128 35970328 35969464 
3077.129 35973816 35982168 35993328 36006432 36020328 36034116 36047076 
3080.504 36058092 36066372 36071664 36074076 36074436 36073644 36072600 
3083.879 36071556 36070008 36066912 36060900 36051212 36037712 36021548 
3087.254 36004020 35986812 35970936 35956720 35943724 35931092 35918028 
3090.630 35904676 35890892 35877612 35865016 35853108 35841268 35828312 
3094.005 35812948 35794488 35772616 35747680 35720736 35693180 35666024 
3097.380 35640340 35616924 35596136 35578300 35563772 35552728 35545432 
3100.755 35542448 35544100 35550896 35563052 35580708 35603328 35630304 
3104.131 35661020 35695012 35732640 35774340 35821620 35875884 35938328 
3107.506 36009776 36090352 36179436 36276176 36379820 36489796 36605636 
3110.881 36727640 36855808 36990260 37130848 37277116 37427800 37581360 
3114.256 37735548 37887804 38035448 38176236 38308412 38431364 38545048 
3117.632 38649996 38746744 38835144 38914936 38984888 39044228 39092260 
3121.007 39129572 39157380 39177760 39192808 39204700 39214748 39223596 
3124.382 39231540 39238432 39244376 39249600 39254676 39260228 39266608 
3127.757 39274188 39282788 39292036 39300960 39308320 39313076 39314160 
3131.133 39310824 39302988 39290836 39275460 39257580 39238140 39217032 
3134.508 39193824 39167424 39136604 39100384 39058112 39010080 38956980 
3137.883 38899500 38838588 38774784 38708204 38638660 38566124 38490232 
3141.258 38410880 38328244 38242844 38155036 38065832 37976140 37887188 
3144.634 37800068 37716068 37635736 37559216 37486060 37415812 37347632 
3148.009 37280980 37215456 37151096 37087904 37026304 36966376 36908472 
3151.384 36852600 36798608 36746716 36696380 36647384 36599332 36551604 
3154.759 36503924 36455992 36407888 36359752 36311476 36263280 36214912 
3158.135 36165896 36116060 36064896 36012696 35959672 35906436 35853432 
3161.510 35801288 35750416 35700696 35652208 35604624 35557728 35511304 
3164.885 35465104 35418944 35372856 35326848 35281064 35235564 35190432 
3168.260 35145416 35100184 35053812 35005936 34955800 34903624 34849620 
3171.635 34794944 34740708 34688272 34638496 34591560 34547284 34504808 
3175.011 34462656 34419472 34374140 34325796 34274488 34220672 34165324 
3178.386 34109732 34055004 34002112 33951376 33902832 33856152 33810844 
3181.761 33766932 33724460 33683536 33644472 33607488 33572584 33539760 
3185.136 33508978 33480454 33454898 33432890 33414998 33401366 33391740 
3188.512 33384834 33379286 33373062 33365012 33354242 33341006 33325940 
3191.887 33310916 33298072 33289414 33286590 33290166 33300112 33314888 
3195.262 33332240 33350054 33366836 33382260 33397500 33414714 33436720 
3198.637 33465278 33501248 33543482 33589624 33636164 33680776 33721704 
3202.013 33758840 33793332 33827104 33861740 33898208 33936612 33975916 
3205.388 34015188 34053280 34089372 34122956 34154248 34183424 34211168 
3208.763 34238128 34264916 34292452 34320848 34349572 34378156 34405052 
3212.138 34428728 34448488 34464308 34476720 34487444 34498100 34509832 
3215.514 34523032 34537636 34552632 34567196 34580436 34592208 34602396 
3218.889 34611404 34619548 34627440 34635660 34644736 34655472 34668352 
3222.264 34683464 34700508 34718600 34736940 34754704 34771468 34788016 
3225.639 34805032 34823592 34844452 34867752 34893212 34920536 34949300 
3229.015 34979932 35013332 35050328 35092028 35138556 35189320 35243256 
3232.390 35298780 35354308 35408588 35461292 35512276 35562080 35611496 
3235.765 35661528 35713324 35767756 35825216 35885604 35948224 36011612 
3239.140 36074328 36134568 36191284 36243720 36291916 36336152 36376724 
3242.516 36414264 36448644 36480064 36509004 36535996 36562060 36588480 
3245.891 36615912 36644896 36675108 36706116 36736872 36766764 36795472 
3249.266 36823168 36850616 36878532 36907860 36939424 36973840 37011328 
3252.641 37052140 37095804 37141604 37189068 37237224 37285676 37334056 
3256.017 37382880 37432752 37484836 37540068 37598628 37660744 37725500 
3259.392 37791896 37858520 37924360 37988400 38050496 38110612 38169324 
3262.767 38227068 38284636 38341892 38399040 38455804 38511556 38565908 
3266.142 38618124 38667852 38714468 38757756 38797320 38832572 38863556 
3269.518 38890368 38913456 38933600 38951472 38967600 38982136 38994384 
3272.893 39003884 39009824 39012144 39011024 39007472 39002940 38998480 
3276.268 38995180 38992972 38991668 38990652 38989600 38988044 38986192 
3279.643 38984524 38982788 38981192 38979232 38976296 38971660 38964884 
3283.019 38955420 38943824 38930704 38916860 38903668 38892216 38883120 
3286.394 38876996 38873156 38870944 38868772 38865364 38859496 38850692 
3289.769 38839532 38826920 38813984 38801776 38790724 38780580 38770764 
3293.144 38760728 38749932 38738556 38726532 38713780 38700304 38685528 
3296.520 38668900 38650248 38629896 38608636 38587740 38568188 38549900 
3299.895 38532592 38514668 38494284 38470680 38443496 38414028 38384344 
3303.270 38357056 38334108 38316884 38305448 38298716 38294876 38291948 
3306.645 38287968 38282072 38273744 38263432 38252616 38242912 38236076 
3310.021 38233508 38236112 38243748 38255616 38270564 38287532 38306132 
3313.396 38326292 38348912 38374896 38405448 38440816 38480892 38525244 
3316.771 38573472 38625080 38680056 38738524 38800364 38865472 38933132 
3320.146 39002176 39071668 39140628 39208836 39276548 39344200 39412440 
3323.521 39481380 39550768 39619292 39686016 39749588 39809396 39865544 
3326.897 39918900 39970772 40022724 40076212 40131080 40187016 40242448 
3330.272 40295160 40343480 40385768 40421220 40449804 40471484 40486360 
3333.647 40494032 40494216 40486176 40470208 40447444 40419404 40388420 
3337.022 40356532 40324388 40291488 40256044 40215692 40168044 40111968 
3340.398 40047140 39974660 39895940 39812812 39725988 39635920 39542380 
3343.773 39445164 39344268 39240172 39133776 39026212 38918128 38809564 
3347.148 38700452 38590020 38477780 38363460 38247220 38129492 38011292 
3350.523 37893084 37775524 37658432 37541620 37424048 37305352 37184952 
3353.899 37063036 36940256 36817796 36696596 36577988 36462192 36349340 
3357.274 36238500 36128556 36018168 35906800 35794096 35680408 35566540 
3360.649 35453452 35341764 35231864 35123752 35016924 34910912 34805212 
3364.024 34699504 34594108 34489600 34386976 34287468 34191852 34100912 
3367.400 34014112 33930380 33848276 33765824 33681672 33595100 33506472 
3370.775 33416356 33326552 33237584 33150136 33063706 32977510 32890652 
3374.150 32802560 32712948 32622534 32531638 32440942 32350228 32259640 
3377.525 32168570 32076736 31984314 31891592 31799532 31708844 31619742 
3380.901 31532374 31446334 31361208 31276700 31192886 31109906 31028082 
3384.276 30947804 30869212 30791986 30716124 30641166 30566930 30493668 
3387.651 30421270 30349704 30278964 30208626 30138514 30068378 29998358 
3391.026 29929096 29861656 29797276 29736988 29681922 29631158 29583166 
3394.402 29535816 29485704 29430104 29367208 29297018 29221098 29142110 
3397.777 29063810 28988780 28918828 28853882 28792910 28734072 28675558 
3401.152 28616522 28556468 28495820 28434332 28372040 28308448 28242530 
3404.527 28173760 28102030 28027698 27951542 27874302 27795840 27715982 
3407.903 27633876 27549136 27461556 27371772 27280520 27189044 27097906 
3411.278 27007630 26918042 26829040 26740828 26654398 26570484 26490040 
3414.653 26412884 26338488 26264984 26190192 26112420 26030968 25945664 
3418.028 25857458 25767686 25677864 25588726 25500628 25413424 25327186 
3421.404 25241668 25156834 25072788 24989708 24907624 24826608 24746626 
3424.779 24668270 24591720 24517494 24445806 24376654 24309892 24245142 
3428.154 24181660 24118994 24056546 23993688 23929718 23864568 23797886 
3431.529 23730166 23662630 23596890 23535428 23479816 23431168 23389414 
3434.905 23353260 23319870 23286658 23250826 23210278 23164388 23113400 
3438.280 23058050 22999562 22938220 22873218 22804070 22728892 22646224 
3441.655 22556066 22459158 22357146 22252328 22146564 22039988 21932008 
3445.030 21820604 21703554 21579952 21450538 21317578 21185040 21056336 
3448.406 20933648 20816836 20703842 20591540 20477320 20359556 20238592 
3451.781 20115998 19993922 19873478 19755076 19637784 19520384 19401560 
3455.156 19281348 19160512 19040438 18922368 18807134 18694282 18583362 
3458.531 18473542 18364300 18255504 18147286 18039474 17931864 17823796 
3461.906 17714996 17605980 17497754 17391794 17289582 17191328 17096472 
3465.282 17003082 16909542 16814678 16718389 16622258 16528627 16439319 
3468.657 16355567 16277129 16202386 16129065 16055757 15981017 15905155 
3472.032 15827624 15749006 15669098 15587315 15503419 15417959 15331795 
3475.407 15246987 15165456 15089016 15018250 14953359 14893382 14836876 
3478.783 14782605 14729473 14676106 14622096 14566412 14508955 14450341 
3482.158 14391460 14333547 14278004 14224898 14173135 14121206 14066375 
3485.533 14006485 13940582 13868600 13791841 13712190 13631151 13549272 
3488.908 13466008 13380333 13290541 13196294 13097867 12996048 12892956 
3492.284 12790297 12688960 12589965 12493107 12397499 12301945 12205322 
3495.659 12106233 12003863 11898248 11789559 11678754 11567127 11455563 
3499.034 11344672 11234423 11124372 11014076 10903604 10793297 10684274 
3502.409 10577858 10475202 10377288 10284112 10195637 10111351 10030880 
3505.785 9953779 9879268 9806058 9732318 9655846 9575053 9489127 9398679 
3509.642 9305814 9213308 9123663 9038840 8959447 8884531 8813079 8743395 
3513.500 8674771 8606494 8538601 8470955 8403353 8335018 8265681 8194938 
3517.357 8123429 8051797 7981561 7913832 7849286 7787920 7729261 7672634 
3521.214 7617093 7562099 7507381 7453075 7399079 7345595 7292320 7238613 
3525.072 7183734 7126470 7065880 7001191 6932201 6859688 6785033 6710391 
3528.929 6637713 6568815 6504132 6444032 6387505 6333776 6282171 6232017 
3532.787 6183147 6135223 6087775 6039895 5990777 5939784 5886648 5832208 
3536.644 5777539 5723953 5672387 5623176 5575885 5530276 5485813 5442227 
3540.501 5400021 5359395 5319881 5281409 5242975 5203336 5160818 5114046 
3544.359 5061982 5003657 4939039 4868936 4795527 4722432 4653904 4594294 
3548.216 4546511 4510686 4484640 4463348 4440987 4412166 4373708 4325214 
3552.074 4269630 4211646 4155877 4105199 4060648 4021552 3985703 3951629 
3555.931 3918160 3885296 3853303 3822114 3790861 3758574 3723416 3684718 
3559.789 3642682 3598612 3554614 3513292 3476316 3444821 3418805 3397098 
3563.646 3377630 3357060 3331216 3295124 3244246 3175684 3089780 2990847 
3567.503 2887434 2789181 2704787 2639543 2594009 2564977 2547046 2534281 
3571.361 2521050 2504420 2483192 2457833 2429877 2401023 2372903 2346085 
3575.218 2320535 2295685 2270937 2245290 2218347 2189806 2159470 2127737 
3579.076 2095107 2062314 2030221 1999563 1971436 1946307 1925506 1909531 
3582.933 1898882 1893158 1890961 1889464 1884905 1872492 1847834 1808006 
3586.791 1752578 1684583 1610513 1538418 1475377 1426441 1393299 1373754 
3590.648 1363749 1357201 1348925 1334168 1309973 1275410 1232012 1182904 
3594.505 1131941 1083275 1040262 1004625 977194 957269 943090 931767 920278 
3598.845 904905 882958 852911 815265 772477 728665 688175 654957 630700 
3603.185 615370 606743 602396 599211 594466 585906 571640 549743 519023 
3607.524 478752 430027 375471 319794 266777 219634 178662 141836 105843 
3611.864 67598 26673 -15075 -52116 -79050 -91274 -87730 -71497 -48704 -27500 
3616.686 -15738 -20277 -44331 -88260 -148348 -218000 -288898 -352833 -403683 
3621.025 -438076 -455751 -458962 -451481 -436983 -418281 -396896 -372995 
3624.883 -346112 -316943 -288567 -267044 -262077 -284296 -341245 -432945 
3628.740 -548287 -667138 -767203 -834936 -867972 -874156 -865955 -855969 
3632.597 -853918 -864335 -886788 -917009 -948551 -976091 -996587 -1010141 
3636.455 -1018934 -1026471 -1035693 -1048684 -1066070 -1087620 -1112077 
3639.830 -1138218 -1164391 -1188976 -1210289 -1226710 -1236523 -1238637 
3643.205 -1232492 -1218516 -1197237 -1171000 -1142547 -1114985 -1092313 
3646.581 -1079225 -1079456 -1096643 -1132898 -1188183 -1259584 -1341808 
3649.956 -1426460 -1503700 -1564055 -1601196 -1612453 -1600469 -1571682 
3653.331 -1535992 -1503601 -1484086 -1484911 -1507893 -1548901 -1597828 
3656.706 -1642657 -1673816 -1686259 -1682002 -1667017 -1649127 -1634735 
3660.082 -1628331 -1631170 -1642162 -1658237 -1675400 -1690781 -1702036 
3663.457 -1707482 -1706458 -1698834 -1684015 -1662528 -1634504 -1601030 
3666.832 -1564220 -1527110 -1493233 -1466287 -1448025 -1436401 -1424479 
3670.207 -1399973 -1350859 -1267282 -1146414 -992058 -813969 -626907 -447608 
3674.065 -297276 -197765 -165572 -206872 -312904 -464456 -640604 -827198 
3677.922 -1015959 -1202457 -1382072 -1548010 -1691672 -1806350 -1888834 
3681.297 -1942209 -1972984 -1989211 -1997358 -1999700 -1994885 -1980306 
3684.673 -1954084 -1917468 -1875901 -1837333 -1810838 -1803645 -1818625 
3688.048 -1852906 -1898368 -1945573 -1986441 -2017048 -2037627 -2050951 
3691.423 -2059162 -2063680 -2065329 -2063746 -2059986 -2055403 -2051841 
3694.798 -2050489 -2051742 -2053754 -2054051 -2049401 -2038221 -2020709 
3698.174 -2000063 -1980669 -1968036 -1966354 -1977305 -1999337 -2027866 
3701.549 -2055897 -2076772 -2085378 -2079805 -2061075 -2032153 -1996995 
3704.924 -1959394 -1921955 -1886722 -1855050 -1827831 -1805822 -1790314 
3708.299 -1782097 -1782460 -1792459 -1813346 -1845680 -1889593 -1943033 
3711.675 -2002042 -2059657 -2108889 -2142982 -2158083 -2154456 -2135366 
3715.050 -2106086 -2073309 -2042970 -2018499 -2001481 -1990663 -1983769 
3718.425 -1977799 -1970840 -1962726 -1953820 -1945375 -1937162 -1928783 
3721.800 -1918524 -1904702 -1887448 -1868346 -1850629 -1838257 -1834660 
3725.176 -1840566 -1854391 -1871910 -1887184 -1894145 -1889197 -1871349 
3728.551 -1842777 -1808297 -1773452 -1744148 -1724907 -1717911 -1722333 
3731.926 -1735072 -1751276 -1767710 -1784209 -1803711 -1831823 -1872536 
3735.301 -1926408 -1987826 -2047653 -2094743 -2122111 -2127980 -2115418 
3738.677 -2089929 -2056326 -2017213 -1972885 -1922549 -1867291 -1811069 
3742.052 -1763552 -1737877 -1747712 -1800939 -1891869 -1998545 -2088478 
3745.427 -2135597 -2131179 -2083169 -2009166 -1928420 -1858350 -1811399 
3748.802 -1793251 -1804371 -1839445 -1890846 -1950356 -2011540 -2068593 
3752.177 -2115418 -2146477 -2157522 -2147466 -2119968 -2081454 -2039639 
3755.553 -2001283 -1970939 -1950059 -1937954 -1933006 -1933962 -1941087 
3758.928 -1955073 -1975194 -1998348 -2017773 -2025920 -2017411 -1991092 
3762.303 -1951148 -1905988 -1866103 -1839544 -1830866 -1838521 -1855974 
3765.678 -1874120 -1885106 -1885271 -1876198 -1862936 -1851190 -1845944 
3769.054 -1849244 -1859702 -1873526 -1886722 -1895465 -1898731 -1896455 
3772.429 -1890483 -1882368 -1873823 -1866037 -1859537 -1854226 -1849607 
3775.804 -1844955 -1840104 -1835419 -1832681 -1834232 -1842546 -1858713 
3779.179 -1881873 -1908627 -1933500 -1951544 -1958965 -1954908 -1941384 
3782.555 -1922021 -1901205 -1882632 -1869138 -1861715 -1860461 -1864222 
3785.930 -1871514 -1880520 -1889593 -1897081 -1901667 -1902426 -1899786 
3789.305 -1894739 -1888603 -1882137 -1875209 -1866235 -1853269 -1834528 
3792.680 -1810772 -1784440 -1761341 -1747217 -1747316 -1763189 -1791766 
3796.056 -1824993 -1852477 -1864288 -1855512 -1827699 -1787212 -1745236 
3799.431 -1714214 -1704049 -1720320 -1760417 -1813313 -1862342 -1891770 
3802.806 -1893188 -1867950 -1824960 -1776784 -1737646 -1719000 -1727449 
3806.181 -1762529 -1815556 -1872800 -1918359 -1942440 -1942802 -1923604 
3809.557 -1892331 -1855479 -1817833 -1779985 -1740913 -1698867 -1653946 
3812.932 -1609151 -1570922 -1547151 -1545534 -1569734 -1616216 -1673090 
3816.307 -1723587 -1752662 -1752398 -1723785 -1676556 -1624502 -1582312 
3819.682 -1562603 -1572573 -1610703 -1665927 -1720947 -1759823 -1773749 
3823.058 -1763123 -1735600 -1701937 -1672232 -1653484 -1648136 -1654177 
3826.433 -1666027 -1677117 -1681870 -1678305 -1667743 -1653451 -1639356 
3829.808 -1628397 -1621630 -1618527 -1617173 -1615325 -1611000 -1602945 
3833.183 -1590368 -1573432 -1552665 -1529553 -1507035 -1489105 -1479694 
3836.559 -1482798 -1499771 -1528629 -1563890 -1598720 -1626416 -1643086 
3839.934 -1647872 -1643548 -1633942 -1623445 -1615787 -1613839 -1618725 
3843.309 -1630146 -1646552 -1665366 -1682728 -1695105 -1699131 -1692894 
3846.684 -1675764 -1648433 -1612552 -1569833 -1521233 -1467740 -1410311 
3850.060 -1350793 -1294273 -1249078 -1226908 -1241016 -1301243 -1407206 
3853.435 -1542496 -1679691 -1790248 -1856139 -1874648 -1853830 -1806647 
3856.810 -1745501 -1681144 -1621663 -1571484 -1533350 -1507530 -1492539 
3860.185 -1485836 -1484152 -1484449 -1485110 -1486529 -1490855 -1501785 
3863.561 -1521497 -1549000 -1578714 -1601493 -1607501 -1590268 -1549264 
3866.936 -1491582 -1429763 -1377943 -1349372 -1351354 -1381973 -1428970 
3870.311 -1474146 -1501521 -1502974 -1480784 -1444294 -1406215 -1377085 
3873.686 -1362519 -1362453 -1370875 -1379859 -1381511 -1372064 -1352312 
3877.062 -1326811 -1301970 -1284527 -1280199 -1291663 -1318124 -1354063 
3880.437 -1391155 -1419789 -1432075 -1424842 -1400436 -1366020 -1331700 
3883.812 -1308775 -1306430 -1328001 -1369323 -1418732 -1460772 -1481675 
3887.187 -1475335 -1444096 -1397463 -1347027 -1305009 -1280695 -1278382 
3890.563 -1296156 -1326844 -1360702 -1388281 -1403540 -1404564 -1393236 
3893.938 -1372692 -1346003 -1315811 -1284065 -1252481 -1223472 -1199384 
3897.313 -1183028 -1176320 -1180087 -1192776 -1211214 -1231468 -1249639 
3900.688 -1263582 -1273229 -1280398 -1287566 -1297378 -1310691 -1327043 
3904.063 -1344252 -1359777 -1371602 -1378472 -1380619 -1379331 -1375730 
3907.439 -1370974 -1365458 -1358918 -1351222 -1342072 -1331337 -1319379 
3910.814 -1306430 -1292125 -1276367 -1258097 -1237184 -1214022 -1190000 
3914.189 -1167762 -1150710 -1141259 -1140961 -1149322 -1163763 -1180352 
3917.564 -1194858 -1204044 -1205993 -1200211 -1187357 -1168422 -1144828 
3920.940 -1118125 -1091156 -1066995 -1049477 -1042668 -1048783 -1067656 
3924.315 -1096279 -1128866 -1158707 -1179261 -1187588 -1183127 -1168786 
3927.690 -1148430 -1126585 -1107020 -1091322 -1080415 -1074498 -1073044 
3931.065 -1076250 -1083621 -1094792 -1108475 -1122355 -1134352 -1142448 
3934.441 -1145753 -1144762 -1140333 -1134021 -1126387 -1117662 -1107318 
3937.816 -1094627 -1079357 -1062005 -1044519 -1029446 -1019033 -1015463 
3941.191 -1019132 -1029148 -1042833 -1056584 -1066632 -1070168 -1065244 
3944.566 -1052452 -1033908 -1012918 -993348 -979198 -973248 -976752 -989480 
3948.424 -1009017 -1032090 -1055129 -1075226 -1090099 -1098461 -1100576 
3951.799 -1096841 -1088645 -1077242 -1064252 -1051560 -1040354 -1032189 
3955.174 -1027595 -1026570 -1028586 -1032917 -1038272 -1043957 -1049147 
3958.550 -1053378 -1056518 -1058336 -1058798 -1058005 -1055890 -1052485 
3961.925 -1048254 -1042734 -1036255 -1028884 -1020620 -1011959 -1003463 
3965.300 -995893 -989976 -986472 -985182 -985876 -987728 -990108 -992422 
3969.157 -994439 -995728 -996092 -995100 -992422 -987761 -981414 -974306 
3973.015 -967528 -962735 -960652 -960949 -963032 -964850 -965148 -962735 
3976.872 -958238 -952486 -947526 -944485 -944187 -946336 -950171 -954205 
3980.730 -957809 -960553 -962569 -963859 -964586 -964586 -963330 -960586 
3984.587 -956354 -951362 -946601 -942997 -941377 -941741 -943658 -946039 
3988.445 -948088 -948915 -948419 -946535 -943823 -940550 -937244 -934368 
3992.302 -932020 -930367 -929507 -928945 -928152 -926763 -924449 -921076 
3996.159 -917373 -914000 -911355 -909404 -907917 -905734 -901965 -896542 
4000.017 -889764 -883249 
##END=
