
##TITLE=Z197_1_a
##JCAMP-DX=5.01  $$ Nicolet v. 1
##DATATYPE=INFRARED SPECTRUM
##ORIGIN=UniL
##OWNER=Nicolet
##LONGDATE=2011/09/08
##TIME=10:09:18
##SPECTROMETER/DATA SYSTEM=Nicolet iS5
##DATA PROCESSING=
Ratio against background
%Transmittance->Absorbance
Truncated
ElementMultiply or ElementDivide
##COMMENTS=
Number of sample scans: 32
Collection length: 51.14 sec
Sample gain: 2.0
Background collected on: Jeu Sep 08 10:07:06 2011 (GMT+02:00);
Number of background scans: 32
Background gain: 2.0
Sample spacing:  1.000
Number of scan points: 12415
Resolution points: 8192
Number of FFT points: 65536
Apodization: N-B fort;
Phase correction: Mertz;
Laser frequency: 15798.0 cm-1
Number of rejected sample scans: 0
Number of rejected background scans: 0
Bench serial number: ASB1000141;
##RESOLUTION=4.000
##XUNITS=1/CM
##YUNITS=ABSORBANCE
##FIRSTX=649.893372
##LASTX=4000.122314
##FIRSTY=0.117051
##MAXX=4000.122314
##MINX=649.893372
##MAXY=0.263633
##MINY=-0.000025
##XFACTOR=1.000000
##YFACTOR=1.000000E-009
##NPOINTS=6950
##DELTAX=0.482117
##ZPD=6100
##XYDATA=(X++(Y..Y))
649.893 117051032 117209848 117514480 117964088 118517440 119115432 
652.786 119709456 120287936 120877344 121524280 122263144 123094880 
655.679 123982088 124869432 125709640 126487344 127223920 127958848 
658.571 128727288 129535840 130360784 131161672 131907928 132591784 
661.464 133233504 133863568 134505808 135159712 135803008 136401984 
664.357 136932432 137385344 137762512 138060848 138256288 138292912 
667.250 138105024 137651184 136955056 136099728 135182288 134258656 
670.142 133324520 132325456 131189688 129862968 128328424 126618744 
673.035 124797784 122941160 121103160 119303048 117534464 115783392 
675.928 114047760 112345464 110707832 109162864 107724048 106383648 
678.820 105123296 103926064 102790640 101732424 100776608 99941312 99229240 
682.195 98622232 98092472 97611856 97166624 96758992 96402864 96109648 
685.570 95878944 95694336 95529936 95362560 95181376 94992400 94812728 
688.945 94659632 94537856 94436616 94333056 94205520 94042600 93849792 
692.320 93644168 93446320 93269136 93113304 92969256 92826168 92679512 
695.694 92534536 92402488 92291456 92200624 92117248 92023616 91905360 
699.069 91761600 91605560 91460336 91345624 91268184 91218272 91175104 
702.444 91116496 91029864 90917144 90791464 90668184 90553968 90443456 
705.819 90321464 90173160 89991360 89782376 89561200 89345464 89145424 
709.194 88961408 88786248 88614008 88446584 88296896 88183624 88123224 
712.569 88121880 88172056 88255400 88348624 88431608 88487784 88500376 
715.943 88450200 88311680 88061296 87690976 87222656 86714312 86245872 
719.318 85902696 85738336 85748600 85860952 85948216 85867848 85488104 
722.693 84736608 83611000 82174744 80530904 78795608 77078216 75456624 
726.068 73978992 72667248 71521656 70530520 69673136 68926904 68266888 
729.443 67671152 67124136 66616976 66147448 65715700 65320276 64955644 
732.817 64612768 64281316 63953600 63628508 63309648 63002928 62712320 
736.192 62438040 62175756 61920160 61667920 61419760 61179600 60951848 
739.567 60737136 60531252 60325692 60113076 59890032 59660028 59431816 
742.942 59216072 59020396 58846396 58691012 58549296 58418620 58300752 
746.317 58200268 58121548 58064660 58023568 57987704 57945676 57890812 
749.692 57823356 57749588 57677268 57611660 57552416 57494312 57430056 
753.066 57355748 57272112 57184304 57098588 57017876 56940656 56861936 
756.441 56776968 56685856 56594540 56512828 56451396 56415508 56404420 
759.816 56412000 56431284 56459240 56497920 56553740 56632588 56735960 
763.191 56859408 56994944 57136568 57285876 57453992 57660052 57923260 
766.566 58259788 58677208 59176048 59755680 60421188 61188752 62092412 
769.940 63182740 64529344 66226944 68385448 71124696 74556664 78740592 
773.315 83641816 89072968 94693504 99981192 104294696 107034128 107714200 
776.690 106124320 102377560 96894152 90300704 83260472 76418464 70255584 
780.065 65048732 60902860 57765672 55493644 53897088 52798436 52051520 
783.440 51545604 51212780 51010916 50913664 50904128 50967652 51090108 
786.815 51259568 51465584 51701100 51962924 52251028 52567556 52915080 
790.189 53296296 53713428 54168608 54665228 55207712 55802260 56455544 
793.564 57173908 57962792 58828032 59776516 60817856 61966052 63237280 
796.939 64650296 66224896 67981256 69943968 72146488 74632128 77461488 
800.314 80707992 84446424 88748248 93659128 99183568 105263024 111762848 
803.689 118470824 125070048 131178800 136380128 140247376 142452176 
806.581 142812352 141340624 138244304 133896904 128785136 123394168 
809.474 118191040 113564480 109768120 106939304 105077968 104064272 
812.367 103667480 103581000 103483816 103049328 102021368 100249728 97692312 
815.742 94419848 90583200 86391832 82061056 77789688 73748560 70052536 
819.116 66769272 63922464 61499232 59463088 57764120 56352280 55179604 
822.491 54205548 53399848 52737336 52197480 51762688 51416308 51144116 
825.866 50936616 50789328 50703932 50685944 50743628 50884088 51111836 
829.241 51428132 51829880 52310376 52857520 53455456 54083188 54716300 
832.616 55332196 55912596 56446072 56928908 57359416 57731308 58027884 
835.990 58217468 58257552 58106852 57732556 57125344 56302636 55309048 
839.365 54205808 53058824 51933648 50881256 49936704 49120884 48439524 
842.740 47888404 47455540 47125724 46881528 46706528 46588624 46519356 
846.115 46494172 46510948 46566976 46657240 46774792 46911052 47058992 
849.490 47215032 47379332 47555044 47746104 47955744 48185516 48436340 
852.865 48709844 49009852 49341288 49709196 50116168 50560968 51039384 
856.239 51546612 52079944 52641160 53236292 53874468 54564716 55314692 
859.614 56131532 57024640 58008232 59106872 60353524 61787924 63456720 
862.989 65405972 67677656 70307904 73314720 76686816 80362904 84223560 
866.364 88072296 91635056 94611920 96696064 97638784 97315104 95737368 
869.739 93064408 89551304 85526760 81323888 77220688 73442888 70129480 
873.113 67339672 65074832 63292780 61929900 60911704 60169588 59645240 
876.488 59289744 59068528 58955608 58930788 58979328 59089100 59250588 
879.863 59458336 59710244 60006844 60349564 60739156 61174184 61651460 
883.238 62167456 62720472 63311792 63945540 64626916 65360016 66146560 
886.613 66985944 67876456 68817880 69812968 70868032 71994176 73205136 
889.987 74518472 75956224 77539032 79284424 81194576 83246864 85380000 
893.362 87490760 89449224 91102352 92308752 92970816 93041832 92538640 
896.737 91527496 90112120 88405808 86517288 84548944 82585384 80697256 
900.112 78945200 77372504 76006744 74857872 73918576 73168736 72582216 
903.487 72134720 71806264 71582760 71455136 71415024 71453728 71563424 
906.862 71738056 71976192 72281056 72659024 73116000 73655544 74278776 
910.236 74986432 75782928 76679576 77693592 78845856 80157024 81641472 
913.611 83307672 85158832 87195360 89416904 91821112 94400168 97134968 
916.986 99991944 102927232 105884136 108800176 111609904 114231512 116563976 
920.361 118486016 119848936 120510736 120365616 119376184 117602880 
923.254 115206208 112439544 109587528 106942648 104767664 103247816 
926.146 102502488 102580152 103468384 105106704 107392336 110196488 
929.039 113351512 116666872 119951392 123005064 125649496 127740248 
931.932 129156216 129814400 129668232 128710792 126984744 124588888 
934.824 121691440 118509128 115305104 112376408 109997232 108422168 
937.717 107858376 108435696 110214472 113165032 117169832 121996968 
940.610 127298984 132652488 137535072 141415680 143843568 144481008 
943.502 143201888 140102096 135492704 129820600 123582576 117274472 
946.395 111280560 105868016 101189080 97284008 94122136 91627776 89711296 
949.770 88279432 87245912 86540704 86102152 85879320 85834384 85936464 
953.145 86163480 86500512 86934776 87455376 88050944 88709384 89418976 
956.520 90170512 90956112 91770560 92609208 93466456 94336096 95211280 
959.894 96086504 96959264 97830376 98703280 99581440 100466648 101357176 
963.269 102249200 103138392 104022088 104901208 105779280 106660920 
966.162 107549184 108444496 109345376 110250040 111159120 112076680 
969.055 113009792 113966976 114955032 115978568 117040064 118142024 
971.947 119289136 120489704 121753672 123091184 124509360 126011088 
974.840 127595888 129262760 131012736 132850456 134782240 136812416 
977.733 138939216 141152160 143433152 145758336 148103328 150446032 
980.625 152764448 155036688 157237120 159333936 161295952 163095904 
983.518 164717488 166160256 167437888 168574208 169594832 170524848 
986.411 171386256 172198400 172982592 173761888 174556576 175382912 
989.304 176246720 177143280 178059616 178982144 179902272 180819136 
992.196 181738624 182667872 183609296 184557632 185501040 186424464 
995.089 187317120 188173216 188991792 189771808 190507024 191184560 
997.982 191788896 192306272 192732576 193076176 193356864 193599856 
1000.874 193829056 194065824 194327216 194629568 194992656 195438320 
1003.767 195986880 196652400 197436720 198330832 199318256 200385968 
1006.660 201531008 202764768 204109056 205591472 207237072 209062816 
1009.552 211079488 213292080 215700352 218291760 221028240 223835920 
1012.445 226586320 229107088 231210688 232712496 233488992 233503888 
1015.338 232820912 231587056 230002736 228295024 226661392 225260896 
1018.231 224202048 223534288 223262592 223355104 223760816 224416864 
1021.123 225263072 226253888 227358528 228563152 229864832 231262512 
1024.016 232750016 234314080 235934528 237592128 239274080 240975200 
1026.909 242696512 244438720 246195696 247953072 249690064 251384976 
1029.802 253022112 254592144 256088848 257503008 258816832 260002560 
1032.695 261031088 261878464 262536400 263013952 263335168 263529712 
1035.588 263622576 263632896 263572688 263451312 263279920 263068624 
1038.481 262821824 262528928 262160928 261670048 260995888 260082064 
1041.374 258882784 257368656 255528512 253362656 250880656 248100480 
1044.267 245054528 241794672 238388800 234923088 231487904 228161072 
1047.160 225008720 222075088 219385840 216956464 214794048 212899648 
1050.053 211265776 209873200 208690224 207672016 206772160 205947680 
1052.947 205164912 204404128 203653920 202905200 202146224 201358720 
1055.840 200518992 199603520 198588704 197453472 196177584 194736912 
1058.733 193104816 191256144 189172000 186848752 184300976 181561984 
1061.626 178675504 175688048 172645728 169586304 166542880 163546272 
1064.519 160624288 157803040 155104656 152542704 150122640 147842976 
1067.412 145698720 143685136 141801216 140048720 138430960 136948800 
1070.305 135598720 134372320 133257952 132243904 131319288 130474744 
1073.198 129701376 128987808 128320056 127683120 127062200 126448336 
1076.091 125839504 125241680 124665704 124125904 123636536 123209848 
1078.984 122857784 122591952 122422464 122357104 122397248 122534968 
1081.877 122749728 123009984 123278544 123513704 123678472 123744064 
1084.770 123690624 123510272 123207160 122798744 122315216 121798840 
1087.663 121303640 120883648 120591992 120474136 120562336 120879976 
1090.556 121443808 122267744 123368512 124766208 126481368 128532392 
1093.449 130927664 133660552 136699888 139984864 143423712 146877456 
1096.343 150173024 153111728 155472144 157059696 157730672 157418576 
1099.236 156154768 154061264 151335744 148198304 144877952 141580736 
1102.129 138458544 135622352 133135752 131021160 129272536 127863824 
1105.022 126759304 125918048 125302344 124881704 124630344 124528336 
1107.915 124557152 124694808 124914664 125185984 125473408 125745520 
1110.808 125975072 126142280 126236440 126253008 126191200 126049784 
1113.701 125822232 125489952 125020920 124364000 123454488 122229288 
1116.594 120635912 118656240 116317472 113698224 110916528 108104336 
1119.487 105395288 102890024 100647168 98684896 96985728 95512224 94220008 
1122.862 93072448 92044184 91122288 90305512 89602208 89029448 88610064 
1126.238 88373320 88348144 88553512 88989136 89623432 90391312 91185528 
1129.613 91870760 92303176 92334288 91844488 90756344 89042624 86735752 
1132.988 83922136 80738232 77339568 73888528 70537224 67398840 64552948 
1136.363 62042260 59876948 58046440 56527924 55295576 54322984 53585212 
1139.739 53060436 52725516 52558432 52538764 52647072 52866988 53185052 
1143.114 53588172 54063112 54595900 55170460 55772344 56389248 57011796 
1146.489 57635000 58256000 58873412 59486420 60095080 60701964 61312140 
1149.864 61934028 62577204 63249312 63954560 64691872 65455472 66237444 
1153.240 67029828 67826760 68623880 69417096 70201448 70968680 71708824 
1156.615 72410448 73061936 73652912 74172888 74609344 74948392 75172928 
1159.990 75264696 75208032 74989816 74602304 74042328 73310008 72408416 
1163.365 71342968 70122544 68760768 67275328 65689184 64027012 62312844 
1166.740 60570064 58818588 57075236 55356092 53674996 52045500 50480568 
1170.116 48990268 47582216 46260684 45026396 43877928 42812968 41829484 
1173.491 40925620 40100156 39351052 38674952 38067276 37522400 37034820 
1176.866 36600232 36215056 35876604 35581860 35327028 35107764 34920536 
1180.241 34764220 34641436 34558656 34525076 34550552 34643164 34808696 
1183.617 35050904 35372464 35776176 36265984 36845640 37518972 38288944 
1186.992 39158864 40135444 41231268 42465944 43866860 45462404 47274548 
1190.367 49310256 51553068 53959512 56455428 58949496 61338012 63515744 
1193.742 65399268 66932208 68098408 68924144 69477512 69860168 70183840 
1197.118 70568720 71120944 71915184 72993760 74353640 75948888 77686256 
1200.493 79438008 81056784 82377528 83251400 83559344 83220456 82207456 
1203.868 80542192 78291304 75550936 72440320 69094032 65639040 62198924 
1207.243 58881152 55763604 52901120 50320744 48024652 45997592 44212732 
1210.619 42641068 41253380 40026104 38942628 37990496 37161276 36448644 
1213.994 35847132 35352440 34961616 34672876 34484972 34396088 34402508 
1217.369 34498820 34678220 34933748 35260900 35657100 36122288 36656972 
1220.744 37260040 37928624 38657420 39439724 40268404 41136952 42037860 
1224.120 42962404 43899668 44837008 45762680 46668932 47554156 48424636 
1227.495 49293144 50176972 51093688 52059660 53089492 54194696 55385452 
1230.870 56670380 58055040 59541404 61126696 62805124 64569248 66413500 
1234.245 68337120 70344056 72441928 74639568 76944496 79361232 81891904 
1237.621 84534888 87284472 90125576 93025816 95932664 98766256 101418144 
1240.996 103771400 105703032 107104336 107904464 108076032 107648432 
1243.889 106703112 105377216 103844496 102285592 100888320 99813368 99180856 
1247.264 99077784 99550728 100616464 102273600 104511368 107315080 110662856 
1250.639 114521600 118832152 123491384 128355488 133222056 137831600 
1253.532 141904896 145133536 147220112 147931136 147106928 144705696 
1256.426 140806880 135606688 129381504 122434720 115090272 107639304 
1259.319 100324192 93352984 86874344 80984824 75736768 71135856 67153176 
1262.694 63732260 60804628 58294992 56129268 54246052 52593288 51131180 
1266.069 49833604 48683268 47671916 46798776 46070240 45498936 45101052 
1269.444 44895684 44899616 45122552 45563148 46205028 47015052 47939540 
1272.820 48911160 49850436 50666960 51276944 51607320 51606760 51258376 
1276.195 50580548 49626060 48466640 47186440 45866516 44568100 43336812 
1279.570 42196704 41155380 40211004 39356712 38585132 37889140 37262820 
1282.945 36700560 36196796 35746708 35346904 34994620 34687948 34425032 
1286.321 34202892 34018092 33867400 33748960 33662480 33609100 33589228 
1289.696 33600828 33637668 33690228 33748168 33802356 33848416 33887536 
1293.071 33925576 33970544 34029992 34109444 34212392 34340324 34495232 
1296.446 34679512 34895544 35145128 35427964 35742068 36084516 36453616 
1299.822 36849284 37273472 37728828 38216392 38734392 39278836 39844512 
1303.197 40427732 41028048 41647724 42290816 42960104 43655372 44372932 
1306.572 45107260 45852192 46602972 47356792 48110256 48859028 49596236 
1309.947 50312636 50999436 51650084 52262200 52837200 53379316 53893676 
1313.323 54384268 54855228 55310292 55752716 56183832 56599144 56984556 
1316.698 57311660 57540308 57625316 57521960 57201160 56655504 55901928 
1320.073 54977200 53929912 52812840 51670984 50541388 49452848 48425708 
1323.448 47477160 46621972 45870712 45230500 44702904 44284240 43967856 
1326.823 43745840 43611556 43558732 43581444 43672884 43824160 44025828 
1330.199 44269016 44545960 44850308 45175496 45512184 45848400 46168292 
1333.574 46455300 46695752 46880752 47006672 47074836 47088388 47050168 
1336.949 46961296 46822360 46635324 46405636 46144080 45864784 45581732 
1340.324 45306404 45044332 44796012 44558956 44330840 44111568 43903848 
1343.700 43712204 43541588 43396528 43280840 43199032 43157492 43164264 
1347.075 43228716 43359476 43562468 43840872 44195568 44626808 45135348 
1350.450 45721448 46383404 47114016 47900132 48724152 49565440 50405576 
1353.825 51230712 52029404 52790912 53501252 54139408 54680484 55099100 
1357.201 55374612 55499144 55478584 55334040 55095300 54800944 54492588 
1360.576 54209860 53994816 53889060 53930100 54153032 54582336 55227652 
1363.951 56084968 57136496 58353808 59695228 61107280 62519840 63841588 
1367.326 64976768 65834404 66348100 66496128 66302784 65833712 65171144 
1370.702 64403848 63609712 62844256 62148420 61547452 61054652 60671824 
1374.077 60385352 60164604 59957584 59700628 59331224 58794532 58059924 
1377.452 57125984 56023668 54808916 53554060 52336840 51220016 50251512 
1380.827 49463508 48875488 48502244 48355740 48444636 48777644 49367832 
1384.203 50238716 51431936 53002672 55002136 57450588 60300072 63418800 
1387.578 66584684 69538800 72039352 73891624 74988512 75302160 74874176 
1390.953 73795600 72191368 70208144 67985408 65667332 63401124 61323816 
1394.328 59567284 58230236 57357488 56934272 56896724 57160340 57633832 
1397.704 58239596 58921680 59639884 60371840 61106176 61835680 62551492 
1401.079 63240072 63881008 64452896 64936408 65319732 65603972 65803444 
1404.454 65943496 66050612 66149340 66257276 66384464 66537456 66720204 
1407.829 66932328 67166024 67401776 67609584 67749688 67784312 67688496 
1411.205 67456032 67101516 66653216 66146100 65610632 65070020 64540260 
1414.580 64030924 63547304 63090356 62654784 62227488 61788804 61320724 
1417.955 60817128 60297860 59809940 59417608 59173656 59096428 59167240 
1421.330 59340872 59567056 59801496 60020888 60225768 60436764 60683484 
1424.706 60989632 61362972 61791444 62249932 62708832 63145228 63544004 
1428.081 63899436 64213388 64494172 64757904 65027684 65337992 65731004 
1431.456 66246584 66917984 67762000 68779824 69962568 71304040 72811096 
1434.831 74504344 76412064 78548816 80892288 83370736 85881984 88328888 
1438.207 90646224 92798800 94761008 96503232 97972560 99098136 99813368 
1441.582 100063992 99827800 99117624 97977288 96470344 94665648 92636688 
1444.957 90446024 88138248 85743632 83279856 80768640 78255080 75815552 
1448.332 73550656 71566896 69942680 68718072 67893000 67435328 67289104 
1451.708 67378520 67618064 67907136 68137216 68203776 67995016 67400304 
1455.083 66321656 64704864 62596956 60182072 57771992 55676512 54077180 
1458.458 52993760 52337364 51991384 51855720 51865052 51977640 52161648 
1461.833 52388384 52625116 52836376 52993500 53079080 53096640 53069084 
1465.208 53035092 53035540 53099824 53246512 53482100 53805080 54208552 
1468.584 54680636 55204700 55754676 56295960 56783952 57159776 57362100 
1471.959 57339148 57067224 56561628 55868992 55047004 54143500 53194340 
1475.334 52230588 51284776 50400072 49624796 48998244 48546520 48274860 
1478.709 48172260 48220428 48402964 48712140 49150792 49730524 50465828 
1482.085 51368380 52441208 53679044 55071980 56612732 58302684 60156040 
1485.460 62199728 64467376 66990160 69787480 72863408 76210112 79817632 
1488.835 83681584 87803632 92175264 96768680 101520440 106338696 111119752 
1492.210 115769984 120218184 124393208 128225984 131630616 134487152 
1495.104 136672560 138088896 138714480 138625344 137990736 137026144 
1497.997 135918992 134814880 133809952 132962408 132319656 131921616 
1500.890 131796016 131952376 132369952 132995664 133731544 134436048 
1503.783 134917616 134896192 134011552 131852496 128059088 122545688 
1506.676 115653120 108066768 100479928 93307096 86630728 80336984 74263568 
1510.051 68301096 62424652 56709716 51299616 46339344 41953260 38196712 
1513.426 35052916 32457258 30319822 28551160 27068316 25807242 24726212 
1516.802 23801036 23025452 22400020 21919810 21567174 21308670 21096786 
1520.177 20885392 20644144 20377298 20125124 19943860 19873374 19916108 
1523.552 20043296 20211236 20382994 20537554 20678372 20827474 21014672 
1526.927 21259500 21563378 21911446 22283824 22666716 23057072 23462574 
1530.302 23893482 24355694 24846220 25353248 25861538 26362568 26860586 
1533.678 27373182 27918362 28504842 29122906 29750010 30354676 30905324 
1537.053 31377200 31749300 32008960 32150444 32175030 32088224 31900186 
1540.428 31630042 31305224 30956202 30606854 30264860 29918802 29542624 
1543.803 29110222 28607568 28044522 27452486 26872958 26336902 25850390 
1547.179 25395016 24937066 24445210 23903810 23324064 22738914 22190986 
1550.554 21709232 21297708 20936814 20597898 20257998 19911112 19571298 
1553.929 19265208 19018178 18839244 18716628 18620504 18513614 18353172 
1557.304 18095880 17706920 17175712 16540365 15887765 15316315 14885016 
1560.680 14598622 14427802 14330876 14268587 14207507 14125724 14015862 
1564.055 13886902 13760547 13662949 13613201 13614227 13653204 13707300 
1567.430 13755383 13784557 13796048 13803608 13828919 13891795 14001318 
1570.805 14157251 14353376 14583545 14843733 15130528 15439897 15763402 
1574.181 16090930 16414886 16735744 17066866 17431664 17855316 18348920 
1577.556 18908282 19520280 20172362 20858516 21579848 22342318 23149290 
1580.931 23995088 24863624 25726446 26548188 27295164 27934792 28440840 
1584.306 28794610 28982830 29000504 28851014 28547938 28114544 27581830 
1587.682 26988448 26371230 25760900 25176848 24623348 24093494 23574748 
1591.057 23055918 22531428 22001574 21469790 20939874 20414630 19897238 
1594.432 19394978 18922368 18498364 18143486 17871508 17684522 17572962 
1597.807 17520900 17514140 17545292 17616852 17737084 17914806 18153022 
1601.183 18448440 18794228 19187280 19632446 20144804 20743706 21448450 
1604.558 22271232 23216080 24281054 25462890 26759682 28168598 29680540 
1607.933 31275314 32915990 34554032 36138204 37620564 38970316 40176404 
1611.308 41247772 42205872 43076076 43877344 44615024 45278160 45840628 
1614.684 46267796 46521496 46570476 46400216 46018332 45448608 44717408 
1618.059 43841384 42823868 41661000 40345660 38872832 37240328 35455972 
1621.434 33538722 31525496 29483436 27499254 25665946 24059698 22717824 
1624.809 21635846 20776724 20090560 19526866 19044972 18622094 18250252 
1628.185 17933522 17680312 17496718 17382102 17329306 17325892 17357894 
1631.560 17411590 17472882 17527110 17558368 17547844 17477988 17337686 
1634.935 17131350 16884706 16639369 16438114 16304031 16236885 16218895 
1638.310 16225774 16234236 16227631 16198602 16148906 16087458 16025158 
1641.686 15971459 15929455 15895806 15860373 15810030 15730523 15608609 
1645.061 15436120 15212568 14949724 14671514 14409922 14197647 14055320 
1648.436 13988759 13988589 14036497 14106145 14164611 14174572 14091564 
1651.811 13875956 13515739 13057027 12603302 12255863 12058980 11990443 
1655.187 12000525 12041027 12079523 12099556 12095570 12069711 12027299 
1658.562 11974434 11914321 11847204 11769745 11677189 11564405 11428824 
1661.937 11272644 11104009 10937004 10786979 10666954 10583120 10533419 
1665.312 10509079 10496859 10482874 10452868 10396699 10309015 10191465 
1668.688 10052547 9905810 9767255 9650494 9563435 9508329 9481032 9472600 
1672.545 9469247 9455736 9416219 9339600 9225424 9088135 8954373 8850478 
1676.402 8792521 8778861 8795327 8822107 8842632 8849395 8844695 8838371 
1680.260 8842159 8862449 8895286 8925590 8930088 8885344 8778150 8618526 
1684.117 8441595 8295569 8214927 8203953 8244778 8311274 8382342 8443251 
1687.975 8487139 8512853 8522854 8522618 8519340 8522077 8539615 8578139 
1691.832 8639448 8718445 8803814 8877802 8921768 8920685 8871748 8790255 
1695.689 8708743 8662872 8671559 8729635 8811726 8885344 8916661 8881792 
1699.547 8777847 8631742 8494370 8411596 8403184 8457035 8545191 8637150 
1703.404 8709047 8745829 8741332 8700427 8636677 8569319 8514035 8479808 
1707.262 8466563 8468523 8477915 8487849 8494876 8499066 8502344 8507277 
1711.119 8515217 8525423 8535762 8543704 8547692 8547692 8545393 8541710 
1714.977 8535526 8522449 8495654 8449602 8385111 8311950 8247986 8212260 
1718.834 8216075 8259062 8330999 8417879 8505486 8583783 8648438 8700393 
1722.691 8744611 8787584 8835564 8892344 8959176 9035458 9119636 9209822 
1726.549 9302903 9394853 9480863 9556050 9617971 9667230 9708802 9748278 
1730.406 9789553 9830968 9862727 9867744 9824528 9716155 9540775 9321793 
1734.264 9103361 8933707 8839758 8818928 8848144 8897484 8940776 8957383 
1738.121 8936751 8878411 8792216 8694748 8602946 8528903 8475854 8440413 
1741.979 8415718 8395347 8374876 8352852 8330188 8308539 8289829 8274327 
1745.836 8261427 8249236 8235593 8218709 8196964 8169648 8135853 8094971 
1749.693 8046227 7990436 7930367 7871790 7822971 7791057 7779858 7788156 
1753.551 7809308 7832957 7846654 7840717 7809881 7756819 7691554 7629199 
1757.408 7582902 7558727 7554210 7559537 7562774 7552726 7523428 7475289 
1761.266 7415560 7355402 7305966 7275372 7265803 7275304 7297913 7327027 
1765.123 7354997 7374139 7379228 7367197 7340473 7305528 7272541 7249866 
1768.980 7240534 7240196 7237535 7218803 7172045 7093497 6991022 6882780 
1772.838 6790082 6726745 6695720 6689730 6697537 6708843 6718804 6726913 
1776.695 6736235 6748417 6763191 6776350 6782375 6776754 6759186 6733610 
1780.553 6708002 6689596 6681655 6682429 6685996 6685592 6675901 6656521 
1784.410 6630446 6604037 6583516 6572684 6572684 6582675 6600403 6624054 
1788.268 6651642 6679737 6703425 6716785 6712444 6685524 6635964 6570026 
1792.125 6499894 6438920 6397895 6379906 6382293 6397929 6418878 6439291 
1795.982 6455265 6464984 6467943 6463975 6452877 6434953 6411043 6382764 
1799.840 6352537 6322983 6295988 6272658 6253228 6237799 6226505 6220152 
1803.697 6218875 6222505 6229833 6238471 6245967 6250572 6251681 6250135 
1807.555 6246707 6242068 6235782 6226169 6211817 6191919 6167989 6143288 
1811.412 6121680 6106928 6100544 6101585 6107667 6115631 6123058 6129140 
1815.270 6135021 6142314 6152933 6168359 6188827 6213632 6241328 6270439 
1819.127 6299652 6327925 6354823 6380377 6404889 6428462 6450523 6469625 
1822.984 6483111 6488459 6484255 6471508 6455298 6442317 6438652 6447496 
1826.842 6467103 6491048 6509715 6513953 6498213 6463269 6416525 6369113 
1830.699 6331994 6310880 6304796 6307989 6312797 6313167 6305871 6291315 
1834.557 6272086 6251278 6231143 6212522 6195347 6179517 6166275 6157806 
1838.414 6157067 6166544 6186676 6216489 6252354 6289499 6322748 6346148 
1842.271 6354621 6345577 6320160 6284961 6250841 6230673 6233799 6263077 
1846.129 6314276 6378359 6444974 6505410 6556099 6598553 6638420 6681756 
1849.986 6732870 6791529 6853966 6914156 6967519 7012707 7052039 7089893 
1853.844 7130142 7175009 7223385 7272743 7320827 7367298 7414448 7465615 
1857.701 7524170 7591129 7665282 7744541 7826749 7911673 8000392 8094599 
1861.559 8194498 8297731 8399333 8493085 8574354 8640056 8689982 8724801 
1865.416 8744206 8745660 8724226 8674331 8592840 8481936 8351434 8215907 
1869.273 8091055 7989052 7913832 7861938 7825164 7794734 7763397 7726631 
1873.131 7682347 7629671 7568572 7498718 7420919 7336698 7249091 7161164 
1876.988 7075849 6993783 6913651 6832693 6748855 6661602 6573020 6486878 
1880.846 6407647 6337642 6277363 6224824 6177602 6133845 6093991 6059987 
1884.703 6034082 6017519 6009490 6007205 6006701 6005055 6000217 5992087 
1888.561 5982379 5973409 5967799 5968236 5976970 5995447 6023802 6060323 
1892.418 6101148 6140633 6172594 6192860 6199851 6196524 6188188 6181029 
1896.275 6179786 6185768 6197364 6211817 6226505 6241026 6256623 6275615 
1900.133 6299417 6327388 6357647 6387001 6413666 6438282 6462529 6490006 
1903.990 6523001 6562222 6606627 6653594 6700633 6745860 6788634 6828249 
1907.848 6863391 6892374 6913887 6927589 6935500 6941695 6950011 6963950 
1911.705 6983479 7006141 7028130 7045741 7057932 7065981 7072414 7079385 
1915.563 7086458 7090836 7088613 7077162 7057663 7035336 7018027 7011595 
1919.420 7017758 7032642 7049547 7061334 7063893 7058606 7050759 7048032 
1923.277 7055878 7076017 7105150 7138394 7170798 7200746 7228944 7258020 
1927.135 7289321 7322074 7353144 7379228 7398607 7412864 7426851 7446334 
1930.992 7475525 7515607 7563818 7615576 7666530 7714185 7758202 7799424 
1934.850 7838524 7874625 7905734 7930232 7947712 7960637 7972853 7987601 
1938.707 8006097 8026279 8043764 8054531 8056725 8052337 8047274 8048151 
1942.564 8059898 8083595 8116542 8154320 8193418 8232959 8274665 8321069 
1946.422 8373491 8430852 8489234 8544582 8594598 8639312 8682241 8726965 
1950.279 8776832 8832082 8891397 8951600 9010694 9068376 9125930 9184101 
1954.137 9243295 9301583 9356325 9405045 9447643 9486112 9524822 9568041 
1957.994 9618277 9676141 9740010 9807854 9878353 9950931 10025454 10100125 
1961.852 10171350 10233969 10283773 10318788 10340843 10355061 10366362 
1965.227 10378782 10393068 10406643 10416927 10423035 10427956 10437256 
1968.602 10457451 10492039 10539902 10595649 10653134 10707469 10758786 
1971.977 10810723 10868847 10937174 11016115 11102820 11194234 11290735 
1975.353 11396985 11521157 11670211 11843832 12031863 12214728 12369305 
1978.728 12477899 12532360 12536862 12504770 12454098 12401079 12355804 
1982.103 12322363 12299185 12282585 12268474 12254807 12241208 12228632 
1985.478 12219328 12216126 12222873 12243492 12282006 12340055 12415978 
1988.854 12504668 12598834 12691826 12780060 12864047 12948697 13040877 
1992.229 13146053 13266730 13400870 13543393 13688629 13830254 13964808 
1995.604 14088793 14199392 14294885 14374439 14439413 14493505 14543662 
1998.979 14596875 14658456 14730363 14810271 14892799 14970747 15039482 
2002.354 15096701 15145384 15191328 15241290 15302277 15379681 15476086 
2005.730 15591711 15724234 15868999 16018488 16164348 16299764 16420152 
2009.105 16525976 16622672 16719352 16824736 16944854 17081928 17233764 
2012.480 17395380 17561988 17730700 17900788 18072150 18244238 18415530 
2015.855 18582082 18740776 18889802 19029776 19162036 19289004 19410776 
2019.231 19525408 19629152 19718738 19792182 19849406 19891480 19919298 
2022.606 19931788 19926792 19901260 19853290 19783652 19694710 19590572 
2025.981 19474986 19350768 19219352 19081740 18939880 18796926 18655922 
2029.356 18519526 18387910 18259408 18131636 18003728 17878898 17765630 
2032.732 17673962 17614366 17591938 17604738 17642350 17690078 17734532 
2036.107 17766424 17784062 17792382 17799148 17811956 17834566 17866710 
2039.482 17904828 17945020 17982420 18014228 18037404 18048870 18044932 
2042.857 18022792 17981626 17923092 17852210 17775986 17700638 17631378 
2046.233 17571444 17522488 17483782 17454462 17430664 17406174 17370482 
2049.608 17312030 17218734 17083408 16906406 16696695 16469430 16241768 
2052.983 16029008 15839925 15674353 15525189 15381809 15234530 15078073 
2056.358 14912413 14741538 14570593 14403483 14241367 14083350 13929429 
2059.734 13779939 13638331 13507706 13391336 13288970 13197728 13113097 
2063.109 13030224 12947674 12866470 12789786 12720929 12661087 12609066 
2066.484 12560940 12512750 12462247 12408750 12353316 12297071 12239811 
2069.859 12179866 12114478 12041776 11961116 11874649 11785134 11694957 
2073.235 11604220 11510848 11411407 11303691 11187434 11066144 10944548 
2076.610 10828421 10721257 10623661 10533928 10449203 10367312 10287878 
2079.985 10211444 10139670 10072792 10009890 9949100 9888691 9828562 9770542 
2083.843 9717172 9670923 9631963 9598256 9566111 9531223 9491734 9447304 
2087.700 9400271 9352702 9305611 9258052 9206979 9148872 9081368 9004402 
2091.557 8920077 8832657 8746336 8664967 8591725 8529005 8478793 8442710 
2095.415 8420852 8411832 8411292 8413792 8413420 8406022 8390651 8369235 
2099.272 8345286 8321812 8299656 8277198 8251768 8220938 8184876 8146420 
2103.130 8110567 8081636 8062463 8051966 8047071 8042785 8036169 8026111 
2106.987 8014129 8002653 7993879 7988310 7985172 7982640 7979839 7976870 
2110.844 7975148 7975654 7979130 7984328 7988917 7990436 7987230 7979232 
2114.702 7967589 7954393 7941334 7929490 7919433 7911436 7906274 7904823 
2118.559 7907455 7912887 7918421 7919164 7911065 7890955 7859071 7818046 
2122.417 7772909 7728992 7689767 7656818 7629368 7605966 7585330 7567123 
2126.274 7551984 7540454 7531991 7524440 7514798 7500032 7478222 7449266 
2130.132 7414852 7377644 7340844 7308022 7282683 7269475 7272474 7295689 
2133.989 7340439 7404336 7481222 7561728 7637494 7702246 7754761 7797231 
2137.846 7834677 7871047 7907354 7941908 7971098 7991482 8001911 8003025 
2141.704 7997220 7986521 7970423 7948084 7918084 7881103 7840986 7804315 
2145.561 7777935 7765522 7766972 7777159 7788055 7792508 7786065 7768153 
2149.419 7740527 7705348 7663293 7612912 7551040 7476132 7388058 7289927 
2153.276 7184307 7074569 6961594 6847772 6737110 6641650 6580488 6577460 
2157.134 6655646 6827442 7087434 7409055 7752400 8075560 8343057 8537756 
2160.991 8658478 8717735 8733016 8722975 8702625 8682274 8667097 8658410 
2164.848 8653678 8647019 8631640 8601763 8554349 8492072 8421460 8352245 
2168.706 8293274 8249438 8220128 8200171 8182715 8162052 8136224 8107967 
2172.563 8083358 8068202 8066413 8078868 8103849 8138047 8178191 8221951 
2176.421 8266019 8307627 8342686 8367782 8382612 8389604 8395245 8408116 
2180.278 8434906 8479199 8538906 8608421 8680517 8749683 8813890 8874014 
2184.135 8931914 8987455 9037928 9077409 9100925 9105053 9090673 9061880 
2187.993 9024767 8984039 8942061 8898262 8851120 8799418 8744409 8690624 
2191.850 8642828 8604805 8578004 8560398 8547624 8534816 8518631 8497242 
2195.708 8471022 8441224 8409569 8377714 8348157 8323400 8307323 8302594 
2199.565 8310497 8328972 8353325 8377106 8394165 8400583 8396192 8383017 
2203.423 8365114 8345962 8327993 8311950 8298609 8288747 8283986 8286012 
2207.280 8296651 8315564 8341436 8371768 8405110 8440919 8480551 8524342 
2211.137 8572327 8621095 8666015 8701171 8723111 8730954 8728249 8720135 
2214.995 8711650 8705667 8702083 8698095 8690759 8678320 8661182 8641509 
2218.852 8621602 8602506 8582870 8560263 8531978 8496972 8456090 8412677 
2222.710 8370147 8331405 8297359 8268011 8242617 8221106 8204460 8193655 
2226.567 8189130 8189434 8192001 8193891 8192811 8189029 8184775 8183761 
2230.425 8188287 8198989 8213745 8229414 8242954 8253795 8263588 8275239 
2234.282 8291889 8313537 8338498 8363154 8383963 8399671 8411562 8423150 
2238.139 8438791 8461157 8490856 8525828 8563506 8600952 8637015 8671423 
2241.997 8704416 8736025 8764863 8789410 8808074 8820686 8828159 8832284 
2245.854 8834618 8835666 8834821 8830594 8821836 8808751 8792825 8776358 
2249.712 8760738 8746741 8733658 8720541 8707188 8695458 8688325 8689880 
2253.569 8702828 8727336 8759995 8795563 8828058 8852541 8866575 8870226 
2257.427 8864951 8853217 8836715 8817035 8795192 8772200 8749514 8727674 
2261.284 8706952 8686433 8664663 8640225 8612781 8584256 8558066 8537824 
2265.141 8526571 8525186 8532180 8544515 8558572 8571921 8583310 8592875 
2268.999 8601019 8607374 8611226 8611395 8607306 8599295 8589360 8580133 
2272.856 8574219 8572631 8575301 8580403 8585947 8590475 8593618 8595544 
2276.714 8597572 8600141 8603689 8608590 8615079 8623698 8635798 8651921 
2280.571 8672809 8697655 8724767 8751745 8776494 8797321 8813417 8823932 
2284.428 8828227 8825488 8815005 8796815 8771895 8742684 8712563 8684506 
2288.286 8661283 8643166 8629545 8618729 8608928 8598924 8588616 8578342 
2292.143 8568339 8558539 8548502 8537655 8525659 8512886 8500418 8489098 
2296.001 8479773 8472137 8465414 8458826 8452069 8445751 8441292 8440312 
2299.858 8443723 8451021 8460954 8471360 8480516 8487545 8492815 8497749 
2303.716 8504033 8512954 8525355 8541338 8560634 8582600 8606968 8633127 
2307.573 8659661 8685182 8707898 8726559 8740656 8750866 8759116 8767399 
2311.430 8777407 8789781 8804253 8819368 8834314 8848077 8861029 8874184 
2315.288 8888557 8905635 8925623 8948488 8973687 9000275 9027609 9055316 
2319.145 9083703 9113512 9145997 9182037 9221938 9264484 9305984 9340751 
2323.003 9361944 9363231 9340886 9295084 9230874 9157366 9085361 9025410 
2326.860 8985865 8970812 8979844 9009477 9054437 9108977 9168229 9229113 
2330.718 9289194 9346507 9399729 9447067 9487433 9520114 9545144 9562926 
2334.575 9573935 9578948 9578575 9573800 9565908 9556355 9546499 9536914 
2338.432 9527159 9515611 9500201 9479509 9452993 9421941 9388759 9355478 
2342.290 9323587 9292477 9259677 9222040 9177062 9124441 9066719 9009409 
2346.147 8959684 8925049 8910979 8920652 8954137 9008631 9079440 9160277 
2350.005 9244682 9326261 9400407 9464676 9518929 9565298 9606928 9646632 
2353.862 9686203 9725371 9762748 9796332 9824800 9847305 9864049 9875336 
2357.719 9881438 9882217 9877607 9868422 9855812 9842289 9829612 9818970 
2361.577 9810498 9802635 9793993 9783521 9771694 9760817 9753124 9750820 
2365.434 9754344 9762240 9771897 9780302 9785589 9786910 9785182 9781725 
2369.292 9777862 9774473 9771660 9769356 9767695 9767323 9768644 9771999 
2373.149 9777286 9783555 9789756 9795247 9799585 9802974 9806024 9808904 
2377.007 9811345 9812904 9812802 9811006 9807854 9804566 9802262 9801619 
2380.864 9802397 9803584 9804059 9803143 9800771 9797856 9795823 9795315 
2384.721 9796975 9800432 9805176 9811108 9819106 9830324 9846322 9867879 
2388.579 9894318 9924048 9954559 9983749 10010942 10036542 10062211 10089510 
2392.436 10119457 10151711 10185122 10218229 10250050 10280618 10310814 
2395.812 10341556 10373827 10407221 10441091 10474422 10506194 10536033 
2399.187 10563633 10588994 10611335 10629671 10642744 10649874 10651402 
2402.562 10648584 10643456 10637718 10632522 10627735 10622914 10617074 
2405.937 10610113 10602508 10595479 10590455 10588111 10588757 10591914 
2409.313 10597313 10605122 10616055 10631063 10650893 10675343 10703699 
2412.688 10734162 10765716 10797916 10831546 10867829 10908191 10953416 
2416.063 11002962 11055947 11111250 11168498 11227895 11290531 11357257 
2419.438 11427769 11500334 11572435 11640294 11701049 11752690 11794837 
2422.813 11827931 11853366 11872572 11886669 11897022 11904548 11910337 
2426.189 11915377 11920247 11925084 11929545 11933495 11936697 11939728 
2429.564 11943406 11948583 11955770 11964522 11973991 11982881 11990476 
2432.939 11997051 12004340 12014729 12030365 12053121 12083339 12119828 
2436.314 12160716 12203686 12246831 12288447 12327476 12363509 12396203 
2439.690 12425866 12452802 12478274 12503645 12529972 12557972 12587987 
2443.065 12619505 12652048 12685514 12719905 12756038 12794392 12835207 
2446.440 12877665 12920536 12961807 12999496 13032238 13059041 13079564 
2449.815 13093872 13102375 13105721 13105209 13102750 13100394 13100189 
2453.191 13103638 13110912 13121157 13132837 13144039 13153806 13162276 
2456.566 13170199 13179285 13190966 13205756 13223893 13245072 13269122 
2459.941 13296315 13326825 13361403 13400494 13443656 13490479 13540077 
2463.316 13592551 13647631 13706171 13768857 13835761 13906608 13980786 
2466.692 14057647 14137362 14220961 14309439 14403791 14504124 14609382 
2470.067 14717407 14826659 14935904 15045657 15157873 15275266 15400450 
2473.442 15535663 15681705 15838517 16006317 16185086 16375557 16579090 
2476.817 16797112 17031028 17281894 17550536 17837466 18143244 18468458 
2480.193 18813154 19176926 19559030 19957598 20370734 20795598 21228704 
2483.568 21664438 22095660 22513420 22907096 23265858 23580134 23842270 
2486.943 24047372 24193256 24279830 24308526 24282140 24204850 24082078 
2490.318 23920578 23728416 23513916 23285084 23048686 22810110 22573202 
2493.694 22341412 22117660 21905732 21709476 21532668 21378554 21249444 
2497.069 21146426 21070352 21021696 21001978 21013488 21059014 21141660 
2500.444 21263884 21427738 21634522 21884996 22180316 22521376 22909682 
2503.819 23345706 23829948 24361302 24937240 25553372 26202862 26876270 
2507.195 27560752 28240126 28895774 29505600 30046966 30497044 30833604 
2510.570 31038760 31098766 31006908 30764350 30380546 29872942 29264056 
2513.945 28580176 27848936 27094624 26338910 25598812 24885868 24207442 
2517.320 23566876 22964628 22399182 21867330 21365884 20891474 20441372 
2520.696 20013942 19608770 19225862 18866374 18530902 18220258 17934246 
2524.071 17672340 17433560 17217286 17022412 16848294 16694045 16558986 
2527.446 16441898 16341668 16257109 16187150 16130200 16084775 16049121 
2530.821 16020894 15998686 15981086 15967816 15959635 15957400 15961869 
2534.197 15972732 15988579 16006937 16025227 16041040 16053280 16061945 
2537.572 16068066 16072948 16077625 16082816 16088901 16096225 16105166 
2540.947 16116342 16130853 16148837 16170366 16194992 16221715 16249817 
2544.322 16279090 16309809 16342459 16377518 16415471 16455734 16498340 
2547.698 16543256 16590862 16641710 16696833 16756508 16820740 16889320 
2551.073 16961116 17035542 17112084 17190466 17270344 17351306 17432594 
2554.448 17513242 17593042 17671926 17751098 17832910 17919364 18012604 
2557.823 18114122 18224542 18343736 18471640 18607914 18752364 18904510 
2561.198 19063770 19228806 19398788 19572546 19749808 19930920 20117176 
2564.574 20309382 20508200 20713262 20922800 21135190 21347960 21558852 
2567.949 21766394 21968950 22165254 22353238 22531044 22696038 22846012 
2571.324 22978706 23092746 23187420 23262536 23318506 23356686 23378994 
2574.699 23387176 23383610 23370464 23349238 23321582 23289140 23253412 
2578.075 23216814 23182072 23151910 23129020 23115496 23112526 23120982 
2581.450 23141566 23175082 23222862 23286342 23366546 23464040 23578560 
2584.825 23709064 23854660 24015014 24190628 24382610 24592280 24820364 
2588.200 25066436 25329152 25606088 25894912 26193570 26500498 26814202 
2591.576 27132784 27453614 27773126 28087222 28391422 28681680 28953998 
2594.951 29204656 29429182 29622892 29781096 29899172 29973934 30003754 
2598.326 29988844 29931086 29833122 29697818 29528298 29327894 29099770 
2601.701 28848464 28578868 28296354 28006706 27715202 27426296 27144002 
2605.077 26871724 26612334 26368448 26142576 25936766 25752744 25591784 
2608.452 25455160 25343868 25259052 25201882 25173160 25173440 25202092 
2611.827 25257926 25339232 25443848 25569080 25712174 25869696 26037512 
2615.202 26211028 26385420 26556430 26720990 26877610 27026176 27167740 
2618.578 27303562 27434730 27561954 27685680 27806648 27925852 28045088 
2621.953 28166122 28290412 28418590 28549708 28681610 28811426 28935156 
2625.328 29048752 29147814 29227690 29283550 29310348 29303362 29258278 
2628.703 29171768 29041916 28867834 28650746 28392874 28098354 27772492 
2632.079 27421638 27053292 26674656 26292512 25912814 25539912 25177232 
2635.454 24827100 24491306 24171256 23867928 23582372 23314732 23064444 
2638.829 22830296 22610864 22404556 22210026 22025974 21851720 21686138 
2642.204 21528002 21376256 21229994 21088474 20951730 20820104 20694914 
2645.580 20576532 20465858 20362992 20267580 20179718 20099096 20025564 
2648.955 19959160 19899700 19846320 19798632 19755700 19717144 19683096 
2652.330 19654286 19631336 19615112 19605788 19603118 19606204 19614176 
2655.705 19626242 19641910 19660906 19683062 19708232 19736318 19766972 
2659.081 19800124 19835812 19874068 19915034 19958536 20003880 20050548 
2662.456 20097916 20145810 20194576 20245258 20299312 20357714 20421160 
2665.831 20489894 20563644 20641782 20723828 20809120 20897316 20987998 
2669.206 21080370 21174014 21268650 21363866 21460356 21558712 21659634 
2672.582 21763330 21869698 21978360 22088756 22201064 22315564 22433374 
2675.957 22555544 22682458 22813882 22949014 23086388 23224784 23363784 
2679.332 23503912 23646362 23792602 23944108 24101936 24266864 24439040 
2682.707 24618860 24806542 25002166 25205744 25416972 25635226 25860270 
2686.083 26092292 26332186 26581404 26841974 27115714 27403886 27707434 
2689.458 28026886 28362702 28715698 29086872 29477088 29886998 30316054 
2692.833 30762430 31223576 31695906 32176134 32660470 33145342 33626572 
2696.208 34098584 34554712 34986432 35383532 35735160 36030404 36259140 
2699.583 36413796 36489180 36484392 36401728 36247400 36030620 35762072 
2702.959 35453848 35118256 34765908 34407352 34051204 33704804 33374206 
2706.334 33063706 32776258 32512962 32273452 32056152 31858646 31678264 
2709.709 31512774 31359960 31218272 31086594 30964066 30849894 30743900 
2713.084 30646178 30556728 30476358 30405670 30344870 30293850 30252354 
2716.460 30219354 30194062 30175736 30163980 30158368 30158864 30165116 
2719.835 30176268 30192074 30211432 30233456 30257648 30283298 30309838 
2723.210 30337232 30365196 30394190 30424824 30457414 30492958 30531632 
2726.585 30574076 30620544 30671496 30727824 30791132 30862880 30945030 
2729.961 31038760 31144578 31262246 31390268 31527348 31671740 31822312 
2733.336 31978000 32138564 32303608 32473006 32646428 32823712 33004820 
2736.711 33190012 33379254 33572728 33769872 33970044 34171736 34373172 
2740.086 34572220 34766660 34954432 35133200 35300684 35455144 35594412 
2743.462 35717568 35823884 35912808 35984328 36038216 36074472 36092832 
2746.837 36093736 36078112 36047724 36005276 35954452 35899060 35842528 
2750.212 35788444 35739584 35698644 35667600 35648036 35641060 35647352 
2753.587 35666596 35697892 35739548 35789956 35846844 35908452 35972448 
2756.963 36036780 36099208 36157756 36211056 36258312 36299552 36335436 
2760.338 36367068 36395240 36420356 36442228 36460424 36474660 36485148 
2763.713 36492860 36499884 36508608 36521400 36540756 36568760 36606972 
2767.088 36656504 36718516 36793668 36882248 36984884 37101508 37232460 
2770.464 37378220 37539596 37717552 37912860 38125476 38354596 38598640 
2773.839 38855076 39121812 39397052 39679988 39970736 40269748 40577552 
2777.214 40894236 41219096 41550836 41887096 42225884 42564680 42901288 
2780.589 43233764 43559976 43877968 44185624 44481384 44763280 45030216 
2783.965 45281360 45516524 45736320 45942200 46136080 46320876 46499368 
2787.340 46674504 46849264 47026312 47207756 47395816 47592680 47799512 
2790.715 48017544 48246792 48486276 48733716 48985780 49238476 49486828 
2794.090 49726660 49953616 50164252 50356688 50530292 50686504 50828732 
2797.466 50962324 51094284 51231832 51383152 51555156 51753880 51984140 
2800.841 52249012 52550544 52889520 53265244 53676572 54121392 54597064 
2804.216 55100716 55629396 56179800 56749212 57333968 57930228 58533412 
2807.591 59138040 59738496 60329156 60904232 61458424 61987032 62485520 
2810.967 62949844 63376508 63762264 64104272 64399660 64645612 64839064 
2814.342 64977312 65057472 65078260 65039964 64944216 64795016 64597316 
2817.717 64357124 64080656 63774736 63445828 63101204 62748416 62394812 
2821.092 62047576 61712680 61394800 61097096 60821632 60569800 60342636 
2824.468 60141008 59965684 59816708 59693672 59595484 59520960 59468860 
2827.843 59438920 59431172 59446408 59485280 59548432 59635436 59745792 
2831.218 59878204 60031384 60204108 60394532 60601188 60821820 61054768 
2834.593 61298748 61553368 61819904 62100552 62398332 62715836 63054956 
2837.969 63416920 63802248 64212120 64648992 65117016 65621732 66170140 
2841.344 66768616 67423256 68139424 68921856 69776152 70708680 71726448 
2844.719 72836800 74045000 75352056 76751776 78229008 79759264 81305352 
2848.094 82822088 84258960 85560080 86676040 87565624 88201288 88573616 
2851.469 88691336 88580328 88276712 87826264 87278600 86679072 86072376 
2854.845 85496504 84980448 84547088 84210288 83975760 83842992 83806144 
2858.220 83856504 83983480 84176896 84427352 84725536 85062904 85430984 
2861.595 85820336 86221624 86625072 87020104 87396904 87745968 88058616 
2864.970 88329096 88554440 88735600 88877640 88989136 89080576 89163032 
2868.346 89246896 89340944 89452000 89584944 89742904 89927088 90137232 
2871.721 90370952 90624464 90893368 91173552 91462056 91757416 92059128 
2875.096 92367192 92680000 92994624 93306232 93609312 93899600 94175392 
2878.471 94438800 94694576 94951288 95218176 95504632 95819616 96171048 
2881.847 96564480 97004248 97492736 98029432 98611424 99233984 99891024 
2885.222 100575272 101280896 102001760 102732288 103467296 104200504 
2888.115 104925632 105636808 106329080 106999872 107648560 108276488 
2891.008 108886424 109481232 110063912 110637248 111204280 111768624 
2893.901 112334224 112905840 113488144 114085632 114702400 115343216 
2896.794 116012160 116714336 117454384 118236064 119060864 119927848 
2899.687 120833232 121771128 122733512 123712648 124699352 125684408 
2902.580 126658128 127609848 128529016 129406408 130234392 131008208 
2905.473 131726416 132389680 133000656 133562384 134079408 134556480 
2908.366 134999216 135414928 135811344 136195648 136574480 136951872 
2911.260 137330048 137708512 138084448 138451840 138800816 139118384 
2914.153 139386688 139585632 139696496 139702992 139596416 139376224 
2917.046 139051104 138636224 138150112 137612208 137038416 136440240 
2919.939 135824256 135191696 134540176 133865240 133161632 132426616 
2922.832 131660952 130870208 130065920 129264368 128483088 127740520 
2925.725 127052512 126429992 125879440 125402776 124997896 124660272 
2928.618 124383096 124158360 123976616 123828528 123705600 123600288 
2931.511 123507896 123425872 123352880 123288840 123232592 123182256 
2934.404 123135000 123087096 123034928 122975024 122904400 122819408 
2937.297 122716760 122592656 122444032 122269728 122070512 121848720 
2940.190 121608712 121354328 121088016 120810520 120520400 120215088 
2943.083 119891640 119547456 119180176 118787584 118367200 117916400 
2945.976 117433016 116916304 116367800 115792736 115199344 114597864 
2948.869 114001136 113423048 112876832 112377224 111938856 111574944 
2951.762 111298936 111121896 111051416 111092192 111244352 111503280 
2954.656 111859504 112298864 112801256 113340368 113886688 114407528 
2957.549 114870072 115248760 115525488 115693520 115758392 115735768 
2960.442 115649016 115523152 115384528 115255288 115151528 115083752 
2963.335 115054560 115060392 115090704 115130400 115162488 115168584 
2966.228 115133296 115045232 114898264 114691536 114429224 114119544 
2969.121 113772792 113401712 113019728 112638512 112269128 111919688 
2972.014 111594440 111294352 111017696 110760208 110517192 110283528 
2974.907 110054992 109827768 109598616 109364976 109124448 108875864 
2977.800 108618536 108352728 108079896 107801848 107521040 107240592 
2980.693 106963880 106695568 106440544 106204536 105992808 105809640 
2983.586 105657472 105536624 105445760 105381856 105341016 105318936 
2986.479 105310528 105310280 105311920 105307656 105288824 105246648 
2989.372 105171376 105054080 104886440 104661648 104375032 104025704 
2992.265 103616920 103156288 102655896 102131224 101597128 101067376 
2995.158 100551840 100054816 99576024 99111880 98657032 98206408 97756704 
2998.534 97307104 96858736 96414528 95978080 95553392 95144088 94752592 
3001.909 94380736 94029096 93697408 93384688 93090024 92812536 92551432 
3005.284 92306376 92076576 91860568 91656744 91461888 91272552 91085024 
3008.659 90895856 90701792 90500256 90288832 90065480 89828832 89577984 
3012.035 89313272 89035952 88748488 88453376 88153872 87852912 87553136 
3015.410 87257496 86969136 86691008 86426352 86177296 85944544 85727400 
3018.785 85523528 85329392 85141256 84955584 84769112 84578696 84380984 
3022.160 84172232 83947824 83703432 83435144 83140480 82818632 82470552 
3025.536 82098400 81705176 81293288 80865224 80422552 79966464 79497928 
3028.911 79017608 78526264 78024304 77512456 76991088 76460904 75922680 
3032.286 75377048 74824656 74265728 73700928 73130704 72556680 71981352 
3035.661 71407872 70840336 70282664 69737840 69208072 68693888 68195088 
3039.037 67710568 67239512 66780940 66334432 65899952 65476776 65064512 
3042.412 64662644 64270096 63885844 63508840 63137368 62769936 62404376 
3045.787 62038704 61671584 61302372 60931260 60559172 60187440 59816328 
3049.162 59445840 59075096 58702732 58327736 57950216 57570684 57190956 
3052.538 56812388 56435584 56059748 55683144 55303552 54918804 54528464 
3055.913 54133288 53735740 53339192 52947192 52562508 52187204 51822120 
3059.288 51467448 51122420 50786456 50458200 50136992 49821932 49513080 
3062.663 49210864 48916872 48632564 48360444 48102372 47859588 47632688 
3066.039 47421612 47225524 47043740 46875288 46719076 46573944 46438636 
3069.414 46311772 46192388 46080040 45975128 45878960 45793312 45719756 
3072.789 45659536 45613012 45579416 45557480 45545668 45541952 45544748 
3076.164 45552548 45564104 45578088 45594060 45611428 45630496 45651440 
3079.540 45674404 45698772 45723916 45747992 45769564 45787168 45800272 
3082.915 45809072 45814300 45816512 45816032 45812424 45804948 45792576 
3086.290 45775308 45753880 45729768 45705144 45682172 45661892 45644776 
3089.665 45630200 45617320 45605028 45592624 45579636 45566164 45552548 
3093.041 45538568 45524104 45508908 45492424 45474620 45455524 45435328 
3096.416 45414616 45394196 45374628 45356828 45341192 45328172 45317804 
3099.791 45310044 45304712 45301588 45301292 45304012 45310924 45322804 
3103.166 45340348 45364000 45393940 45430252 45473148 45523148 45581144 
3106.542 45647720 45723548 45808740 45902200 46003192 46110512 46223716 
3109.917 46343108 46469684 46604672 46749440 46904336 47068780 47240816 
3113.292 47417880 47596600 47773584 47945788 48110852 48266712 48412408 
3116.667 48547596 48672260 48786912 48892024 48987708 49074176 49151124 
3120.042 49218288 49275476 49322952 49361036 49390956 49414012 49431684 
3123.418 49445572 49456676 49465660 49472716 49477876 49480512 49480660 
3126.793 49478732 49475500 49472344 49470748 49471788 49475832 49482148 
3130.168 49488904 49494104 49495292 49491060 49480736 49465252 49445684 
3133.543 49423668 49400500 49376220 49350348 49321616 49288360 49249388 
3136.919 49203632 49150864 49091280 49025656 48954404 48878124 48797476 
3140.294 48712736 48624080 48532256 48437488 48340704 48243240 48146272 
3143.669 48051368 47959780 47872056 47788120 47707456 47628952 47551236 
3147.044 47473796 47396444 47319328 47243552 47169860 47099168 47031592 
3150.420 46967316 46905812 46846940 46790624 46736672 46685240 46636140 
3153.795 46588772 46542888 46497488 46451908 46405892 46359364 46312436 
3157.170 46265696 46219220 46173336 46127756 46082288 46036532 45990044 
3160.545 45942748 45894648 45845708 45796664 45747660 45699288 45651992 
3163.921 45606020 45561344 45517668 45474692 45431760 45388424 45344324 
3167.296 45299340 45253520 45207152 45160676 45114540 45068924 45024264 
3170.671 44980456 44937572 44894836 44852296 44809496 44766296 44722768 
3174.046 44679176 44635588 44591708 44547024 44500584 44451584 44399720 
3177.422 44345116 44288936 44233240 44179572 44129872 44084980 44044860 
3180.797 44008596 43975080 43943112 43911692 43880608 43850256 43821152 
3184.172 43794252 43770576 43750860 43735616 43724624 43717332 43712568 
3187.547 43708684 43704212 43698132 43689884 43680288 43670760 43663140 
3190.923 43659148 43660136 43666584 43678416 43695200 43716160 43740452 
3194.298 43767428 43795828 43824708 43853224 43880860 43907808 43935524 
3197.673 43965548 43999684 44039212 44084172 44133612 44186068 44239808 
3201.048 44293524 44347316 44401812 44457784 44516368 44577792 44641388 
3204.424 44706388 44771328 44835060 44896528 44954808 45009012 45058484 
3207.799 45103000 45142848 45179392 45214504 45250060 45287684 45327772 
3211.174 45369444 45410864 45450044 45485324 45516012 45542760 45566608 
3214.549 45588800 45610252 45631160 45651216 45670064 45687620 45703856 
3217.925 45719536 45734812 45750020 45765076 45780020 45794824 45810580 
3221.300 45828108 45848840 45873180 45901536 45933064 45966656 46001316 
3224.675 46036236 46071348 46106900 46143160 46180672 46219256 46259136 
3228.050 46300712 46344620 46391844 46443468 46500216 46561992 46628132 
3231.426 46697672 46769256 46842256 46916224 46990868 47066120 47141568 
3234.801 47216436 47289988 47362040 47432812 47503112 47574160 47647144 
3238.176 47722620 47800692 47880748 47961924 48042892 48122324 48198696 
3241.551 48270416 48336148 48394596 48445896 48491056 48532368 48572572 
3244.927 48614184 48658876 48706544 48755736 48804372 48850792 48894140 
3248.302 48934860 48974356 49014600 49056776 49101480 49148416 49196876 
3251.677 49246196 49296264 49347488 49400612 49456936 49517164 49581932 
3255.052 49652024 49727476 49808516 49894812 49985068 50077792 50171132 
3258.427 50262896 50352144 50438736 50522888 50605824 50688144 50769808 
3261.803 50849928 50927304 51001040 51070876 51137892 51203868 51270532 
3265.178 51339072 51409444 51480280 51549296 51614184 51673336 51725996 
3268.553 51772656 51814504 51852992 51889584 51925096 51960012 51994072 
3271.928 52026604 52056672 52083416 52105648 52122796 52134636 52141324 
3275.304 52143680 52143116 52140800 52138336 52136992 52137288 52139940 
3278.679 52144384 52149764 52154848 52158248 52158656 52155560 52149580 
3282.054 52141584 52133328 52126304 52121524 52119096 52118644 52119244 
3285.429 52120104 52120960 52121712 52122528 52123392 52123464 52121296 
3288.805 52115692 52105420 52090364 52071724 52051704 52032728 52017456 
3292.180 52007068 52001916 52001616 52004792 52009236 52013232 52014352 
3295.555 52010804 52001352 51985332 51963484 51937756 51910760 51885216 
3298.930 51863036 51845076 51829956 51815696 51799832 51780568 51757052 
3302.306 51730288 51702032 51674304 51648852 51626576 51607692 51592020 
3305.681 51579332 51569072 51561536 51556720 51554856 51555900 51559932 
3309.056 51566608 51576048 51587988 51602060 51618064 51635752 51655048 
3312.431 51676692 51701772 51731744 51768100 51811332 51861172 51916284 
3315.807 51975176 52035756 52097352 52159928 52224572 52292252 52363940 
3319.182 52439636 52518496 52599608 52681896 52765208 52850000 52937352 
3322.557 53028200 53123152 53221796 53323008 53424844 53525312 53622512 
3325.932 53715116 53802156 53883360 53959436 54031212 54100188 54167444 
3329.308 54234000 54299780 54364024 54425016 54480716 54529552 54570424 
3332.683 54602472 54625736 54640276 54645948 54642868 54631068 54611344 
3336.058 54584892 54553180 54517308 54477184 54431552 54378144 54314648 
3339.433 54239260 54151716 54053728 53948256 53838420 53726928 53615048 
3342.809 53502452 53388124 53270676 53149328 53023784 52894908 52763300 
3346.184 52629644 52494264 52357060 52217992 52077140 51934544 51790648 
3349.559 51645564 51499192 51351340 51202008 51051124 50899248 50746980 
3352.934 50594876 50443052 50291576 50140080 49988484 49837392 49687912 
3356.310 49541412 49398792 49260592 49125896 48993384 48861176 48728004 
3359.685 48593320 48457712 48322148 48187812 48055184 47923884 47793112 
3363.060 47661824 47529280 47395444 47261208 47127384 46995448 46866392 
3366.435 46740620 46618464 46500328 46385912 46275316 46168140 46063720 
3369.811 45961276 45859664 45758300 45656184 45553212 45448608 45341784 
3373.186 45232268 45119064 45001772 44880472 44756084 44630188 44504700 
3376.561 44381368 44261456 44145568 44033492 43924376 43817600 43712676 
3379.936 43608880 43506208 43404180 43302364 43199984 43096528 42991452 
3383.312 42885084 42778012 42671480 42566652 42464736 42366496 42272740 
3386.687 42182980 42096780 42013440 41931764 41850940 41770020 41688460 
3390.062 41605896 41522580 41438844 41355340 41272912 41192500 41114476 
3393.437 41039264 40966656 40895656 40825508 40754716 40682156 40607312 
3396.813 40530404 40452352 40374348 40297996 40223724 40151760 40081112 
3400.188 40010192 39937244 39861040 39780888 39696760 39609820 39520752 
3403.563 39430868 39340932 39251304 39161696 39071960 38981336 38888628 
3406.938 38793156 38694256 38591580 38485852 38378120 38269368 38160640 
3410.313 38052484 37944464 37836324 37727276 37617380 37507480 37398876 
3413.689 37292824 37190548 37091976 36996356 36902052 36807192 36710548 
3417.064 36611156 36509184 36404032 36296240 36185560 36071916 35955892 
3420.439 35838568 35721704 35607824 35498324 35394496 35295976 35201464 
3423.814 35109024 35017032 34924556 34831420 34738448 34646712 34557080 
3427.190 34470120 34386084 34304896 34225908 34149156 34073744 33999316 
3430.565 33925472 33852032 33779004 33707168 33637312 33570652 33507512 
3433.940 33447564 33389844 33333096 33275858 33217266 33157610 33097710 
3437.315 33037890 32978476 32918528 32855626 32786944 32709840 32621820 
3440.691 32522284 32412022 32292582 32166536 32036140 31902790 31766518 
3444.066 31626408 31480320 31326164 31162874 30990254 30810838 30628472 
3447.441 30448352 30275092 30111736 29958632 29813992 29674224 29535496 
3450.816 29394684 29250552 29103136 28953892 28804168 28654426 28504666 
3454.192 28353858 28201196 28046432 27890518 27735194 27582678 27434626 
3457.567 27292270 27155006 27022050 26891992 26762818 26633330 26502472 
3460.942 26370034 26236614 26103342 25971764 25843776 25720506 25601940 
3464.317 25486608 25372182 25256102 25136294 25012800 24886746 24761184 
3467.693 24639164 24522578 24411772 24305514 24201524 24097944 23993828 
3471.068 23889772 23787106 23687228 23590874 23497234 23405114 23312632 
3474.443 23218702 23123778 23029014 22936298 22847374 22763284 22683994 
3477.818 22609258 22538058 22469592 22402880 22336912 22270570 22202112 
3481.194 22130840 22056788 21981218 21906672 21835830 21770506 21710974 
3484.569 21655488 21600638 21542450 21477344 21403302 21319284 21225644 
3487.944 21123014 21012482 20894640 20770330 20641122 20508650 20375146 
3491.319 20242688 20112144 19983340 19854990 19725154 19592026 19455060 
3494.695 19314464 19171352 19027144 18883468 18741432 18602104 18466142 
3498.070 18334162 18206470 18082584 17960870 17839090 17714616 17585038 
3501.445 17449704 17309618 17167612 17027718 16893936 16768631 16652899 
3504.820 16545769 16444756 16346965 16249301 16149389 16045304 15936468 
3508.196 15822984 15706267 15588585 15472309 15360354 15254297 15154270 
3511.571 15059652 14968415 14879014 14789975 14700818 14612089 14524476 
3514.946 14438557 14354301 14271121 14188095 14104743 14020995 13937674 
3518.321 13855943 13776724 13700529 13626638 13553442 13479440 13402682 
3521.697 13322213 13237830 13150083 13060168 12969727 12880157 12792755 
3525.072 12708032 12626122 12546035 12466816 12387441 12307195 12225531 
3528.447 12143474 12061637 11981484 11903798 11829259 11757660 11689238 
3531.822 11623584 11560696 11500130 11441411 11383412 11324675 11263836 
3535.198 11199538 11131782 11061181 10989471 10918146 10848396 10780253 
3538.573 10713411 10647090 10581016 10515834 10452665 10393171 10338298 
3541.948 10288149 10241060 10194857 10146657 10093682 10034304 9967746 
3545.323 9894691 9816565 9736045 9656456 9581251 9513544 9455059 9405553 
3549.181 9362553 9321691 9277854 9226846 9166402 9097304 9023380 8948691 
3553.038 8878174 8814025 8756175 8702692 8651143 8599701 8547827 8496262 
3556.896 8446224 8398286 8351502 8304384 8254537 8200678 8143145 8083932 
3560.753 8026617 7974541 7930097 7893991 7864198 7836972 7807553 7770480 
3564.610 7720593 7654086 7569078 7466862 7352166 7233559 7121250 7024526 
3568.468 6949237 6897054 6864839 6846695 6835924 6826735 6814718 6797621 
3572.325 6774634 6745961 6712444 6674387 6632465 6587452 6540559 6493268 
3576.183 6446891 6402401 6359766 6317907 6275952 6232253 6186508 6138684 
3580.040 6090194 6042683 5998269 5959032 5926214 5900619 5881878 5867873 
3583.897 5854372 5836338 5806887 5759979 5691556 5601594 5495812 5384253 
3587.755 5279866 5194484 5135370 5103418 5093964 5099060 5109553 5117097 
3591.612 5115689 5101708 5073682 5032785 4981469 4923288 4862134 4801725 
3595.470 4744640 4692387 4645129 4602130 4561546 4521802 4481292 4438978 
3599.327 4394660 4349008 4303361 4259826 4220044 4185818 4158151 4136809 
3603.185 4120953 4108878 4097873 4085063 4066801 4040313 4002925 3953803 
3607.042 3893587 3825825 3756034 3690566 3634763 3592031 3561028 3537210 
3610.899 3514361 3485769 3447360 3398434 3342502 3286277 3236869 3199783 
3614.757 3176185 3163435 3155258 3143877 3122484 3085842 3032253 2964291 
3618.614 2887267 2809390 2738529 2681549 2641177 2617342 2607009 2605742 
3622.472 2609142 2614409 2620409 2628076 2638543 2652511 2667846 2678415 
3626.329 2675114 2646077 2581409 2477327 2342488 2197865 2070603 1984052 
3630.187 1947139 1953263 1985416 2025361 2057786 2073267 2069271 2049729 
3634.044 2021766 1993006 1968441 1949502 1934292 1919216 1901211 1878782 
3637.901 1852493 1824043 1795129 1766650 1738339 1709498 1679860 1649858 
3641.759 1621488 1597676 1581148 1572735 1571504 1574298 1576093 1571138 
3645.616 1554212 1521626 1472219 1407360 1331044 1248660 1165561 1086896 
3649.474 1016913 960224 921407 904506 911446 941064 988319 1044878 1099851 
3653.813 1142206 1162438 1154299 1118187 1061552 998315 943754 909121 899393 
3658.153 911578 937578 967530 993201 1008179 1009640 997950 975799 947539 
3662.492 917455 890727 870773 860514 860979 871869 890793 914069 936980 
3666.832 954413 960922 952886 928811 892420 852347 824494 826884 874126 
3671.172 972810 1118952 1300867 1500645 1698520 1875354 2010315 2086484 
3675.029 2094341 2036546 1927669 1787544 1633195 1473815 1312232 1149913 
3678.886 990013 839167 706660 599742 521743 470592 439679 421835 411255 
3683.226 406247 407673 417457 435533 458950 480643 492551 486580 458054 
3687.566 407574 341746 271087 206242 154763 119365 99214 91890 95469 108428 
3692.387 129772 157183 187512 216684 240818 257063 265153 266313 263893 
3696.727 261804 262832 268104 276260 284615 289124 286040 273475 251294 
3701.067 222386 191921 166464 151780 151316 165668 192617 227988 266976 
3705.406 305205 339590 368175 390660 406711 416396 418817 412781 396729 
3709.746 369668 331433 284349 232895 183634 143924 119696 114493 128446 
3714.085 157912 197358 239989 279608 310875 330969 339425 338463 331433 
3718.425 322049 312765 304277 295755 286339 275165 263296 252753 246023 
3722.765 244564 247714 253018 256931 255903 248907 237370 225966 220629 
3727.104 227027 247979 282426 325597 370165 407806 430989 435367 420077 
3731.444 389897 352092 315782 287234 267341 251659 232928 205048 166464 
3735.783 121685 80655 54044 48312 64119 96861 140245 188407 238531 290085 
3740.605 343371 396198 443195 473677 473544 430757 342674 223513 103191 
3744.945 18820 -6461 27767 102992 192882 273375 325465 339889 316611 264854 
3749.767 198451 131263 72470 25812 -7455 -25214 -24319 -662 45926 111278 
3754.588 187081 261904 326559 373183 399117 405915 398387 381971 361410 
3758.928 339624 318899 302254 293965 298109 317540 350865 392981 435467 
3763.268 469232 487708 488372 474606 453643 434604 424389 424256 431022 
3767.607 438418 440010 431752 413510 388968 364594 346421 338496 341879 
3771.947 355441 375836 399913 424389 447374 467341 483860 497129 507246 
3776.286 514180 516800 513649 503199 484889 460509 433675 410525 396231 
3780.626 393810 402002 416495 431221 439944 438982 428468 411719 393844 
3784.966 380445 375106 378423 389002 404158 421172 438418 454936 470360 
3789.305 484159 495802 505157 512587 519554 528013 539293 552961 566597 
3793.645 575687 575687 563047 538364 506351 475335 455533 453510 470957 
3797.984 502569 538563 566298 573464 551833 500114 426744 348743 287499 
3802.324 259881 271784 317672 383298 452150 507313 536207 532691 499816 
3806.664 448767 396961 361477 351230 366650 400410 443062 486812 527350 
3811.003 564705 601135 639394 679281 717048 745293 755549 740978 700587 
3815.343 641584 580067 534150 517961 535079 578872 635047 686483 717580 
3819.682 717447 682799 620778 547719 485021 448269 443394 465318 502635 
3824.022 541913 572469 588594 590286 582821 574028 572071 581493 602230 
3828.362 629837 658076 681239 695543 700819 698994 694381 690963 691793 
3832.701 698164 709747 724516 739916 752496 758271 753657 735701 703873 
3837.041 660930 613246 569218 537037 521511 523170 538231 560426 583418 
3841.380 601700 612483 614574 609032 598182 585409 574393 568786 571640 
3845.720 584612 607971 640323 679547 722757 767764 813174 858124 900655 
3850.060 937710 961984 963446 930505 853376 730457 575555 417291 289522 
3854.399 216286 203888 241448 310809 394109 478918 557805 627149 685985 
3858.739 734373 772013 798966 815464 822436 821672 816128 807066 795049 
3863.078 779050 758669 735236 714327 703275 709647 737195 783000 838072 
3867.418 888403 919780 921440 889930 832826 766967 712834 684857 686881 
3871.758 711971 747550 780942 803846 814867 818718 823896 838005 865527 
3876.097 904738 949731 991241 1020733 1031095 1018208 982773 930472 871636 
3880.437 818817 783929 774635 791829 829507 876417 920012 947373 949997 
3884.776 926620 884917 839798 808261 803282 828378 877812 939039 997983 
3889.116 1041756 1060987 1052717 1020666 974703 927052 889399 868947 867851 
3893.456 883622 911744 947108 985164 1021662 1053813 1078725 1094569 1099784 
3897.795 1094636 1080718 1061452 1041192 1023821 1011666 1004824 1000108 
3901.653 993832 981810 961719 934423 904240 877114 859850 857161 870109 
3905.992 896139 930505 967464 1002101 1030929 1052385 1067099 1076433 
3909.850 1082644 1088025 1094204 1102508 1113836 1128552 1146292 1166226 
3913.707 1186259 1203902 1216528 1221944 1219452 1209983 1195895 1180479 
3917.564 1167023 1157488 1153169 1154066 1159880 1170545 1185861 1205431 
3921.422 1228125 1251484 1272021 1286045 1290398 1284283 1269329 1249424 
3925.279 1230019 1215897 1210182 1213106 1222875 1236133 1249092 1258862 
3929.137 1263746 1262982 1256834 1246135 1232411 1217492 1203437 1192772 
3932.994 1187655 1189515 1198187 1212275 1229121 1245669 1259293 1268598 
3936.852 1273483 1275277 1276042 1277371 1280462 1284915 1289468 1291894 
3940.709 1290265 1283286 1271389 1255904 1240319 1228291 1223473 1227792 
3944.566 1241815 1263481 1289268 1314492 1334733 1346299 1347562 1339087 
3948.424 1323001 1303027 1283320 1266704 1255638 1251019 1252548 1259559 
3952.281 1270592 1283652 1296912 1308211 1316054 1319677 1319544 1316985 
3956.139 1314160 1313196 1315423 1320940 1328584 1336561 1342743 1346199 
3959.996 1346199 1344039 1341048 1339186 1339419 1342344 1347496 1353877 
3963.854 1360558 1366142 1370263 1372690 1373454 1373022 1371959 1371493 
3967.711 1371626 1372790 1374751 1376845 1378606 1379138 1378507 1376645 
3971.568 1374319 1372258 1370961 1370629 1370995 1371693 1372723 1373953 
3975.426 1375515 1377809 1381033 1384856 1388977 1392733 1395758 1398185 
3979.283 1400279 1402839 1406263 1410950 1416468 1422352 1427504 1431327 
3983.141 1433355 1433621 1432624 1430928 1428867 1426939 1425377 1424114 
3986.998 1422618 1421055 1418662 1415371 1411282 1406927 1403171 1401276 
3990.855 1402008 1406063 1412811 1421321 1430064 1437710 1443362 1446886 
3994.713 1448880 1450476 1452437 1455197 1458954 1463142 1467398 1471620 
3998.570 1476009 1481195 1487280 1494694 1502773 
##END=
