
##TITLE=Z197_3_e
##JCAMP-DX=5.01  $$ Nicolet v. 1
##DATATYPE=INFRARED SPECTRUM
##ORIGIN=UniL
##OWNER=Nicolet
##LONGDATE=2011/09/08
##TIME=11:05:52
##SPECTROMETER/DATA SYSTEM=Nicolet iS5
##DATA PROCESSING=
Ratio against background
%Transmittance->Absorbance
Truncated
ElementMultiply or ElementDivide
##COMMENTS=
Number of sample scans: 32
Collection length: 51.14 sec
Sample gain: 2.0
Background collected on: Jeu Sep 08 10:53:33 2011 (GMT+02:00);
Number of background scans: 32
Background gain: 2.0
Sample spacing:  1.000
Number of scan points: 12415
Resolution points: 8192
Number of FFT points: 65536
Apodization: N-B fort;
Phase correction: Mertz;
Laser frequency: 15798.0 cm-1
Number of rejected sample scans: 0
Number of rejected background scans: 0
Bench serial number: ASB1000141;
##RESOLUTION=4.000
##XUNITS=1/CM
##YUNITS=ABSORBANCE
##FIRSTX=649.893372
##LASTX=4000.122314
##FIRSTY=0.098682
##MAXX=4000.122314
##MINX=649.893372
##MAXY=0.227345
##MINY=0.000672
##XFACTOR=1.000000
##YFACTOR=1.000000E-009
##NPOINTS=6950
##DELTAX=0.482117
##ZPD=6100
##XYDATA=(X++(Y..Y))
649.893 98682400 98877568 99141432 99474688 99851024 100236664 100608688 
653.268 100974720 101371152 101846688 102434488 103135912 103916720 
656.161 104725920 105518464 106276728 107013776 107760264 108541992 
659.054 109362424 110200200 111022792 111806472 112550480 113276328 
661.946 114012600 114778656 115570320 116364200 117129568 117846856 
664.839 118514048 119137008 119711680 120200664 120518608 120554944 
667.732 120223872 119530224 118578432 117514616 116446648 115404280 
670.624 114353168 113226392 111963640 110535480 108958640 107282752 
673.517 105573256 103879680 102221904 100594576 98983720 97385088 95814160 
676.892 94300976 92876880 91561448 90355040 89243880 88211880 87250568 
680.267 86364384 85564680 84860064 84247976 83711272 83226352 82770680 
683.642 82333632 81918072 81535120 81193648 80891608 80614712 80343128 
687.016 80062744 79773400 79491400 79241792 79046224 78909752 78817616 
690.391 78738440 78640304 78500704 78316216 78099976 77874000 77658008 
693.766 77460616 77280216 77109280 76942984 76782304 76633528 76502552 
697.141 76389432 76285424 76177696 76054432 75912776 75760560 75612256 
700.516 75480368 75368296 75267728 75162960 75038960 74889688 74721024 
703.890 74547704 74384544 74237976 74102648 73964808 73810840 73635520 
707.265 73446032 73257888 73087848 72944768 72825248 72717856 72609752 
710.640 72497096 72388840 72304536 72266264 72289984 72378000 72518864 
714.015 72689880 72865136 73017984 73121448 73150784 73081536 72896288 
717.390 72594952 72204360 71782536 71403424 71144568 71053240 71125360 
720.765 71295096 71446936 71449704 71179768 70564544 69595184 68322736 
724.139 66838092 65247648 63655444 62138172 60746548 59505644 58419948 
727.514 57481564 56675020 55982396 55383908 54860868 54398912 53986864 
730.889 53617260 53284872 52983540 52704940 52440724 52182272 51925544 
734.264 51671096 51423696 51187988 50966760 50757708 50554824 50351660 
737.639 50144432 49933952 49725472 49525484 49337352 49159696 48986448 
741.013 48810788 48627748 48437452 48244128 48054220 47872276 47699136 
744.388 47532720 47370428 47212560 47063496 46931392 46823356 46743276 
747.763 46688524 46651188 46620716 46588808 46551368 46508700 46463784 
751.138 46418504 46372156 46322316 46266688 46206100 46144336 46087336 
754.513 46039184 45999068 45960540 45913912 45851748 45772512 45682468 
757.888 45593800 45520204 45470756 45447796 45446912 45461704 45487236 
761.262 45523184 45572532 45639404 45724616 45824464 45933504 46048360 
764.637 46172676 46319072 46506744 46754608 47077640 47481852 47965660 
768.012 48525252 49161772 49887452 50731896 51742792 52987544 54560960 
771.387 56572800 59144836 62390760 66374124 71066784 76294672 81734888 
774.762 86889768 91145264 93924976 94758408 93434856 90051288 84998704 
778.136 78867040 72284808 65865332 60066728 55153684 51227132 48239016 
781.511 46056240 44502972 43415900 42661096 42137192 41781000 41552112 
784.886 41424300 41380488 41406984 41491920 41625988 41801064 42010852 
788.261 42251228 42519948 42816332 43141096 43495332 43880312 44297300 
791.636 44748588 45237228 45768244 46348672 46986440 47689852 48467644 
795.010 49327964 50279152 51330900 52493592 53779616 55204436 56786820 
798.385 58553392 60542296 62801332 65395644 68401344 71894624 75948136 
801.760 80609760 85887760 91729424 98008096 104520896 110963152 116966056 
805.135 122126784 126031328 128358480 128926080 127735792 124975800 
808.028 120993480 116247576 111198168 106291800 101902992 98278944 95557768 
811.402 93746160 92737224 92318424 92206192 92101360 91699384 90759240 
814.777 89136592 86784952 83762176 80200504 76288976 72225880 68198232 
818.152 64371148 60859596 57734448 55024436 52720576 50788284 49177544 
821.527 47837468 46718780 45781164 44996444 44343428 43806972 43375512 
824.902 43037328 42781596 42599032 42482200 42426996 42431852 42497768 
828.277 42626556 42820504 43082552 43414580 43816680 44285012 44810372 
831.651 45376656 45962752 46547680 47112984 47646808 48143388 48598692 
835.026 49002472 49333532 49555972 49624092 49495588 49139844 48551964 
838.401 47754164 46795236 45737464 44644400 43575324 42573816 41668584 
841.776 40876292 40203372 39649492 39209380 38873772 38629424 38460616 
845.151 38352712 38293104 38273168 38288436 38336464 38414464 38518980 
848.525 38644380 38785144 38937336 39099404 39272052 39457212 39656392 
851.900 39870480 40099648 40345152 40609348 40896348 41210428 41554152 
855.275 41927892 42329752 42757392 43210632 43692452 44208696 44767176 
858.650 45375772 46039844 46765936 47562884 48445564 49438704 50576004 
862.025 51896644 53445152 55264456 57392236 59858616 62676528 65831780 
865.400 69264408 72862584 76445136 79760696 82535936 84490336 85396984 
868.774 85140128 83728544 81304072 78096992 74405792 70535392 66741332 
872.149 63233636 60143064 57527372 55390460 53694872 52381992 51382440 
875.524 50631808 50075524 49669224 49383052 49196876 49096620 49072840 
878.899 49117324 49222112 49380748 49587912 49839772 50133868 50467800 
882.274 50838680 51243464 51679640 52146368 52645164 53179700 53753892 
885.648 54370524 55030492 55733128 56477696 57265612 58101436 58993144 
889.023 59952640 60994132 62135076 63396096 64798056 66357328 68077096 
892.398 69937120 71881600 73814920 75617296 77146512 78271976 78902880 
895.773 78995784 78566088 77674688 76416768 74896344 73212152 71456928 
899.148 69705936 68022456 66460492 65058200 63840480 62815844 61977556 
902.523 61307408 60781384 60378120 60080468 59877440 59762828 59730548 
905.897 59774008 59886800 60062888 60300412 60601112 60969924 61411364 
909.272 61928140 62520952 63191248 63943504 64789408 65745772 66832684 
912.647 68069000 69467448 71034192 72770232 74674424 76745448 78981800 
916.022 81378320 83920408 86581432 89324424 92100664 94854120 97524504 
919.397 100033208 102282160 104152576 105498936 106182072 106098344 
922.289 105209368 103570656 101333368 98737296 96052240 93555304 91495552 
925.664 90048112 89325968 89374896 90183848 91697136 93819728 96432776 
929.039 99381752 102490704 105582720 108472192 110991688 113003648 114389600 
932.414 115064840 114977832 114114672 112510856 110258072 107517136 
935.306 104497464 101453848 98672752 96418336 94933472 94414752 94984688 
938.681 96697672 99522440 103343608 107935472 112963208 118021128 122612560 
942.056 126238032 128479080 129028920 127781328 124837440 120496216 
944.949 115178216 109346224 103458168 97866984 92816808 88445248 84788040 
948.324 81816096 79458896 77633680 76254104 75239944 74525824 74054352 
951.698 73778432 73663552 73682040 73814528 74048064 74371736 74775528 
955.073 75248888 75779576 76355888 76968384 77609552 78275112 78962328 
958.448 79668056 80388656 81119000 81853648 82588832 83322928 84056656 
961.823 84792192 85531400 86274776 87021608 87770256 88519672 89270376 
965.198 90023976 90782512 91546520 92315312 93087192 93861024 94637672 
968.573 95421656 96219136 97037760 97883544 98759928 99668928 100612072 
971.947 101592736 102617584 103695080 104834392 106042424 107322544 
974.840 108674744 110097560 111590240 113153640 114790136 116500888 
977.733 118282968 120127912 122022376 123948496 125888912 127827048 
980.625 129745912 131628024 133452488 135194224 136828592 138334912 
983.518 139701840 140930160 142031856 143025504 143930512 144764416 
986.411 145542080 146276816 146983648 147680240 148383904 149108624 
989.304 149860960 150638816 151432624 152231120 153026752 153816960 
992.196 154604576 155394048 156187152 156979936 157765072 158533264 
995.089 159278800 159999648 160696448 161368400 162009552 162607792 
997.982 163149440 163622912 164026640 164369456 164671056 164954688 
1000.874 165241184 165547408 165884912 166263056 166694160 167192544 
1003.767 167773008 168446800 169216704 170076784 171015568 172023520 
1006.660 173098672 174250528 175497360 176862416 178367824 180029600 
1009.552 181858944 183861808 186038736 188377168 190840400 193358880 
1012.445 195813936 198049008 199895344 201188512 201819664 201758160 
1015.338 201062608 199865728 198347552 196711744 195135440 193760800 
1018.231 192684704 191951520 191565424 191499040 191707488 192135840 
1021.123 192730976 193452240 194271088 195173792 196156944 197220464 
1024.016 198361904 199573856 200844272 202161008 203515824 204904848 
1026.909 206327680 207782192 209260080 210746592 212222512 213668928 
1029.802 215073520 216430624 217738112 218992912 220184480 221294064 
1032.695 222300640 223185648 223941408 224573664 225099008 225538928 
1035.588 225911680 226230720 226504208 226737840 226937632 227107824 
1038.481 227246224 227336256 227344624 227221216 226903888 226334464 
1041.374 225464816 224261904 222710864 220809200 218564528 215994064 
1044.267 213129200 210020096 206731744 203346880 199953280 196628576 
1047.160 193441264 190440640 187657936 185114000 182819520 180777488 
1050.053 178982384 177417792 176056720 174862560 173797168 172825456 
1052.947 171919584 171062464 170242208 169448160 168667232 167880784 
1055.840 167066112 166202000 165267984 164246800 163123120 161878448 
1058.733 160492576 158945328 157220896 155314064 153233600 151002400 
1061.626 148652064 146216912 143731360 141224112 138720864 136246736 
1064.519 133824928 131478520 129228088 127086968 125062224 123154144 
1067.412 121358800 119671960 118091576 116617888 115252744 113996792 
1070.305 112847400 111798752 110842320 109969192 109171304 108441224 
1073.198 107772248 107155312 106579640 106033032 105503968 104985296 
1076.091 104476304 103982600 103514808 103085544 102707736 102391616 
1078.984 102146056 101979256 101897928 101907056 102007080 102191128 
1081.877 102441824 102732120 103029032 103294384 103493024 103597320 
1084.770 103587480 103455936 103206720 102856728 102434232 101977872 
1087.663 101535928 101156456 100886848 100768584 100831896 101100288 
1090.556 101591400 102320024 103302792 104559216 106108880 107969968 
1093.449 110152592 112653024 115445600 118476528 121661624 124872120 
1096.343 127946168 130697576 132918712 134427056 135086448 134832272 
1099.236 133690344 131771120 129255800 126347768 123260192 120185416 
1102.129 117265832 114605584 112264488 110263200 108597472 107243904 
1105.022 106170984 105342160 104722928 104284112 104000488 103851688 
1107.915 103819880 103885656 104027856 104222664 104444104 104668144 
1110.808 104874920 105049440 105183904 105275736 105324712 105329528 
1113.701 105281816 105161200 104932856 104543152 103925552 103015720 
1116.594 101759648 100136256 98167112 95922584 93509848 91050408 88668912 
1119.969 86460800 84483536 82757776 81271032 79991960 78882016 77909800 
1123.344 77054040 76305528 75665768 75144368 74758136 74527792 74477840 
1126.720 74631376 75001832 75585048 76347792 77227136 78120680 78900736 
1130.095 79431760 79574168 79216224 78287136 76764192 74681432 72124080 
1133.470 69223496 66127428 62988600 59947692 57108260 54541160 52282420 
1136.845 50337932 48694904 47329484 46216048 45328764 44643736 44140324 
1140.221 43797548 43595216 43515584 43542100 43661784 43864036 44139112 
1143.596 44476944 44865996 45292944 45744864 46210556 46681992 47154936 
1146.971 47627656 48099744 48571236 49042236 49514344 49990604 50476548 
1150.346 50978832 51502888 52051892 52624928 53217936 53824468 54438536 
1153.722 55055656 55672672 56286608 56893628 57487088 58058904 58599692 
1157.097 59099692 59550792 59944536 60271556 60520928 60679484 60732868 
1160.472 60668548 60476708 60151664 59691732 59098060 58373968 57523664 
1163.847 56553552 55473352 54295536 53037412 51718196 50357352 48974284 
1167.223 47585324 46204256 44843252 43512652 42222196 40981512 39798864 
1170.598 38680600 37630932 36651240 35740484 34896804 34117976 33402152 
1173.973 32747924 32153762 31616680 31133294 30699162 30310050 29962820 
1177.348 29655102 29385644 29152776 28954460 28787954 28651170 28543836 
1180.724 28469038 28432562 28442574 28507708 28634606 28827290 29087864 
1184.099 29416808 29815092 30284754 30828624 31450112 32153264 32943014 
1187.474 33827964 34822300 35946172 37226212 38689184 40354604 42227636 
1190.849 44291100 46502580 48791696 51072852 53249960 55226936 56929132 
1194.225 58307572 59350864 60086288 60579548 60925656 61228544 61598612 
1197.600 62132400 62896796 63928104 65220496 66728508 68363184 70004456 
1200.975 71515400 72743512 73552424 73833696 73514672 72571800 71026816 
1204.350 68942944 66409908 63539408 60457060 57281224 54126684 51092752 
1207.726 48250532 45649232 43311588 41237312 39409900 37802488 36386920 
1211.101 35134928 34024508 33039856 32169498 31405658 30742974 30176872 
1214.476 29704560 29324278 29035504 28838302 28731486 28711804 28774110 
1217.851 28911038 29115536 29382240 29708604 30094264 30540056 31045914 
1221.227 31609658 32227058 32891974 33597896 34338816 35108304 35899276 
1224.602 36703844 37512648 38317168 39111804 39895688 40673168 41453608 
1227.977 42250204 43076112 43944760 44868896 45859592 46927852 48083088 
1231.352 49332084 50677796 52118608 53649840 55265620 56962416 58740928 
1234.728 60606940 62569172 64636648 66817076 69114928 71531736 74065944 
1238.103 76711720 79454280 82261592 85082528 87838632 90424440 92725856 
1241.478 94623912 96013584 96827104 97038176 96675160 95815856 94590256 
1244.853 93163144 91705936 90397104 89390080 88800520 88713656 89176504 
1248.229 90208640 91812760 93982816 96709352 99976104 103755288 107993424 
1251.604 112593288 117416344 122265424 126886200 131003144 134310976 
1254.497 136513504 137375792 136734064 134539632 130863752 125893968 
1257.390 119900160 113181112 106058920 98824648 91720464 84953416 78670128 
1260.765 72963776 67883312 63431984 59579788 56271028 53439228 51011808 
1264.140 48917208 47096068 45497908 44083732 42828328 41714832 40735320 
1267.516 39888860 39180804 38621820 38225876 38009376 37986700 38166320 
1270.891 38546352 39110860 39828496 40648932 41509276 42336072 43046876 
1274.266 43565912 43827860 43787472 43430292 42773736 41866300 40773460 
1277.641 39572616 38338812 37129908 35988936 34939244 33988316 33133578 
1281.017 32367468 31681470 31067408 30518230 30028112 29591394 29203450 
1284.392 28860468 28559864 28299748 28077854 27891084 27735936 27608524 
1287.767 27505892 27427214 27372652 27342904 27337012 27350950 27378052 
1291.142 27410838 27442390 27469358 27492408 27516058 27546136 27588220 
1294.518 27646376 27722584 27818024 27934228 28073224 28237438 28428460 
1297.893 28645898 28887700 29150720 29432942 29733972 30055772 30401476 
1301.268 30773276 31171418 31593696 32036320 32496002 32971398 33463560 
1304.643 33974272 34504736 35053920 35618508 36193768 36775312 37360632 
1308.019 37948764 38539220 39130076 39716656 40291380 40846512 41375276 
1311.394 41874144 42343228 42785984 43207304 43612068 44005444 44392380 
1314.769 44777240 45162036 45543496 45909528 46235288 46484656 46617028 
1318.144 46590688 46377096 45966288 45370144 44618328 43752512 42819296 
1321.520 41859040 40905488 39985048 39115828 38312792 37587972 36949852 
1324.895 36403564 35950132 35586284 35306360 35103920 34973396 34909764 
1328.270 34908220 34962728 35065880 35209908 35387448 35592396 35820288 
1331.645 36066480 36324228 36583540 36832188 37055892 37243072 37386380 
1335.021 37483028 37534432 37544076 37514816 37448100 37344672 37205744 
1338.396 37035216 36840732 36632600 36421004 36214188 36016076 35827160 
1341.771 35646236 35472724 35308016 35155760 35020300 34905528 34814728 
1345.146 34750112 34714760 34714040 34755176 34846640 34995912 35207720 
1348.521 35483512 35822696 36223984 36686828 37211484 37797032 38438536 
1351.897 39126052 39845568 40579880 41313180 42032784 42727632 43387192 
1355.272 43997300 44537552 44984756 45315304 45510896 45565024 45485068 
1358.647 45292356 45017428 44698824 44377776 44093012 43883796 43787176 
1362.022 43834716 44053552 44460608 45060396 45845784 46799664 47897024 
1365.398 49102368 50369224 51636276 52821896 53839884 54607356 55063440 
1368.773 55187504 55001800 54566368 53956960 53255916 52536072 51849856 
1372.148 51235896 50717896 50306980 50002352 49787632 49630852 49481036 
1375.523 49279152 48969388 48505468 47864208 47048432 46089252 45038192 
1378.899 43959680 42921036 41976580 41166784 40519204 40050592 39773592 
1382.274 39698032 39831220 40181564 40763380 41602616 42743644 44243880 
1385.649 46155540 48498504 51225048 54205696 57224296 60031232 62396228 
1389.024 64136112 65152512 65422728 64989812 63943192 62404108 60514796 
1392.400 58409372 56225580 54100828 52159704 50518384 49261412 48424672 
1395.775 47992528 47908752 48101080 48492612 49017864 49627548 50283132 
1399.150 50958228 51635232 52301332 52946372 53559348 54126496 54634376 
1402.525 55070476 55427684 55708228 55923484 56093036 56236972 56373480 
1405.901 56515280 56669432 56841164 57033932 57248336 57478048 57706328 
1409.276 57906412 58041972 58078144 57991568 57776080 57444768 57023696 
1412.651 56544716 56035132 55514316 54994952 54483532 53984648 53501176 
1416.026 53032844 52574588 52116852 51649596 51170096 50692504 50249876 
1419.402 49887304 49641736 49526004 49525964 49608716 49738068 49882992 
1422.777 50028488 50176712 50344108 50551584 50813688 51131220 51490648 
1426.152 51870396 52247592 52607052 52940680 53247860 53532360 53802228 
1429.527 54069976 54353324 54679392 55081608 55591660 56236332 57029816 
1432.903 57975364 59072060 60325540 61757024 63401164 65295048 67452664 
1436.278 69837760 72355808 74881736 77304888 79561272 81628160 83498544 
1439.653 85159432 86572776 87676584 88407312 88708336 88552048 87944600 
1443.028 86923080 85545720 83877352 81988216 79939816 77777360 75534096 
1446.404 73231720 70893776 68563496 66309728 64221612 62393436 60895160 
1449.779 59763624 59000164 58575800 58438140 58513392 58718208 58955072 
1453.154 59123540 59131964 58887944 58304504 57307992 55861532 54010764 
1456.529 51912700 49826988 48010252 46613596 45654896 45063080 44743264 
1459.905 44614068 44620972 44729272 44912180 45146672 45407552 45667560 
1463.280 45903120 46096436 46241368 46345540 46429196 46518952 46638756 
1466.655 46808412 47040048 47338836 47703536 48127728 48599956 49100960 
1470.030 49604068 50072292 50452580 50683864 50707172 50485332 50019940 
1473.406 49349272 48532032 47623260 46668456 45705400 44767620 43894280 
1476.781 43125692 42494116 42020780 41710892 41557144 41546788 41668764 
1480.156 41918660 42300020 42822512 43496940 44330984 45325084 46472928 
1483.531 47764888 49195428 50767948 52498752 54416040 56554948 58948016 
1486.906 61616864 64569748 67804760 71318248 75111712 79188344 83535528 
1490.282 88114744 92849264 97636296 102368008 106956216 111342600 115476376 
1493.657 119310584 122779536 125777440 128182408 129881816 130821752 
1496.550 131039440 130669248 129905016 128929704 127895904 126911592 
1499.443 126046552 125355856 124884528 124663016 124704392 124992640 
1502.336 125482600 126089664 126691344 127122896 127140256 126423416 
1505.229 124593528 121291984 116381184 110101480 103029544 95800528 88835160 
1508.604 82263752 76027624 70010064 64130852 58376356 52819724 47592016 
1511.980 42821784 38617076 35021592 32013632 29528404 27479628 25782944 
1515.355 24360322 23151806 22117344 21232498 20489234 19885860 19416564 
1518.730 19065156 18802220 18586922 18379958 18155924 17918984 17703124 
1522.105 17555642 17508342 17562266 17691942 17860390 18037024 18204638 
1525.481 18366962 18542246 18754580 19019044 19335040 19689164 20063908 
1528.856 20447554 20837382 21239874 21665032 22120170 22606990 23121542 
1532.231 23657242 24210106 24781072 25374816 25992238 26626776 27262492 
1535.606 27879250 28454640 28968662 29408122 29763708 30033438 30219036 
1538.982 30325328 30353752 30303088 30175416 29981638 29741458 29475386 
1542.357 29194272 28893932 28556610 28162094 27698392 27172326 26609938 
1545.732 26046696 25510886 25010204 24531692 24049158 23536792 22982548 
1549.107 22396706 21808132 21254140 20759832 20328858 19944518 19581628 
1552.483 19220736 18856408 18499922 18172712 17894192 17669062 17485024 
1555.858 17315134 17127662 16889114 16569624 16150042 15634164 15063288 
1559.233 14508579 14039920 13691125 13455789 13305266 13205106 13124709 
1562.608 13038658 12931698 12800023 12654060 12514353 12403807 12337806 
1565.984 12316739 12326965 12346873 12357952 12350793 12329862 12311830 
1569.359 12319296 12370395 12470738 12614456 12790469 12989356 13205038 
1572.734 13435180 13678576 13932029 14192409 14459248 14738762 15045553 
1576.109 15398562 15813913 16293572 16827732 17401898 18004524 18631640 
1579.485 19285922 19973486 20697554 21452802 22224430 22986950 23709518 
1582.860 24362740 24918712 25355356 25656314 25810512 25813748 25669356 
1586.235 25389992 24996866 24517950 23987350 23437112 22893126 22371098 
1589.610 21873324 21392756 20917864 20439462 19953226 19460120 18963970 
1592.986 18468354 17975480 17487714 17011558 16559538 16149182 15799653 
1596.361 15524640 15327265 15200318 15130357 15104866 15116702 15166691 
1599.736 15260715 15405050 15601328 15846284 16134772 16465129 16843748 
1603.111 17285722 17809228 18432192 19165880 20013630 20974124 22044868 
1606.487 23224504 24510308 25893610 27354762 28859194 30361358 31813934 
1609.862 33173024 34409144 35510368 36481832 37340412 38106956 38798912 
1613.237 39423832 39977604 40444536 40802068 41023352 41083260 40964728 
1616.612 40662540 40181492 39532292 38723416 37759512 36643560 35377780 
1619.988 33966028 32412484 30729710 28937920 27072302 25192332 23373994 
1623.363 21696832 20225296 18989412 17983698 17175470 16521469 15979195 
1626.738 15515436 15111590 14761112 14466167 14230958 14056894 13939453 
1630.113 13869763 13835624 13824678 13826012 13828577 13821120 13791773 
1633.489 13727476 13617372 13457771 13258771 13045896 12853568 12711512 
1636.864 12630830 12603643 12609715 12627623 12638573 12630557 12599993 
1640.239 12549924 12488470 12424502 12364565 12310331 12257704 12198370 
1643.614 12121838 12018068 11879246 11702479 11491829 11261048 11031477 
1646.990 10827878 10671471 10572189 10527750 10525238 10546693 10569778 
1650.365 10569031 10517803 10388046 10161716 9846457 9494578 9189144 8995100 
1654.222 8924541 8943752 9007785 9079473 9137909 9174286 9187756 9182273 
1658.080 9162544 9132630 9094327 9046588 8986508 8910810 8817170 8705869 
1661.937 8581384 8452643 8331978 8231203 8158642 8116070 8098988 8097739 
1665.794 8099899 8093755 8067999 8015783 7935057 7830697 7712870 7595311 
1669.652 7492245 7413605 7363152 7339192 7334946 7340945 7345022 7335182 
1673.509 7300878 7236524 7145737 7043654 6953311 6894395 6876115 6892812 
1677.367 6929642 6968597 6995668 7004827 6998059 6983917 6971526 6965600 
1681.224 6962233 6949439 6909409 6827105 6698883 6542510 6394432 6295752 
1685.082 6268254 6305905 6385286 6479714 6569925 6643971 6697167 6730043 
1688.939 6746365 6751816 6753196 6757975 6772413 6800650 6842588 6892947 
1692.796 6941931 6975937 6981728 6950550 6884868 6801356 6728293 6692590 
1696.654 6704401 6753869 6816671 6865276 6874903 6831851 6740845 6630715 
1700.511 6544394 6514020 6547354 6626846 6726072 6819161 6887931 6921899 
1704.369 6918903 6885406 6835419 6785976 6751110 6737043 6742225 6760364 
1708.226 6782879 6802534 6815694 6821551 6822191 6820037 6817142 6813507 
1712.083 6808222 6799674 6786884 6770393 6751379 6730682 6706959 6676271 
1715.941 6633676 6576317 6507630 6439223 6389018 6373584 6400552 6466094 
1719.798 6557613 6659852 6758109 6842252 6907793 6955634 6990617 7019610 
1723.656 7049648 7085616 7130108 7183229 7244037 7310380 7379194 7446637 
1727.513 7508224 7559840 7599424 7627614 7647780 7664034 7678232 7687439 
1731.371 7682819 7650107 7573529 7443637 7265668 7066520 6886652 6764234 
1735.228 6714362 6726981 6776081 6833063 6875308 6886955 6861472 6802232 
1739.085 6721866 6637512 6565115 6514290 6485600 6473223 6468515 6463874 
1742.943 6454491 6438954 6418172 6395037 6372374 6351696 6333607 6317436 
1746.800 6302476 6287953 6273195 6257799 6241059 6221597 6198204 6170308 
1750.658 6139928 6111297 6091269 6085691 6097082 6123529 6158680 6192356 
1754.515 6213665 6214169 6189633 6143457 6085120 6027833 5983218 5955908 
1758.373 5943042 5936056 5925005 5901123 5860720 5805880 5744433 5686889 
1762.230 5643048 5619350 5617034 5633582 5663457 5699982 5736375 5765452 
1766.087 5781602 5781200 5764545 5735401 5700015 5664397 5630125 5593807 
1769.945 5548230 5485310 5400491 5297709 5189487 5095070 5031177 5005400 
1773.802 5013042 5042808 5080756 5116561 5145059 5165848 5180937 5192069 
1777.660 5199011 5199514 5190862 5172084 5145260 5115890 5090813 5075492 
1781.517 5071168 5074989 5081326 5084946 5082499 5073950 5061848 5050149 
1785.375 5041836 5038584 5040495 5046831 5057256 5071503 5088298 5104458 
1789.232 5114717 5112034 5090042 5045523 4980832 4905695 4834290 4780183 
1793.089 4752211 4750704 4769832 4800117 4832582 4860726 4880395 4889711 
1796.947 4888404 4877112 4857309 4831040 4801356 4771942 4745813 4725145 
1800.804 4710440 4699990 4692052 4685253 4678990 4674300 4672190 4673162 
1804.662 4676946 4681870 4686291 4688635 4688669 4686626 4683076 4678118 
1808.519 4670951 4660267 4645531 4627079 4606617 4587295 4571591 4560574 
1812.376 4553476 4548453 4543397 4537706 4532516 4530540 4534859 4547717 
1816.234 4569180 4597140 4627982 4658391 4685822 4709770 4730538 4749062 
1820.091 4766180 4782059 4796063 4807588 4815729 4819582 4817974 4810134 
1823.949 4796398 4778508 4760318 4746550 4741056 4745009 4755628 4767319 
1827.806 4772277 4763802 4739247 4701598 4658961 4621653 4597877 4590142 
1831.664 4595164 4605177 4612209 4610937 4599786 4580497 4557159 4533821 
1835.521 4512729 4494784 4479517 4466997 4458360 4456419 4463717 4481995 
1839.378 4510419 4545407 4581603 4612846 4633240 4638331 4625270 4594528 
1843.236 4550630 4502584 4461808 4440351 4445740 4478815 4534424 4603704 
1847.093 4676712 4745243 4805779 4858750 4908074 4958008 5011400 5067413 
1850.951 5122495 5171816 5211720 5242103 5265713 5287748 5312870 5344133 
1854.808 5381569 5423874 5468667 5514974 5562997 5613442 5666344 5721032 
1858.666 5775659 5828581 5879896 5932227 5988930 6053905 6129006 6212421 
1862.523 6299752 6385420 6463975 6532117 6587822 6630009 6656252 6662342 
1866.380 6643197 6593944 6513920 6407613 6286339 6164931 6057332 5972166 
1870.238 5910629 5867403 5833920 5803026 5769347 5730600 5686721 5637811 
1874.095 5583805 5524538 5459909 5390762 5319277 5247704 5176980 5107039 
1877.953 5035568 4959851 4878988 4794421 4709871 4630729 4561679 4504459 
1881.810 4458059 4418995 4383347 4349309 4317182 4288838 4266686 4251562 
1885.667 4241858 4234330 4225698 4213687 4198497 4181636 4165979 4153803 
1889.525 4146041 4143064 4144603 4151494 4163972 4182673 4207062 4234665 
1893.382 4262035 4286395 4305536 4319792 4331170 4341344 4351518 4360655 
1897.240 4366278 4366512 4361492 4354330 4349912 4353794 4369022 4395698 
1901.097 4430375 4467868 4503622 4535596 4564358 4591782 4620247 4650387 
1904.955 4681200 4711077 4738309 4762495 4784371 4804539 4822664 4837071 
1908.812 4845883 4847224 4842499 4835162 4830303 4832883 4845950 4868668 
1912.669 4897921 4930460 4962533 4992932 5020953 5046093 5065268 5074989 
1916.527 5070162 5048641 5012339 4968130 4926137 4895106 4879792 4878787 
1920.384 4886796 4897183 4905159 4910353 4915950 4926237 4944368 4969705 
1924.242 4997959 5024204 5044920 5059871 5072676 5088298 5110291 5139158 
1928.099 5172118 5204443 5232645 5255517 5275205 5295798 5320954 5351747 
1931.957 5386601 5422465 5455614 5484203 5507624 5525746 5537961 5542760 
1935.814 5537592 5521920 5498598 5472727 5452628 5445750 5455715 5480679 
1939.671 5514974 5550378 5580516 5603541 5621599 5640698 5666244 5700855 
1943.529 5742889 5788721 5833148 5872709 5906900 5936492 5962794 5987754 
1947.386 6011505 6035057 6060155 6089455 6125679 6170880 6225059 6285263 
1951.244 6347964 6409395 6468549 6526566 6586039 6647807 6710997 6770797 
1955.101 6821214 6857433 6877832 6885137 6885541 6887157 6895034 6911563 
1958.958 6935972 6965533 6998026 7033012 7072549 7117949 7170630 7229213 
1962.816 7291410 7355064 7418155 7479840 7539105 7593523 7638371 7668925 
1966.673 7681571 7677018 7661235 7644239 7635910 7644475 7671825 7714691 
1970.531 7767040 7823342 7880226 7937285 7996511 8058278 8121640 8185281 
1974.388 8248155 8315260 8395718 8500283 8637690 8808074 8999193 9190124 
1978.246 9355783 9476427 9542536 9556457 9528650 9474022 9406230 9333574 
1982.103 9260997 9191817 9127656 9072538 9031770 9009003 9005857 9021553 
1985.960 9052644 9095410 9148298 9210228 9281510 9361708 9447676 9534915 
1989.818 9619361 9698671 9774406 9850694 9933505 10025895 10128241 10235564 
1993.675 10341590 10441464 10532774 10616971 10699386 10785349 10878225 
1997.051 10979140 11085416 11192942 11297196 11394025 11480669 11555184 
2000.426 11616574 11664630 11700471 11727396 11749524 11772129 11800591 
2003.801 11838146 11886601 11946437 12016467 12096149 12184978 12281256 
2007.176 12382668 12486287 12587646 12684525 12777330 12868654 12963377 
2010.552 13065768 13177885 13297204 13420759 13544418 13667155 13791773 
2013.927 13923920 14068257 14227500 14397352 14568434 14730158 14873425 
2017.302 14994275 15094883 15182303 15263632 15345113 15428877 15512277 
2020.677 15592673 15665526 15727155 15774397 15804222 15812470 15795736 
2024.052 15752785 15684040 15594458 15490610 15379063 15265485 15153447 
2027.428 15042604 14932645 14823642 14716242 14612226 14513855 14421808 
2030.803 14334711 14251056 14169266 14090195 14018188 13958751 13918104 
2034.178 13900382 13904624 13925904 13958032 13993721 14027840 14057545 
2037.553 14081605 14098855 14109363 14112478 14109602 14104639 14102381 
2040.929 14107275 14122712 14147426 14175154 14198571 14209047 14200967 
2044.304 14173409 14128634 14071337 14006622 13939145 13871850 13808499 
2047.679 13751586 13703127 13662266 13624279 13579800 13517140 13426124 
2051.054 13301167 13145301 12968600 12785759 12611659 12456621 12322567 
2054.430 12203039 12087733 11964727 11827216 11674942 11513672 11351713 
2057.805 11197124 11054214 10923481 10803046 10690692 10585226 10487728 
2061.180 10399992 10322622 10254934 10194348 10137228 10081303 10025488 
2064.555 9970290 9916759 9864794 9812396 9756953 9695622 9627287 9552969 
2068.413 9475715 9397834 9321217 9245529 9168432 9088507 9004741 8918961 
2072.270 8834212 8754383 8681260 8614370 8551206 8487917 8420954 8348495 
2076.128 8270207 8186800 8100271 8010686 7919298 7827323 7736817 7651051 
2079.985 7573428 7505797 7448558 7399955 7356750 7315705 7275304 7235278 
2083.843 7196737 7160592 7126302 7091981 7055205 7013548 6966240 6914459 
2087.700 6859991 6804049 6746566 6685255 6617393 6541569 6458796 6373114 
2091.557 6290844 6218774 6160932 6119026 6091068 6073259 6061062 6051049 
2095.415 6040063 6026355 6007843 5982950 5951137 5913551 5873448 5835431 
2099.272 5803933 5780964 5764881 5751115 5733857 5708308 5673864 5633582 
2103.130 5593874 5561017 5539505 5530041 5530343 5536954 5546519 5558567 
2106.987 5574039 5594076 5618779 5646203 5671984 5692428 5705017 5709818 
2110.844 5709248 5707032 5705286 5704950 5704413 5701224 5693905 5682525 
2114.702 5668660 5654797 5642947 5633347 5624855 5615456 5603172 5587363 
2118.559 5569072 5549103 5529135 5510309 5492659 5476115 5461386 5448300 
2122.417 5436926 5426391 5414011 5396431 5370667 5335210 5292075 5245960 
2126.274 5202833 5168463 5146333 5135604 5132754 5132654 5130273 5122025 
2130.132 5107776 5088466 5066776 5046227 5030473 5023835 5030305 5053065 
2133.989 5092556 5146132 5206690 5264472 5311260 5340946 5353424 5354230 
2137.846 5351445 5352452 5362314 5380664 5403611 5426391 5444810 5456789 
2141.704 5462929 5464137 5460144 5449575 5430149 5401229 5363387 5320820 
2145.561 5279062 5242841 5215610 5196328 5182848 5172688 5163937 5156392 
2149.419 5150592 5145193 5136476 5119511 5088734 5040495 4976040 4899295 
2153.276 4815561 4729332 4642986 4556389 4471349 4394861 4341545 4331204 
2157.134 4386092 4518387 4727255 4991926 5278324 5551251 5782039 5956546 
2160.991 6076686 6154681 6204489 6238908 6264926 6284524 6296828 6300963 
2164.848 6295954 6283213 6264623 6241362 6215211 6187919 6160327 6133543 
2168.706 6108104 6081794 6051990 6016444 5973242 5924669 5876202 5834894 
2172.563 5807727 5799131 5808701 5832812 5866294 5904583 5944856 5988224 
2176.421 6034049 6080886 6125410 6161940 6185163 6195213 6196423 6197565 
2180.278 6209363 6239547 6290205 6357176 6431421 6503022 6565081 6614735 
2184.135 6652012 6680073 6700902 6714429 6719914 6716280 6703459 6683438 
2187.993 6659953 6635392 6612312 6590849 6570262 6549641 6530266 6513617 
2191.850 6502282 6496901 6496228 6495825 6490780 6476789 6451094 6414978 
2195.708 6371836 6326413 6283683 6247042 6218304 6199078 6189499 6188995 
2199.565 6196591 6210035 6225732 6240824 6253093 6262001 6269867 6279582 
2203.423 6293197 6311855 6333439 6354655 6372206 6384479 6391809 6396819 
2207.280 6402637 6410404 6420526 6431186 6440333 6447530 6454558 6464008 
2211.137 6479311 6502551 6532453 6565485 6597006 6622439 6639059 6646730 
2214.995 6645956 6638554 6626039 6608948 6588730 6567638 6548228 6533866 
2218.852 6526802 6526331 6529392 6531006 6525524 6508908 6480723 6443023 
2222.710 6400182 6357412 6317672 6282272 6251211 6223211 6197599 6174845 
2226.567 6155891 6141776 6133005 6129040 6128367 6129678 6132198 6135424 
2230.425 6140163 6146615 6155185 6165805 6178576 6193163 6210371 6231278 
2234.282 6255816 6284389 6315822 6349040 6382058 6412993 6440501 6463773 
2238.139 6482371 6495858 6505309 6512709 6520344 6531141 6547152 6568681 
2241.997 6593473 6617863 6637410 6648715 6651238 6647201 6640943 6636872 
2245.854 6638285 6645620 6657093 6669542 6680073 6687813 6693163 6697537 
2249.712 6702349 6707296 6710727 6710761 6706286 6697537 6687207 6679165 
2253.569 6676507 6680948 6691413 6705074 6717996 6727014 6729976 6726342 
2257.427 6717155 6703190 6685524 6665303 6642895 6619646 6597275 6576250 
2261.284 6557647 6541333 6526197 6511969 6498717 6486946 6478134 6473694 
2265.141 6473594 6476957 6482069 6486643 6489401 6490847 6491721 6493773 
2268.999 6498313 6505107 6513179 6521319 6529089 6536758 6546311 6558723 
2272.856 6574769 6593776 6612784 6629033 6640607 6647033 6649590 6650835 
2276.714 6653594 6659246 6668566 6680915 6695148 6710660 6727082 6744311 
2280.571 6762283 6779682 6795366 6807381 6814685 6816873 6814752 6809670 
2284.428 6802568 6793952 6783889 6771537 6756629 6739297 6720251 6700296 
2288.286 6681049 6663284 6647840 6635593 6627183 6623549 6625366 6632398 
2292.143 6643130 6655276 6665807 6671830 6672301 6667725 6659852 6651541 
2296.001 6645384 6642861 6644644 6650633 6659785 6671931 6686399 6702483 
2299.858 6719376 6735764 6749965 6761475 6770427 6778403 6787928 6801727 
2303.716 6821349 6847301 6878674 6913449 6949675 6986274 7022775 7059785 
2307.573 7097707 7136676 7176121 7215064 7252696 7288512 7323051 7356817 
2311.430 7390856 7425874 7461603 7497571 7533273 7567797 7601144 7633414 
2315.288 7665181 7697254 7730678 7766298 7804990 7847161 7892878 7941266 
2319.145 7991752 8043156 8094903 8146588 8197774 8246906 8291821 8327757 
2323.003 8349069 8351299 8331540 8291146 8235965 8175692 8120998 8082346 
2326.860 8066885 8077384 8111614 8163740 8226543 8292665 8356568 8414703 
2330.718 8465650 8509136 8545698 8575977 8601189 8622142 8640023 8655368 
2334.575 8668382 8678420 8684911 8687379 8685824 8681227 8674736 8667097 
2338.432 8658816 8648776 8635899 8619270 8598890 8575909 8552558 8530458 
2342.290 8509947 8489133 8463691 8428183 8377444 8309147 8224045 8127480 
2346.147 8028608 7937959 7865953 7821621 7810219 7834239 7892507 7980818 
2350.005 8092777 8219959 8353832 8486159 8610753 8723821 8824135 8912230 
2353.862 8988571 9053998 9108571 9152189 9185217 9208942 9225187 9236289 
2357.719 9243870 9249049 9252569 9255006 9256597 9258255 9260456 9262419 
2361.577 9262419 9258188 9247357 9228707 9203155 9173339 9142815 9114697 
2365.434 9090470 9069662 9050580 9030553 9007446 8980791 8950856 8918351 
2369.292 8884126 8848347 8810847 8771152 8729871 8687852 8646478 8606799 
2373.149 8568947 8532113 8494944 8455954 8414603 8370958 8325562 8279292 
2377.007 8232756 8185551 8137102 8087173 8036034 7984902 7935429 7889436 
2380.864 7847835 7810792 7777193 7745756 7715264 7685248 7656278 7629705 
2384.721 7606573 7588129 7575012 7567156 7564122 7565471 7570461 7578620 
2388.579 7589814 7603707 7619960 7638911 7660493 7684674 7710947 7738234 
2392.436 7764746 7789135 7810691 7829381 7846992 7866155 7889099 7917510 
2396.294 7951458 7989289 8028710 8067290 8103005 8135043 8163200 8187003 
2400.151 8205945 8218676 8223910 8220634 8209491 8192304 8171945 8152025 
2404.009 8134806 8122112 8113875 8109183 8106651 8105132 8103680 8101317 
2407.866 8097806 8092607 8086126 8079341 8074041 8073029 8078970 8093350 
2411.723 8116474 8147062 8182209 8219182 8255720 8291078 8325359 8360318 
2415.581 8397374 8437981 8482679 8531742 8584628 8640901 8699920 8760570 
2419.438 8821498 8880845 8937090 8988943 9036067 9077985 9115441 9148433 
2423.296 9176892 9200210 9217606 9228842 9234123 9234799 9232566 9229181 
2427.153 9226372 9225187 9225932 9229215 9234935 9243160 9253483 9265059 
2431.010 9276330 9285877 9292680 9296573 9298672 9301211 9306559 9316579 
2434.868 9331983 9352160 9376029 9402066 9429188 9457293 9486281 9516423 
2438.725 9547177 9577694 9606623 9633080 9656965 9678749 9699891 9721848 
2442.583 9745602 9771490 9799754 9829748 9861642 9895233 9930150 9966154 
2446.440 10002329 10036915 10068553 10096090 10118982 10137330 10152084 
2449.815 10163515 10172028 10178066 10181594 10183493 10185019 10187597 
2453.191 10192787 10201132 10211885 10223690 10234817 10243909 10250830 
2456.566 10256801 10263688 10273357 10287030 10304571 10324488 10345594 
2459.941 10366259 10385942 10405592 10426701 10451172 10480837 10517328 
2463.316 10560883 10611471 10668177 10729884 10795199 10862767 10931942 
2466.692 11002657 11075390 11151058 11230751 11314846 11402903 11493802 
2470.067 11586286 11679435 11773116 11868689 11968065 12073527 12187432 
2473.442 12310808 12444176 12588192 12742663 12908145 13085403 13275134 
2476.817 13478141 13694613 13924639 14168274 14426054 14698693 14987278 
2480.193 15292805 15615718 15955476 16311048 16680030 17059182 17444632 
2483.568 17830424 18209580 18574266 18915966 19226312 19498620 19727476 
2486.943 19909240 20041700 20123492 20154278 20135016 20068522 19959264 
2490.318 19814688 19643642 19454852 19256792 19056120 18856994 18662010 
2493.694 18472572 18289820 18115052 17950234 17797042 17657536 17534252 
2497.069 17428836 17344410 17284376 17252346 17252278 17287272 17359100 
2500.444 17468156 17614816 17798802 18021308 18284324 18590312 18941646 
2503.819 19339512 19782682 20267858 20790522 21344028 21920890 22512792 
2507.195 23108996 23696572 24260732 24782966 25243952 25624468 25905462 
2510.570 26071500 26111470 26020416 25799612 25458288 25012626 24482508 
2513.945 23891696 23264284 22620986 21979372 21352068 20746382 20166010 
2517.320 19611750 19082884 18577932 18095812 17635450 17196430 16779032 
2520.696 16383780 16011750 15664151 15341544 15044044 14771053 14521049 
2524.071 14291871 14082050 13890358 13715678 13558024 13416795 13291020 
2527.446 13179899 13081886 12996355 12923027 12862033 12813673 12777638 
2530.821 12752284 12735087 12723692 12715640 12710079 12707724 12709976 
2534.197 12717959 12732154 12751022 12771564 12790297 12804186 12811489 
2537.572 12812855 12810397 12806848 12805006 12806985 12813810 12825345 
2540.947 12840975 12859575 12880122 12901796 12923505 12945045 12966722 
2544.322 12988708 13012162 13038248 13067612 13100496 13137242 13177543 
2547.698 13221570 13269839 13322930 13381016 13444203 13510954 13579150 
2551.073 13646845 13712258 13774843 13835624 13896345 13959264 14025820 
2554.448 14096905 14172039 14250714 14332143 14416155 14503132 14593962 
2557.823 14689370 14789838 14895474 15005970 15121093 15241085 15366019 
2561.198 15496448 15632858 15775187 15923647 16078036 16238363 16404528 
2564.574 16576473 16753444 16934518 17118598 17303824 17488680 17672546 
2567.949 17854246 18033292 18208854 18379198 18541794 18694178 18833016 
2571.324 18955594 19060448 19146558 19214052 19263926 19297908 19317618 
2574.699 19325342 19323054 19312732 19296312 19275426 19251528 19225828 
2578.075 19200096 19175612 19154246 19137762 19127756 19125886 19133606 
2581.450 19152100 19182608 19226346 19284294 19357282 19445668 19549496 
2584.825 19668396 19801996 19949860 20112214 20289382 20481350 20688380 
2588.200 20910180 21145834 21394250 21654652 21926014 22207166 22496950 
2591.576 22792826 23091594 23389170 23680826 23962104 24228780 24476864 
2594.951 24702396 24902114 25071630 25206902 25304672 25362416 25379206 
2598.326 25355672 25294416 25198440 25071454 24917518 24740312 24543402 
2601.701 24330288 24104142 23867928 23624214 23375392 23123918 22872762 
2605.077 22624930 22384566 22156082 21943332 21750092 21578768 21430802 
2608.452 21307034 21207654 21132858 21083188 21058806 21059814 21085448 
2611.827 21134458 21205048 21294992 21402360 21525042 21660818 21807330 
2615.202 21961420 22119088 22276604 22430164 22576834 22714996 22844264 
2618.578 22965396 23079644 23188782 23294942 23400184 23506396 23615362 
2621.953 23727996 23844826 23964730 24086140 24206532 24323034 24432626 
2625.328 24532220 24618088 24686964 24733964 24754238 24743120 24696012 
2628.703 24610200 24484364 24319248 24116822 23880740 23615748 23326584 
2632.079 23018884 22697890 22368552 22035944 21704250 21376744 21056094 
2635.454 20744644 20443630 20154486 19878334 19616014 19368196 19135304 
2638.829 18916900 18712406 18521082 18341626 18172852 18013848 17863532 
2642.204 17720656 17584932 17455152 17330856 17211942 17098332 16990022 
2645.580 16887082 16789640 16697109 16609864 16527493 16450502 16379341 
2648.955 16314454 16256111 16204346 16158707 16118199 16082060 16049843 
2652.330 16021203 15996315 15975516 15959017 15947260 15940249 15938014 
2655.705 15940454 15947398 15958672 15973970 15992774 16014604 16039012 
2659.081 16065797 16094953 16126968 16162079 16200632 16242594 16287724 
2662.456 16335336 16385019 16436394 16489219 16543427 16599055 16656239 
2665.831 16715083 16775830 16838856 16904650 16973966 17046948 17123424 
2669.206 17202704 17283998 17366238 17449048 17532492 17617092 17704192 
2672.582 17794350 17888358 17986082 18087108 18190854 18296628 18404156 
2675.957 18513198 18624100 18737074 18852186 18969994 19090846 19215436 
2679.332 19344568 19478694 19618130 19762846 19912294 20066094 20223908 
2682.707 20385876 20552456 20724696 20903226 21088544 21281004 21480756 
2686.083 21687880 21902700 22125992 22358644 22601962 22857396 23126048 
2689.458 23409556 23709380 24027094 24363474 24719302 25093640 25485236 
2692.833 25891464 26309586 26736672 27170032 27606580 28043568 28476962 
2696.208 28901476 29310204 29695298 30047178 30356418 30613646 30810374 
2699.583 30940404 30999614 30987194 30905250 30759228 30557724 30310194 
2702.959 30028042 29722300 29402768 29078618 28757328 28444522 28144804 
2706.334 27861266 27595670 27348798 27120616 26910676 26718030 26541848 
2709.709 26381230 26235102 26102638 25982494 25872930 25772678 25680218 
2713.084 25594770 25515876 25443952 25379068 25321494 25271026 25226954 
2716.460 25188924 25156376 25128992 25107226 25091534 25082442 25080336 
2719.835 25085180 25096344 25113228 25134996 25160554 25188960 25218912 
2723.210 25249464 25279454 25307974 25334736 25360134 25384828 25410190 
2726.585 25437874 25469812 25507688 25553162 25607950 25673188 25749932 
2729.961 25838432 25938172 26048104 26166684 26292054 26422636 26557312 
2733.336 26695584 26837392 26982806 27132008 27285320 27442496 27603616 
2736.711 27768288 27936382 28107228 28280332 28454992 28630536 28806116 
2740.086 28981058 29154478 29324986 29490954 29649890 29799052 29935698 
2743.462 30056944 30160712 30245462 30310584 30355636 30381612 30389216 
2746.837 30380048 30356168 30320354 30275518 30225036 30172148 30120012 
2750.212 30071326 30028536 29993424 29967614 29952100 29947486 29953626 
2753.587 29970204 29996370 30030810 30072498 30120118 30171828 30226032 
2756.963 30280704 30333572 30382748 30426780 30464808 30496832 30523028 
2760.338 30543716 30559394 30570166 30576388 30578556 30578308 30577560 
2763.713 30578946 30584956 30597222 30616846 30643584 30676830 30716338 
2767.088 30762216 30815818 30878782 30953356 31041178 31143296 31260214 
2770.464 31391624 31537466 31697188 31870588 32057472 32256998 32468364 
2773.839 32689902 32920386 33158824 33404834 33658828 33921136 34192348 
2777.214 34472628 34761132 35056612 35357148 35660516 35964136 36265984 
2780.589 36563644 36855124 37138716 37412852 37676352 37928156 38167476 
2783.965 38393324 38605668 38804168 38989348 39162564 39325916 39482140 
2787.340 39634140 39784884 39936916 40092780 40254336 40423328 40601236 
2790.715 40789220 40987484 41195856 41412416 41634412 41858200 42079036 
2794.090 42292132 42493200 42678316 42845040 42992992 43123424 43239876 
2797.466 43347980 43454568 43566828 43692192 43837280 44007348 44206904 
2800.841 44438992 44706096 45008900 45347668 45721192 46126944 46561552 
2804.216 47021216 47501924 48000448 48514028 49039788 49575248 50117208 
2807.591 50661300 51203012 51737492 52259288 52764348 53248348 53707132 
2810.967 54137008 54533684 54892448 55209104 55479488 55699940 55867972 
2814.342 55981868 56041008 56046024 55998416 55900612 55756296 55569896 
2817.717 55345856 55089432 54806432 54502240 54183552 53857140 53529436 
2821.092 53207300 52896740 52601888 52326412 52072360 51840376 51630716 
2824.468 51443236 51277768 51134124 51012368 50912288 50834172 50778192 
2827.843 50744484 50733352 50744672 50777968 50832308 50906772 51000144 
2831.218 51111240 51239624 51384940 51547280 51726144 51920840 52130188 
2834.593 52352948 52588052 52835444 53095892 53371372 53664236 53977072 
2837.969 54312508 54672820 55060696 55479000 55931740 56423584 56960416 
2841.344 57547836 58192240 58899404 59675652 60527404 61462052 62487088 
2844.719 63609636 64835452 66165468 67594256 69106928 70678696 72270960 
2848.094 73835896 75318320 76657088 77797336 78693120 79313336 79647320 
2851.469 79704608 79513040 79113008 78554224 77890888 77172320 76446208 
2854.845 75752984 75123368 74580904 74140136 73807144 73581352 73456904 
2858.220 73425160 73475152 73595952 73777496 74009640 74282712 74587592 
2861.595 74913784 75251608 75591000 75921896 76235032 76522312 76776768 
2864.970 76993896 77172352 77313872 77423552 77509408 77581144 77647984 
2868.346 77718952 77801224 77899640 78017680 78157720 78320464 78505904 
2871.721 78712944 78939352 79182184 79438608 79705640 79981440 80264352 
2875.096 80553040 80845184 81137936 81427480 81709888 81982456 82244128 
2878.471 82496424 82743624 82992040 83249192 83522760 83820688 84149992 
2881.847 84516544 84925128 85378472 85877064 86418712 86999296 87612640 
2885.222 88251992 88910088 89580624 90257256 90934944 91608424 92273224 
2888.597 92925960 93564008 94186384 94792824 95384144 95961512 96526408 
2891.972 97080272 97625848 98166112 98705728 99249936 99803744 100371864 
2895.348 100958040 101565104 102195912 102853488 103541968 104265544 
2898.241 105028040 105831784 106676248 107558392 108472488 109410760 
2901.134 110365424 111327616 112288392 113239424 114171512 115076064 
2904.027 115946376 116776504 117563568 118306760 119006952 119665768 
2906.920 120285712 120869776 121421632 121946640 122452248 122946480 
2909.813 123437976 123934608 124441304 124960472 125490784 126027960 
2912.706 126563832 127086224 127580032 128025528 128401176 128686280 
2915.599 128862160 128916856 128846288 128655360 128355848 127963872 
2918.492 127497984 126974432 126405728 125800056 125160400 124485960 
2921.385 123773408 123019704 122223848 121389384 120524680 119644032 
2924.278 118766200 117910664 117097152 116341856 115655800 115045360 
2927.171 114511896 114053400 113664560 113338392 113066584 112839840 
2930.064 112648728 112485048 112341688 112214248 112100096 111998280 
2932.958 111908024 111828120 111755984 111688056 111620312 111548688 
2935.851 111469920 111381136 111279968 111164096 111031048 110879312 
2938.744 110707832 110517096 110308944 110085896 109850592 109604248 
2941.637 109347208 109078184 108795232 108496392 108179096 107841560 
2944.530 107481656 107096744 106684216 106242160 105769984 105270160 
2947.423 104747424 104209936 103667360 103131080 102613088 102125272 
2950.316 101680536 101291736 100971504 100732392 100584880 100536600 
2953.209 100591896 100750280 101007592 101354208 101776488 102256120 
2956.102 102768976 103288120 103784104 104227128 104593232 104865264 
2958.995 105036440 105110592 105102064 105031920 104923568 104801280 
2961.888 104685856 104591880 104528648 104498216 104496704 104514408 
2964.781 104537880 104552176 104541248 104491976 104394592 104243552 
2967.674 104038672 103783816 103486800 103157800 102808480 102451600 
2970.567 102098232 101758480 101439240 101144288 100873984 100626112 
2973.460 100396832 100181072 99973768 99770520 99566944 99359552 99144928 
2976.836 98920472 98684400 98436360 98177504 97910192 97637832 97364512 
2980.211 97093944 96830208 96576888 96337344 96115064 95913784 95736424 
2983.586 95585760 95463432 95369816 95303832 95262896 95242848 95237944 
2986.961 95241200 95245000 95240536 95219248 95172968 95093016 94972272 
2990.337 94803664 94581392 94301680 93964016 93571576 93131984 92656576 
2993.712 92159440 91654088 91152248 90661864 90186088 89724240 89272904 
2997.087 88828240 88386920 87947680 87511592 87080800 86658488 86247568 
3000.462 85850408 85468296 85101800 84750952 84415232 84094816 83789544 
3003.838 83499592 83225512 82967376 82724984 82497272 82282288 82077344 
3007.213 81878976 81683656 81488312 81289936 81086176 80875320 80655560 
3010.588 80425824 80184800 79932408 79669048 79396192 79116104 78831800 
3013.963 78545768 78260712 77979056 77702664 77433768 77174656 76927360 
3017.339 76693464 76473784 76267448 76072192 75884800 75700712 75515760 
3020.714 75326088 75128488 74920472 74700832 74467928 74220640 73957584 
3024.089 73677056 73377456 73056880 72714288 72349312 71962464 71555680 
3027.464 71131216 70692032 70240792 69779272 69308840 68829872 68342392 
3030.840 67846744 67343544 66833688 66318304 65798164 65273636 64744712 
3034.215 64211620 63674972 63136376 62597872 62062556 61533092 61011904 
3037.590 60500324 59999240 59509484 59031516 58566472 58115640 57679992 
3040.965 57260016 56855444 56464564 56085380 55715688 55352968 54995520 
3044.341 54641816 54290620 53941128 53592484 53244452 52896520 52549196 
3047.716 52202936 51857848 51514228 51171696 50829216 50486372 50142460 
3051.091 49797260 49451144 49104336 48756884 48408556 48058624 47706124 
3054.466 47350584 46992272 46631564 46270156 45909456 45550856 45195496 
3057.842 44844212 44497320 44155840 43820568 43492548 43172644 42861676 
3061.217 42559528 42266420 41982308 41707756 41443764 41191848 40953180 
3064.592 40728368 40517168 40317988 40128940 39947848 39773444 39604992 
3067.967 39442808 39287792 39141100 39003700 38876092 38758736 38651880 
3071.343 38555948 38470828 38396724 38333168 38279644 38235100 38198988 
3074.718 38170552 38149316 38135208 38127972 38127104 38131592 38140452 
3078.093 38152248 38165816 38180140 38194104 38206840 38217116 38223848 
3081.468 38226380 38224356 38218168 38208976 38197944 38185928 38173484 
3084.844 38159736 38143456 38123596 38099436 38071328 38040732 38009408 
3088.219 37979396 37951588 37925984 37901400 37876524 37849988 37820892 
3091.594 37789548 37756476 37722972 37689796 37657492 37625732 37594044 
3094.969 37561888 37528904 37495420 37461792 37428632 37396780 37366516 
3098.344 37338064 37311416 37286576 37264044 37244156 37227692 37215380 
3101.720 37207800 37205168 37207368 37214080 37225132 37240328 37260292 
3105.095 37285892 37318024 37357600 37405052 37460344 37523016 37592268 
3108.470 37667644 37748920 37836508 37930832 38032340 38141428 38257676 
3111.845 38380472 38508876 38641664 38777644 38915808 39054664 39192628 
3115.221 39328020 39458736 39583068 39699668 39807472 39905676 39993880 
3118.596 40071812 40139040 40195448 40241320 40277672 40305668 40327300 
3121.971 40343808 40356824 40366820 40373804 40377476 40377404 40373440 
3125.346 40365876 40355332 40342968 40329772 40317156 40306176 40297884 
3128.722 40292580 40290324 40290216 40290868 40290580 40287232 40279528 
3132.097 40266440 40247684 40223656 40194832 40161500 40123812 40081984 
3135.472 40036060 39986832 39935172 39882212 39828388 39773628 39716296 
3138.847 39654688 39586772 39510992 39427312 39336688 39241004 39142768 
3142.223 39043976 38945924 38849168 38754136 38660932 38570144 38482556 
3145.598 38398968 38319448 38243712 38170480 38098420 38026192 37953432 
3148.973 37880212 37807912 37737536 37670320 37606724 37546644 37489528 
3152.348 37434740 37381580 37329832 37279136 37229280 37179644 37129692 
3155.724 37078628 37026124 36972544 36918680 36865836 36815232 36767704 
3159.099 36723280 36681564 36641216 36600844 36559068 36514988 36468136 
3162.474 36418484 36366672 36313064 36258852 36204612 36151492 36100000 
3165.849 36050748 36003624 35958196 35913528 35868724 35822448 35774376 
3169.225 35724152 35672316 35619836 35567580 35516372 35466972 35419552 
3172.600 35373900 35329688 35286200 35242752 35198484 35152600 35104068 
3175.975 35052700 34998392 34942044 34885060 34829268 34776064 34726672 
3179.350 34681164 34638568 34597840 34557512 34516864 34475896 34435360 
3182.726 34395944 34358824 34324184 34291516 34260324 34229776 34199520 
3186.101 34169836 34141412 34115036 34091520 34071236 34053820 34038912 
3189.476 34026300 34015692 34006984 34000320 33995840 33993224 33992220 
3192.851 33992684 33994840 33999172 34006484 34017340 34032212 34050632 
3196.227 34071596 34094140 34117400 34140984 34165572 34191636 34220456 
3199.602 34252616 34287864 34325764 34365352 34405592 34446048 34486368 
3202.977 34526868 34567736 34609072 34651056 34693332 34735252 34776244 
3206.352 34815300 34851416 34883732 34911520 34934792 34953928 34970344 
3209.728 34985428 35000836 35017892 35036788 35056936 35077444 35096808 
3213.103 35114124 35128600 35140528 35150372 35158636 35166144 35173508 
3216.478 35181200 35189428 35198732 35208832 35219284 35229456 35238656 
3219.853 35246168 35252096 35256872 35261652 35268156 35277212 35289148 
3223.229 35303736 35319804 35335904 35351148 35365092 35378212 35391404 
3226.604 35405928 35422752 35442740 35466036 35492212 35521228 35552768 
3229.979 35586748 35623576 35663684 35707496 35755128 35806648 35861272 
3233.354 35918096 35975544 36032024 36086640 36138780 36188296 36236448 
3236.729 36284176 36332336 36381728 36432212 36483812 36535928 36588480 
3240.105 36641364 36694828 36748664 36801888 36853176 36900432 36941916 
3243.480 36976728 37005124 37028324 37048964 37069172 37090752 37114388 
3246.855 37139548 37165028 37189320 37211520 37231088 37248344 37264336 
3250.230 37280004 37296720 37315316 37336692 37361460 37389772 37421516 
3253.606 37456696 37494948 37535804 37579336 37625512 37674616 37726840 
3256.981 37781956 37839544 37898688 37958460 38017584 38075632 38132204 
3260.356 38187304 38240924 38293324 38344676 38395172 38445340 38496024 
3263.731 38547836 38601320 38656480 38712548 38768300 38821884 38871960 
3267.107 38917328 38958140 38994780 39027808 39058328 39086644 39112672 
3270.482 39136136 39156476 39173372 39186388 39195748 39201512 39204412 
3273.857 39205320 39205244 39205428 39206916 39210252 39215584 39222148 
3277.232 39228784 39234112 39236692 39235744 39231356 39224216 39215004 
3280.608 39205068 39195240 39185844 39177360 39169888 39163256 39157416 
3283.983 39152160 39147120 39141860 39135592 39127396 39116700 39103320 
3287.358 39087440 39069964 39052384 39036288 39023492 39014900 39010732 
3290.733 39010480 39012508 39015080 39016420 39015300 39011640 39006276 
3294.109 39000220 38994604 38990180 38986448 38982532 38976916 38968396 
3297.484 38956324 38940812 38922692 38903124 38883304 38863844 38845072 
3300.859 38826704 38808404 38789636 38770368 38750800 38731348 38712876 
3304.234 38696356 38682920 38673212 38667528 38665388 38665464 38666548 
3307.610 38667164 38666728 38665316 38664268 38665100 38669084 38676836 
3310.985 38687956 38701212 38715120 38728960 38742580 38757104 38774132 
3314.360 38795216 38821308 38852432 38888016 38926824 38968432 39012400 
3317.735 39058836 39107924 39159628 39213952 39270600 39329108 39389800 
3321.111 39453220 39520024 39590292 39663724 39738732 39813644 39886388 
3324.486 39955332 40020072 40080824 40138204 40193084 40246192 40297560 
3327.861 40347624 40396568 40444972 40493304 40541792 40589992 40636744 
3331.236 40680444 40718760 40750604 40774732 40790932 40799704 40801560 
3334.612 40796972 40786272 40770076 40748496 40722544 40693108 40661016 
3337.987 40626632 40589740 40549432 40504616 40454316 40397728 40334424 
3341.362 40264768 40188980 40107572 40021452 39931176 39837684 39742108 
3344.737 39645576 39548808 39452492 39356604 39260624 39164232 39066704 
3348.113 38968144 38867904 38765908 38661660 38554932 38445520 38333892 
3351.488 38220736 38107572 37995668 37885888 37778380 37672488 37566656 
3354.863 37459408 37349980 37238200 37125148 37012088 36900572 36791432 
3358.238 36685056 36580656 36477832 36375712 36274088 36172920 36072492 
3361.614 35973168 35874916 35778008 35681920 35586536 35491636 35396904 
3364.989 35302444 35208148 35114016 35020372 34927504 34836016 34746416 
3368.364 34659236 34574660 34492360 34412084 34332972 34254552 34176292 
3371.739 34097220 34017232 33935828 33852752 33768008 33682352 33596712 
3375.115 33512164 33429812 33350342 33273458 33198308 33123706 33047974 
3378.490 32970358 32889898 32806952 32722130 32635964 32549638 32463544 
3381.865 32378428 32294936 32213066 32133140 32055154 31978964 31904216 
3385.240 31830798 31758428 31687066 31617072 31548478 31481210 31415452 
3388.615 31350594 31286846 31224110 31162698 31103322 31046196 30991394 
3391.991 30938412 30886324 30834208 30781386 30727506 30672812 30617628 
3395.366 30561990 30505824 30448566 30389642 30328880 30266316 30202730 
3398.741 30139118 30076544 30015684 29956716 29899030 29842384 29785992 
3402.116 29729290 29671884 29613138 29552200 29488364 29420816 29349518 
3405.492 29274758 29197426 29118972 29040286 28961720 28883414 28804914 
3408.867 28725964 28646534 28567118 28488850 28412506 28338474 28266224 
3412.242 28195044 28123382 28050318 27975042 27897904 27819474 27740526 
3415.617 27661982 27584124 27507162 27430498 27353772 27276500 27198074 
3418.993 27118254 27037144 26954568 26871724 26788966 26707530 26628116 
3422.368 26551324 26477220 26405382 26335354 26266356 26197864 26129450 
3425.743 26061226 25992800 25924666 25857070 25790154 25725006 25662360 
3429.118 25602820 25547010 25494934 25445920 25399090 25353142 25307482 
3432.494 25261440 25214908 25168068 25121092 25074088 25026842 24979424 
3435.869 24932188 24885342 24839730 24795526 24752378 24708676 24662836 
3439.244 24612162 24554412 24488466 24414014 24332040 24244406 24153110 
3442.619 24059908 23965886 23870904 23774682 23675506 23572122 23463692 
3445.995 23349450 23230236 23107632 22983702 22860540 22739612 22621648 
3449.370 22506022 22391716 22277196 22161766 22045356 21928592 21813148 
3452.745 21700000 21589634 21482566 21377926 21274914 21172586 21070248 
3456.120 20967550 20864600 20761258 20657660 20553810 20449742 20345666 
3459.496 20241924 20138762 20036044 19933730 19831164 19728378 19625512 
3462.871 19523052 19421622 19322224 19225204 19130386 19037218 18945384 
3466.246 18854642 18765406 18678370 18594220 18513164 18434680 18356938 
3469.621 18278726 18198834 18117092 18034502 17952790 17873406 17796766 
3472.997 17722210 17647872 17571788 17492474 17409970 17326340 17244244 
3476.372 17167370 17098400 17039024 16988748 16945854 16907474 16870304 
3479.747 16831176 16788020 16739359 16685678 16628524 16569795 16512245 
3483.122 16457384 16405664 16355636 16305132 16250987 16190693 16123012 
3486.498 16047986 15967645 15883915 15799480 15715234 15632000 15548678 
3489.873 15464240 15377519 15287965 15195753 15101057 15004736 14907339 
3493.248 14808900 14709661 14609656 14508784 14406736 14303411 14198742 
3496.623 14092865 13986535 13880334 13775630 13673173 13573338 13475577 
3499.999 13379137 13282479 13184272 13083866 12981504 12878689 12777228 
3503.374 12679134 12585941 12498530 12416524 12338862 12264180 12190260 
3506.749 12115160 12037143 11955156 11869065 11779789 11688592 11598060 
3510.124 11509827 11425355 11344877 11268256 11194608 11123624 11055131 
3513.500 10989267 10926233 10865926 10807088 10748359 10688010 10625052 
3516.875 10559288 10492107 10425343 10361576 10302502 10248591 10199504 
3520.250 10153305 10107892 10061804 10013451 9962797 9910014 9856015 9801686 
3524.107 9747228 9692844 9637281 9579558 9517811 9450487 9377146 9298096 
3527.965 9215406 9131988 9051054 8975277 8905703 8842564 8784473 8730041 
3531.822 8678556 8629883 8585067 8545157 8510454 8480416 8452643 8423960 
3535.680 8391496 8352717 8307121 8256091 8201116 8144901 8089469 8035797 
3539.537 7984463 7935597 7889301 7845238 7803404 7762857 7722617 7681133 
3543.395 7636753 7588263 7535161 7477918 7417785 7356985 7297610 7241847 
3547.252 7190842 7145434 7105487 7069753 7036212 7002537 6967115 6928161 
3551.109 6885743 6840771 6795163 6750638 6708742 6669475 6632027 6594785 
3554.967 6556335 6516039 6474031 6431421 6389018 6347594 6307451 6268321 
3558.824 6229833 6191751 6154177 6117648 6082566 6049067 6016578 5984529 
3562.682 5951809 5917514 5880904 5841140 5796814 5746918 5690380 5626600 
3566.539 5557090 5485242 5415856 5353961 5303546 5265579 5239085 5221043 
3570.396 5207394 5194785 5180065 5161187 5137214 5107642 5072810 5033523 
3574.254 4991591 4949697 4910521 4877078 4851043 4832648 4820386 4811541 
3578.111 4802596 4790837 4774321 4752446 4725983 4696037 4664119 4631666 
3581.969 4599920 4570218 4543297 4519324 4497328 4475400 4450393 4418024 
3585.826 4375850 4323004 4261700 4196925 4135471 4083592 4044928 4019311 
3589.684 4004095 3995066 3987643 3978747 3966141 3949289 3927555 3901076 
3593.541 3869683 3833613 3793502 3750486 3706840 3665170 3627546 3595839 
3597.398 3570415 3550405 3533769 3518403 3502036 3483231 3462021 3439144 
3601.256 3416601 3396631 3380902 3370551 3365041 3363004 3361635 3358162 
3605.113 3349247 3332585 3306542 3270987 3226955 3177353 3125321 3074329 
3608.971 3027348 2985509 2948178 2913218 2878028 2840506 2799919 2757102 
3612.828 2715323 2678081 2648911 2629276 2618442 2613409 2609742 2602475 
3616.686 2587909 2563477 2528848 2485725 2438607 2393026 2354447 2327630 
3620.543 2314605 2314838 2325731 2343120 2362576 2380633 2394592 2403555 
3624.400 2407553 2406687 2400423 2386596 2361277 2319602 2258313 2178051 
3628.258 2086218 1997100 1926072 1884738 1875154 1889930 1917485 1946740 
3632.115 1969340 1981322 1982920 1977261 1968607 1960453 1953996 1948570 
3635.973 1942047 1932096 1917951 1900113 1880346 1860246 1841446 1824143 
3639.830 1808239 1793366 1779426 1767216 1757934 1752378 1750415 1750781 
3643.688 1751114 1748319 1739637 1722770 1696292 1659936 1613839 1559500 
3647.545 1498650 1433920 1368768 1308045 1257333 1221712 1205597 1210714 
3651.402 1235335 1274812 1322502 1371061 1413110 1442730 1455729 1450908 
3655.260 1429931 1398584 1364945 1336694 1319677 1315423 1322336 1336694 
3659.117 1353977 1370895 1385022 1394861 1399980 1400346 1396290 1388678 
3662.975 1379005 1369333 1361721 1358431 1360658 1368037 1378839 1389443 
3666.832 1395925 1394130 1382030 1360425 1335896 1319179 1324995 1368103 
3670.689 1456294 1589495 1758832 1951732 2152910 2348517 2525882 2670914 
3674.547 2770340 2813159 2794483 2718323 2595109 2437740 2257480 2063046 
3678.404 1863075 1667852 1489507 1340815 1230284 1159847 1123768 1111942 
3682.262 1112075 1114733 1115463 1113836 1111809 1111643 1112540 1111045 
3686.119 1101678 1078990 1040195 987057 926786 869146 823365 795049 784128 
3690.459 787381 800858 821075 846969 877679 912873 950395 987522 1020600 
3694.798 1046539 1063545 1071716 1072978 1070288 1066435 1063279 1060755 
3698.656 1057765 1052318 1042919 1029202 1013194 998182 988352 987522 997584 
3702.995 1017644 1044945 1075137 1103671 1127190 1143734 1153202 1156558 
3706.853 1155229 1150578 1142272 1129150 1108687 1078525 1037073 985695 
3710.710 928313 872101 825855 797472 791597 808626 844778 893350 946842 
3715.050 998249 1042719 1077396 1101744 1117556 1127722 1134864 1141010 
3718.907 1146591 1150644 1151641 1148917 1142472 1134798 1129017 1127722 
3722.765 1132073 1141110 1151641 1159514 1161342 1155727 1144432 1131177 
3726.622 1121078 1118686 1125695 1140777 1159880 1177522 1188153 1187223 
3730.479 1173202 1147621 1115231 1082445 1055241 1036608 1025714 1017046 
3734.337 1004393 982939 951856 915530 882294 861444 859053 876118 909420 
3738.677 953483 1002035 1049894 1093008 1128320 1152405 1160644 1147521 
3742.534 1107391 1037671 943787 841790 754885 705831 703541 740879 799763 
3746.874 860547 906996 928247 920709 887440 837242 782004 732614 696306 
3751.213 675930 672180 685288 715522 762287 822867 891723 961885 1025316 
3755.553 1076366 1111378 1130346 1135960 1133004 1126559 1120048 1116294 
3759.410 1116194 1121211 1132572 1150711 1174465 1200945 1225034 1242080 
3763.268 1247730 1241183 1225034 1205796 1190280 1184133 1189316 1201842 
3767.125 1215631 1223971 1222443 1210581 1192074 1173269 1160943 1159714 
3770.982 1170345 1190612 1216628 1244440 1270891 1294685 1315091 1332107 
3774.840 1346233 1357001 1363882 1365942 1362187 1351351 1333503 1309541 
3778.697 1282422 1256735 1237495 1229354 1233707 1248893 1270060 1291495 
3782.555 1307015 1313196 1309175 1296945 1281226 1266671 1257133 1254043 
3786.412 1256702 1263115 1271290 1279631 1287540 1294818 1301697 1308145 
3790.270 1313362 1317550 1320508 1322735 1324529 1325360 1324363 1319245 
3794.127 1307713 1288537 1262916 1234039 1207590 1189283 1182472 1186459 
3797.984 1196426 1205132 1204401 1188120 1154166 1107192 1057865 1019969 
3801.842 1006883 1023954 1067464 1126094 1185861 1234006 1261055 1262417 
3805.699 1239987 1202141 1161475 1131642 1123104 1138153 1172704 1218721 
3809.557 1269030 1318115 1364048 1406761 1446620 1482957 1512582 1529872 
3813.414 1528675 1503771 1454299 1386119 1311269 1246998 1208388 1202008 
3817.271 1224370 1263946 1306051 1336295 1345568 1330213 1294818 1250155 
3821.129 1211976 1194433 1204068 1238259 1287407 1339951 1385288 1416601 
3824.986 1432491 1435583 1432291 1429831 1434652 1448747 1470157 1492732 
3828.844 1509589 1515275 1506896 1486182 1458189 1430596 1410418 1402107 
3832.701 1406861 1421454 1440469 1457092 1465304 1460649 1440669 1406196 
3836.559 1361090 1312033 1267136 1235003 1220914 1226197 1247530 1278102 
3840.416 1310737 1338754 1358298 1368269 1370529 1368801 1367239 1369333 
3844.273 1376778 1389642 1406362 1424978 1443594 1460882 1476674 1491436 
3848.131 1506231 1521460 1536722 1550023 1557305 1552450 1527744 1476907 
3851.988 1396756 1291362 1175495 1072546 1004857 985197 1011765 1072646 
3855.846 1152538 1238060 1320574 1394794 1458588 1511052 1552051 1581747 
3859.703 1599605 1605525 1600071 1584706 1561395 1532865 1501344 1469060 
3863.561 1438807 1413609 1397420 1394263 1406096 1431759 1466833 1503305 
3867.418 1531934 1545168 1538418 1513480 1478037 1445157 1427172 1431327 
3871.275 1456128 1493663 1533829 1567879 1590792 1603429 1610447 1618961 
3875.133 1634991 1660768 1694595 1731020 1763057 1785015 1792035 1782986 
3878.990 1759098 1725132 1687976 1654980 1632397 1623317 1626909 1639381 
3882.848 1654215 1665092 1665990 1654481 1632131 1605757 1585105 1579552 
3886.705 1594517 1629204 1677398 1729557 1776298 1810002 1826239 1824243 
3890.563 1807972 1784616 1761926 1747022 1743362 1751413 1769012 1792701 
3894.420 1818886 1844440 1866536 1883174 1892825 1894489 1888199 1874921 
3898.277 1856353 1835090 1814161 1795495 1780757 1769811 1761627 1754241 
3902.135 1745758 1735445 1723136 1710795 1700550 1695560 1697789 1707768 
3905.992 1724201 1744294 1765419 1784516 1800120 1811632 1820217 1827371 
3909.850 1834691 1843575 1854390 1866768 1880346 1894688 1909498 1924807 
3913.707 1940250 1955027 1967942 1977228 1981589 1980357 1974532 1965911 
3917.564 1957158 1950301 1946906 1947505 1951832 1959288 1969306 1981356 
3921.422 1994237 2006320 2015807 2020135 2018071 2009250 1995602 1980290 
3925.279 1966976 1958955 1957390 1961884 1969972 1979258 1987780 1994270 
3929.137 1999064 2001993 2003491 2002559 1998331 1989810 1977095 1961684 
3932.994 1946374 1933959 1926804 1925506 1929300 1936189 1944676 1953663 
3936.852 1963515 1975065 1989411 2006054 2023564 2039143 2049763 2053325 
3940.709 2049363 2039609 2027092 2015974 2009416 2009483 2016074 2027625 
3944.566 2041673 2055722 2067574 2075763 2079326 2078227 2072501 2063046 
3948.424 2051028 2037911 2025428 2014476 2005854 2000096 1996834 1995702 
3952.281 1996301 1998498 2001694 2005821 2010415 2015208 2020135 2025361 
3956.139 2031187 2038078 2046267 2055389 2064644 2072767 2078394 2080591 
3959.996 2079226 2074865 2069138 2063412 2059683 2058884 2061381 2067141 
3963.854 2075298 2084886 2094541 2103464 2110356 2114785 2116283 2114951 
3967.711 2111322 2106161 2100800 2096572 2094208 2094275 2096738 2101000 
3971.568 2106128 2110822 2114285 2115850 2115417 2113852 2111821 2110622 
3975.426 2110856 2112853 2116449 2120811 2125373 2129402 2132831 2135695 
3979.283 2138192 2139990 2141056 2140456 2137693 2132532 2125806 2118780 
3983.141 2113386 2111289 2113553 2119912 2129368 2139957 2149680 2157006 
3986.998 2160935 2161368 2158338 2152477 2144119 2134396 2124008 2114085 
3990.855 2106061 2101000 2100001 2102765 2109058 2117415 2126305 2134629 
3994.713 2141289 2146517 2150446 2153876 2157372 2161634 2166696 2172590 
3998.570 2179050 2185644 2192038 2197432 2201096 
##END=
