
##TITLE=Z197_1_b
##JCAMP-DX=5.01  $$ Nicolet v. 1
##DATATYPE=INFRARED SPECTRUM
##ORIGIN=UniL
##OWNER=Nicolet
##LONGDATE=2011/09/08
##TIME=10:12:24
##SPECTROMETER/DATA SYSTEM=Nicolet iS5
##DATA PROCESSING=
Ratio against background
%Transmittance->Absorbance
Truncated
ElementMultiply or ElementDivide
##COMMENTS=
Number of sample scans: 32
Collection length: 51.14 sec
Sample gain: 2.0
Background collected on: Jeu Sep 08 10:07:06 2011 (GMT+02:00);
Number of background scans: 32
Background gain: 2.0
Sample spacing:  1.000
Number of scan points: 12415
Resolution points: 8192
Number of FFT points: 65536
Apodization: N-B fort;
Phase correction: Mertz;
Laser frequency: 15798.0 cm-1
Number of rejected sample scans: 0
Number of rejected background scans: 0
Bench serial number: ASB1000141;
##RESOLUTION=4.000
##XUNITS=1/CM
##YUNITS=ABSORBANCE
##FIRSTX=649.893372
##LASTX=4000.122314
##FIRSTY=0.101765
##MAXX=4000.122314
##MINX=649.893372
##MAXY=0.240734
##MINY=-0.000249
##XFACTOR=1.000000
##YFACTOR=1.000000E-009
##NPOINTS=6950
##DELTAX=0.482117
##ZPD=6100
##XYDATA=(X++(Y..Y))
649.893 101765304 102051080 102448160 102955280 103537640 104146256 
652.786 104739416 105307616 105874072 106479872 107155688 107904040 
655.679 108694920 109484552 110237704 110950704 111651384 112386104 
658.571 113193240 114081792 115027832 115986576 116917864 117801344 
661.464 118642648 119460848 120272464 121076192 121853848 122582104 
664.357 123246504 123848360 124397184 124895176 125316368 125594184 
667.250 125640512 125383272 124818056 124018056 123089648 122113352 
670.142 121110432 120050848 118879720 117552056 116052624 114409088 
673.035 112675440 110915712 109173136 107460608 105768208 104082248 
675.928 102402016 100749440 99159248 97665088 96285264 95015816 93839056 
679.302 92735288 91696520 90730536 89854792 89083712 88419904 87849184 
682.677 87348200 86892560 86468560 86075400 85720944 85411304 85142544 
686.052 84897888 84654752 84395560 84116488 83830256 83559792 83327464 
689.427 83142040 82995448 82865632 82728792 82569432 82386064 82189232 
692.802 81993296 81807528 81631032 81454336 81267200 81066360 80858592 
696.177 80658000 80477904 80324944 80194728 80076536 79959368 79840128 
699.551 79725264 79627296 79555776 79510968 79480264 79444248 79384144 
702.926 79290904 79168112 79028856 78887296 78749960 78613304 78466800 
706.301 78300912 78115000 77919472 77731032 77565584 77429008 77314744 
709.676 77208656 77097568 76979024 76864520 76775928 76735880 76759840 
713.051 76848456 76988480 77157120 77330384 77484064 77594336 77637840 
716.425 77589344 77429968 77157752 76799616 76415512 76083096 75882200 
719.800 75859504 76005920 76245064 76448656 76473624 76188120 75518248 
723.175 74460376 73077224 71472944 69766432 68072096 66472612 65020984 
726.550 63741656 62636108 61691408 60885516 60193224 59587388 59043624 
729.925 58544520 58080300 57648964 57252380 56892268 56566420 56268348 
733.300 55988312 55717420 55451928 55192512 54943620 54709720 54492848 
736.674 54290804 54099212 53913408 53731164 53552488 53378264 53208088 
740.049 53038872 52864856 52681556 52487160 52284964 52081924 51886748 
743.424 51705768 51541948 51394524 51262292 51145568 51047880 50973876 
746.799 50926820 50904612 50899396 50898580 50889264 50863076 50819164 
750.174 50763256 50704416 50650688 50605712 50567964 50532824 50495676 
753.548 50454108 50408036 50358472 50305156 50246860 50181696 50109772 
756.923 50035404 49966516 49911504 49876524 49861880 49862032 49868760 
760.298 49876600 49886188 49905552 49946628 50019788 50128624 50268812 
763.673 50430288 50603592 50786308 50985724 51217664 51500240 51850004 
767.048 52276440 52783020 53371824 54049524 54831956 55751060 56854836 
770.423 58210648 59912736 62072112 64812980 68252160 72454256 77388104 
773.797 82867760 88551112 93911480 98301176 101113296 101856576 100316680 
777.172 96606192 91147920 84572968 77549136 70725560 64585396 59405680 
780.547 55289816 52182948 49938820 48365144 47282600 46544292 46039588 
783.922 45701644 45489924 45380112 45357784 45410640 45526940 45696456 
787.297 45909308 46157860 46437272 46744976 47080408 47444416 47838316 
790.671 48263900 48723744 49221776 49763260 50355160 51005364 51721144 
794.046 52508956 53375308 54326628 55371412 56521472 57790916 59196972 
797.421 60759808 62501132 64449428 66642552 69127176 71965744 75231392 
800.796 78995872 83327016 88266448 93815992 99916456 106434912 113162368 
804.171 119785760 125926760 131169792 135086800 137345728 137758608 
807.063 136331872 133268136 128938392 123829936 118431128 113213496 
809.956 108571008 104761336 101925032 100063000 99055432 98670464 98601032 
813.331 98525440 98117688 97121872 95388272 92873800 89647456 85856832 
816.706 81707696 77411472 73164392 69135872 65441372 62150520 59290584 
820.081 56852308 54803012 53095596 51682028 50514920 49553184 48765372 
823.455 48124324 47607620 47196008 46871044 46617584 46425544 46290500 
826.830 46214316 46203300 46266508 46411572 46643296 46962256 47364848 
830.205 47843236 48385260 48975472 49594116 50219188 50830260 51410304 
833.580 51947988 52438368 52877020 53254604 53552788 53739040 53772528 
836.955 53614788 53237300 52634168 51825292 50856148 49786260 48679116 
840.329 47596524 46585676 45678712 44894104 44237020 43703296 43282116 
843.704 42959188 42718600 42544432 42424548 42350320 42317444 42324056 
847.079 42369640 42451876 42566760 42708256 42870088 43047644 43237316 
850.454 43437836 43648152 43867924 44097668 44339388 44598388 44882308 
853.829 45199944 45558400 45960244 46402612 46878684 47381624 47907716 
857.204 48459604 49045684 49678104 50368964 51127488 51960760 52875932 
860.578 53884144 55005180 56268200 57709244 59372440 61301912 63538908 
863.953 66118316 69057096 72343280 75915656 79656440 83373784 86801216 
867.328 89648928 91622000 92483128 92115328 90533728 87894608 84445536 
870.703 80504056 76391248 72374600 68671456 65415876 62665924 60423968 
874.078 58650964 57286976 56261296 55508552 54972468 54605444 54373412 
877.452 54249956 54214444 54251044 54346188 54489056 54672968 54894780 
880.827 55154812 55455092 55797364 56181532 56605940 57067524 57564636 
884.202 58097800 58670116 59285948 59948872 60661040 61422544 62232648 
887.577 63091732 64002476 64970956 66007792 67125992 68344104 69684688 
890.952 71170168 72819912 74638032 76603448 78657296 80698648 82601008 
894.327 84214744 85402344 86068376 86167192 85714608 84773624 83443688 
897.701 81833448 80046568 78181480 76319232 74528264 72867328 71379136 
901.076 70090696 69012112 68136752 67445272 66912068 66513896 66231228 
904.451 66050804 65963856 65962396 66038072 66183256 66391720 66661864 
907.826 66996536 67401312 67881688 68440752 69079432 69798840 70603488 
911.201 71505096 72520776 73671168 74976120 76449448 78098584 79926432 
914.575 81933192 84118904 86481824 89015168 91701472 94508648 97395320 
917.950 100307416 103185536 105966888 108571648 110899584 112828800 
920.843 114208752 114894464 114777536 113818264 112075608 109709808 
923.736 106974440 104154008 101539944 99392576 97894008 97159544 97233808 
927.110 98102408 99704192 101938488 104680504 107768424 111018472 114245600 
930.485 117255632 119873872 121957608 123385496 124072640 123969560 
933.378 123065192 121398584 119065224 116230256 113107424 109957584 
936.271 107074360 104729880 103176080 102619096 103188936 104947784 
939.163 107869288 111839312 116628856 121892496 127206952 132048872 
942.056 135885776 138266752 138855744 137529744 134388944 129748192 
944.949 124056368 117809776 111501312 105511736 100103968 95427024 91519240 
948.324 88348832 85839592 83901432 82440776 81370928 80621728 80132040 
951.698 79852392 79746960 79786416 79949656 80221464 80587624 81034336 
955.073 81548352 82115696 82724584 83366888 84037640 84734360 85455232 
958.448 86196536 86952864 87717168 88482816 89246240 90007264 90768592 
961.823 91534208 92306536 93085176 93867392 94649704 95429424 96207024 
965.198 96984688 97765960 98552840 99345560 100142728 100943120 101747880 
968.573 102561392 103390304 104242416 105123504 106036672 106982824 
971.465 107963344 108981464 110044144 111160536 112339888 113588632 
974.358 114909096 116300016 117759328 119286864 120886240 122562904 
977.251 124321472 126161296 128074168 130045312 132054072 134079768 
980.143 136103296 138106304 140070480 141974864 143792896 145498352 
983.036 147068208 148488928 149759968 150893408 151910064 152831712 
985.929 153679712 154472272 155224752 155954528 156680064 157418000 
988.821 158181904 158976336 159796880 160632032 161469248 162300544 
991.714 163124944 163947824 164775968 165613152 166456448 167297152 
994.607 168123824 168927632 169703488 170449584 171163344 171837680 
997.500 172459536 173014816 173491952 173889392 174217232 174496224 
1000.392 174751824 175006576 175279312 175583232 175930064 176333584 
1003.285 176810208 177376144 178043440 178814672 179683072 180636128 
1006.178 181663520 182763584 183947168 185233984 186649344 188216336 
1009.070 189951216 191864864 193963136 196246768 198704144 201299520 
1011.963 203962528 206570560 208958560 210946320 212355040 213063472 
1014.856 213033632 212323296 211071792 209471424 207741664 206074128 
1017.748 204623008 203492752 202730208 202338512 202286112 202523920 
1020.641 202992480 203635776 204411824 205292320 206264352 207325968 
1023.534 208477920 209717040 211034896 212416640 213847296 215316432 
1026.427 216819296 218355440 219924608 221521152 223132592 224741824 
1029.320 226330176 227883808 229394096 230854256 232256000 233583488 
1032.213 234813776 235922544 236890208 237709760 238387888 238943200 
1035.106 239398208 239770992 240074240 240314528 240496192 240624704 
1037.999 240704592 240734352 240698768 240565360 240284752 239795200 
1040.892 239038880 237967664 236548816 234767776 232623040 230123984 
1043.785 227291248 224161040 220790112 217249792 213628896 210019376 
1046.678 206500432 203140272 199986832 197069520 194408032 192013216 
1049.571 189888656 188029392 186419072 185030176 183823264 182757440 
1052.464 181794080 180901904 180060992 179257472 178479152 177711968 
1055.357 176936672 176130640 175272624 174342096 173321104 172192672 
1058.250 170935840 169526528 167941264 166160592 164178080 162002992 
1061.144 159660800 157187408 154621776 152003296 149364736 146734640 
1064.037 144139440 141602896 139147152 136791168 134547392 132421496 
1066.930 130413800 128521608 126742360 125076160 123525504 122093560 
1069.823 120781296 119586160 118500856 117515664 116620792 115806928 
1072.716 115066088 114390592 113770720 113194224 112648552 112120896 
1075.609 111603480 111095016 110600952 110131584 109700208 109320312 
1078.502 109003776 108761688 108604456 108540584 108575728 108709344 
1081.395 108932064 109222768 109550000 109876968 110162792 110370800 
1084.288 110472616 110449160 110293392 110010592 109619688 109151536 
1087.181 108648360 108162936 107747536 107453184 107323864 107390808 
1090.074 107677216 108200136 108973584 110014352 111342384 112978376 
1092.967 114941696 117243136 119879200 122823096 126018744 129378464 
1095.860 132767184 136014320 138922848 141271216 142863312 143551744 
1098.753 143264912 142028128 139958016 137247744 134115728 130790800 
1101.646 127480656 124339248 121479528 118966384 116822672 115043072 
1104.540 113601928 112464224 111589640 110940520 110485648 110198064 
1107.433 110057040 110044312 110139992 110322144 110565184 110840432 
1110.326 111121592 111385856 111615688 111801672 111938984 112026032 
1113.219 112059904 112030832 111915920 111678416 111262072 110597704 
1116.112 109619424 108272528 106537584 104440312 102057112 99503064 96907232 
1119.487 94401032 92083744 90015008 88214480 86667064 85337488 84183656 
1122.862 83170896 82275880 81488552 80810544 80253072 79835152 79579896 
1126.238 79515112 79667024 80050760 80662896 81469128 82402848 83355480 
1129.613 84190776 84763640 84924608 84553208 83572520 81957080 79742264 
1132.988 77017952 73923760 70617024 67260128 64003588 60958064 58200080 
1136.363 55769332 53673832 51901424 50428128 49227752 48273344 47539852 
1139.739 47005232 46646724 46442436 46372600 46418172 46563652 46796788 
1143.114 47105964 47479968 47907088 48373740 48867292 49376780 49893512 
1146.489 50412424 50930360 51445624 51957472 52466108 52974220 53486900 
1149.864 54012000 54558404 55132432 55737196 56370612 57026452 57696492 
1153.240 58373140 59051404 59728152 60401084 61067272 61720588 62352620 
1156.615 62953516 63512444 64020252 64467376 64843492 65137112 65334448 
1159.990 65420032 65380512 65204488 64884460 64417416 63802944 63043312 
1163.365 62143064 61109760 59954728 58693212 57344668 55930304 54470576 
1166.740 52985676 51492368 50004768 48536516 47099208 45704956 44365148 
1170.116 43089280 41884432 40754608 39700356 38720228 37811852 36972940 
1173.491 36202376 35499512 34863336 34291804 33781580 33328268 32927216 
1176.866 32574814 32267992 32004430 31781386 31595476 31442310 31318754 
1180.241 31223754 31160064 31134220 31155256 31232940 31374774 31586032 
1183.617 31869732 32227558 32661576 33175312 33772380 34457100 35233336 
1186.992 36105436 37080936 38173304 39402460 40795624 42380708 44178912 
1190.367 46196112 48414964 50791264 53250408 55700884 58039624 60162396 
1193.742 61987148 63458988 64563364 65327936 65821760 66147296 66416592 
1197.118 66749952 67253288 68000832 69034328 70349976 71901544 73595680 
1200.493 75305704 76885912 78173904 79023568 79318232 78978976 77979256 
1203.868 76340608 74129024 71438960 68388272 65109780 61728912 58367604 
1207.243 55131940 52098620 49321876 46827972 44618772 42678424 40978996 
1210.619 39489976 38180104 37023564 36002004 35101624 34313212 33630688 
1213.994 33048976 32564350 32173958 31876080 31668816 31550292 31516768 
1217.369 31563300 31684108 31874120 32130108 32451510 32839474 33295426 
1220.744 33819332 34408568 35058300 35761964 36512752 37304304 38129856 
1224.120 38981444 39849232 40721636 41587700 42439964 43276556 44102764 
1227.495 44930112 45774540 46652220 47578672 48567528 49629960 50775844 
1230.870 52013792 53349756 54786736 56323344 57955252 59676828 61483888 
1234.245 63376584 65359516 67440704 69628680 71930824 74351240 76891288 
1237.621 79548584 82316216 85177984 88100376 91029976 93886400 96561048 
1240.996 98936696 100890112 102312224 103131424 103319440 102905016 
1243.889 101969072 100648672 99117912 97558264 96158520 95081304 94448352 
1247.264 94348944 94831936 95916464 97603568 99884968 102748328 106174160 
1250.639 110132096 114564944 119370904 124405960 129465072 134283120 
1253.532 138572448 142012864 144292912 145165056 144456752 142116640 
1256.426 138220288 132965640 126636568 119547192 112034864 104403400 
1259.319 96906536 89761280 83121704 77087072 71710264 66996112 62914068 
1262.694 59406252 56402796 53827208 51604336 49671304 47974580 46472968 
1266.069 45139132 43955136 42912296 42010084 41254840 40659376 40239468 
1269.444 40014008 39999400 40204680 40627904 41251780 42042348 42945180 
1272.820 43892556 44805376 45594760 46179012 46487604 46471712 46115784 
1276.195 45438600 44492252 43346988 42085568 40787544 39513964 38310184 
1279.570 37200692 36193300 35286056 34471984 33743408 33092416 32512606 
1282.945 31997546 31540710 31136284 30779892 30467722 30197544 29967046 
1286.321 29773572 29613600 29483860 29382098 29307440 29260794 29242578 
1289.696 29251792 29283408 29329666 29381708 29431344 29474464 29511594 
1293.071 29547412 29588520 29640984 29709100 29795254 29900664 30026940 
1296.446 30176872 30353646 30559786 30796042 31060862 31351342 31665218 
1299.822 32001398 32360862 32745708 33157036 33593920 34053428 34531392 
1303.197 35024932 35533600 36059672 36606684 37177336 37771512 38385648 
1306.572 39014504 39652144 40293812 40936760 41578292 42215148 42841748 
1309.947 43450724 44034740 44588660 45110864 45603444 46071568 46521276 
1313.323 46957972 47387132 47813644 48241684 48673076 49103560 49519172 
1316.698 49891580 50180396 50339532 50322900 50098876 49657336 49012156 
1320.073 48197324 47259436 46249516 45211748 44181808 43187464 42247976 
1323.448 41379284 40595012 39905276 39316772 38830980 38444760 38151564 
1326.823 37943776 37815176 37759876 37772596 37847060 37975056 38147832 
1330.199 38356944 38595384 38857756 39138888 39431416 39725264 40006920 
1333.574 40261460 40476576 40644132 40761088 40829260 40851972 40832316 
1336.949 40771060 40667892 40523060 40339880 40126432 39894780 39657300 
1340.324 39425140 39204340 38996632 38801016 38616384 38443420 38285072 
1343.700 38145192 38028072 37936908 37874648 37845072 37854040 37909464 
1347.075 38020296 38194468 38436436 38747396 39125764 39569748 40078752 
1350.450 40652608 41290476 41987088 42731436 43508296 44298804 45085832 
1353.825 45855984 46598584 47303440 47957408 48540444 49028140 49395336 
1357.201 49621084 49697196 49629144 49438556 49156468 48823172 48482352 
1360.576 48175004 47943568 47828624 47865468 48086012 48511060 49147224 
1363.951 49987928 51013968 52196548 53494616 54855828 56212492 57476080 
1367.326 58554304 59359448 59827736 59939136 59719068 59233540 58565032 
1370.702 57802952 57025960 56290340 55637420 55091988 54665564 54356856 
1374.077 54148492 54006412 53875932 53692544 53394604 52929156 52268368 
1377.452 51412580 50393708 49267128 48103592 46978168 45951808 45070428 
1380.827 44365776 43856964 43558916 43483428 43639400 44035548 44685752 
1384.203 45614560 46864660 48491800 50546672 53047104 55941536 59094228 
1387.578 62279956 65238596 67729936 69562528 70633512 70919256 70465240 
1390.953 69365896 67749104 65764076 63552020 61257884 59027340 56993960 
1394.328 55283720 53989000 53150000 52750656 52729444 53006748 53497092 
1397.704 54127324 54843008 55602016 56377028 57151232 57913112 58652596 
1401.079 59358004 60013200 60601000 61105332 61515836 61832776 62068176 
1404.454 62243780 62383260 62509128 62638328 62781112 62944824 63134268 
1407.829 63349672 63583708 63817180 64020060 64152436 64176672 64067444 
1411.205 63818560 63444524 62973476 62439992 61873808 61296460 60722808 
1414.580 60161176 59617076 59093088 58587024 58089772 57586348 57061480 
1417.955 56509584 55947532 55416808 54975132 54672068 54526320 54523580 
1421.330 54624908 54785568 54965884 55144280 55320528 55511908 55743528 
1424.706 56034980 56391252 56799624 57236128 57673484 58090564 58473816 
1428.081 58818052 59125324 59403856 59669340 59944572 60263260 60666336 
1431.456 61192000 61872204 62723608 63748680 64942488 66304712 67849072 
1434.831 69602504 71596040 73840808 76302688 78893256 81494864 84002944 
1438.207 86354200 88522304 90492992 92245728 93733624 94887464 95639200 
1441.582 95930064 95732984 95057552 93945632 92460816 90673456 88658992 
1444.957 86482152 84189368 81812616 79370616 76884688 74398664 71986160 
1448.332 69745072 67780088 66169596 64955488 64140492 63694388 63562148 
1451.708 63666372 63919044 64216928 64451316 64520888 64321348 63752896 
1455.083 62729352 61205728 59229744 56973372 54724944 52769700 51275788 
1458.458 50263192 49653288 49341324 49237992 49284312 49442120 49681224 
1461.833 49974172 50288972 50590336 50847956 51040056 51162344 51229336 
1465.208 51273068 51331724 51437120 51612728 51870620 52214032 52639216 
1468.584 53136932 53692808 54283368 54876240 55427572 55875096 56149028 
1471.959 56183944 55941424 55427160 54687436 53788168 52788784 51736896 
1475.334 50671872 49630368 48656544 47798104 47093188 46567524 46226848 
1478.709 46061288 46054108 46189956 46461420 46870820 47428040 48145720 
1482.085 49033704 50093856 51320724 52704752 54239968 55928764 57786528 
1485.460 59841084 62126816 64675064 67506696 70627736 74033648 77717792 
1488.835 81678504 85917200 90420728 95152496 100038712 104979136 109867536 
1492.210 114614424 119158248 123441232 127407912 130982728 134049400 
1495.104 136478688 138155760 139032640 139158880 138684416 137817440 
1497.997 136749136 135635264 134583776 133662712 132926808 132421760 
1500.890 132179888 132215736 132514640 133030104 133673312 134312736 
1503.783 134768656 134772304 133970600 131947216 128315064 122940144 
1506.676 116108896 108472400 100728344 93324184 86384064 79827592 73515848 
1510.051 67352984 61318932 55488976 50002132 44996848 40589700 36829696 
1513.426 33695456 31119518 29010706 27278792 25838924 24624296 23589544 
1516.802 22706268 21965952 21368494 20911050 20579380 20343998 20160942 
1520.177 19985906 19787430 19565960 19355966 19209342 19164390 19225862 
1523.552 19369200 19555458 19750708 19935256 20111520 20299208 20524978 
1526.927 20806722 21145904 21529638 21940336 22366006 22804244 23262292 
1530.302 23750324 24274748 24834924 25422382 26024920 26634598 27251168 
1533.678 27883100 28538138 29217554 29910000 30596048 31250600 31848804 
1537.053 32371860 32803808 33134684 33358820 33473474 33475802 33365406 
1540.428 33151996 32858272 32515820 32154300 31787694 31410430 30999650 
1543.803 30529250 29983022 29368414 28715096 28065766 27454604 26891888 
1547.179 26363062 25837238 25283248 24684544 24050698 23413332 22814790 
1550.554 22285428 21830778 21433690 21066352 20705998 20345144 19995622 
1553.929 19681050 19424324 19232754 19094966 18982350 18859592 18686360 
1557.304 18421716 18031464 17502998 16868514 16208129 15615169 15149364 
1560.680 14819494 14601466 14457637 14351389 14250577 14133700 13992421 
1564.055 13834187 13679464 13553340 13475407 13449910 13465734 13502237 
1567.430 13539598 13565476 13579970 13594671 13628279 13696904 13807473 
1570.805 13958169 14143113 14357143 14597903 14863756 15152829 15459056 
1574.181 15774671 16093131 16414749 16750036 17117806 17538288 18019686 
1577.556 18557770 19141260 19760348 20411122 21095848 21820432 22587792 
1580.931 23391092 24213644 25026700 25795358 26487186 27072054 27526296 
1584.306 27834204 27985572 27977408 27813926 27508222 27081436 26561714 
1587.682 25984426 25383422 24787212 24214064 23668230 23143698 22628736 
1591.057 22113232 21591932 21064962 20535400 20006272 19479698 18957984 
1594.432 18447750 17962564 17521246 17144344 16846400 16630590 16488874 
1597.807 16406663 16370431 16372977 16416296 16508183 16656961 16865862 
1601.183 17132212 17450324 17817996 18240436 18732438 19312906 19999958 
1604.558 20805122 21732430 22779836 23944666 25225022 26617688 28112954 
1607.933 29690012 31311634 32929432 34493364 35956608 37288632 38477956 
1611.308 39531676 40469336 41314528 42085936 42790296 43420184 43954000 
1614.684 44361372 44606908 44659348 44499852 44128220 43560124 42817540 
1618.059 41917164 40866644 39667572 38318656 36819564 35170816 33382006 
1621.434 31471982 29476130 27458098 25499924 23690098 22100924 20768522 
1624.809 19689128 18828102 18138512 17572478 17091094 16671630 16305201 
1628.185 15993530 15742684 15557264 15435537 15370790 15351807 15366121 
1631.560 15401858 15446901 15489100 15514956 15508432 15453631 15339381 
1634.935 15166828 14954286 14735437 14546505 14409202 14326150 14284509 
1638.310 14265163 14248865 14221029 14175017 14111931 14038892 13965423 
1641.686 13899766 13844928 13797862 13749739 13689039 13603115 13480499 
1645.061 13314047 13103467 12858688 12599959 12354918 12151550 12008292 
1648.436 11931010 11913300 11940205 11990408 12036053 12045694 11980872 
1651.811 11806174 11508330 11122536 10733789 10428398 10246454 10172096 
1655.187 10165108 10185190 10205135 10211105 10198181 10168128 10125697 
1658.562 10075742 10021046 9961373 9893674 9813480 9716020 9598662 9463050 
1662.419 9316647 9172121 9043915 8944497 8880068 8849091 8843443 8850748 
1666.277 8857444 8850004 8818117 8756681 8666894 8556646 8438758 8327858 
1670.134 8236370 8171540 8135076 8123328 8128661 8139128 8141760 8122856 
1673.991 8072287 7989526 7886771 7787077 7713477 7680324 7686124 7718570 
1677.849 7759720 7794498 7815482 7824185 7829516 7842370 7869732 7909614 
1681.706 7950142 7971639 7953482 7882992 7766770 7633010 7522114 7464199 
1685.564 7464131 7507786 7573630 7643531 7704977 7751658 7782253 7798850 
1689.421 7805901 7809881 7818889 7841088 7882486 7945181 8025335 8113538 
1693.279 8194296 8250823 8269093 8244913 8189907 8131059 8099596 8113133 
1697.136 8169176 8247006 8318671 8354068 8330492 8243191 8113740 7986826 
1700.993 7904519 7887277 7926486 7998436 8075662 8135920 8164280 8153814 
1704.851 8108001 8039207 7965598 7903136 7861027 7840379 7835926 7840075 
1708.708 7845743 7848712 7848274 7845676 7843281 7841965 7841189 7838794 
1712.566 7832586 7821554 7805934 7788595 7771762 7755436 7735974 7706900 
1716.423 7661337 7597064 7520428 7445996 7391630 7369219 7381149 7420346 
1720.281 7475356 7533812 7586645 7629604 7663394 7691925 7720829 7755369 
1724.138 7798513 7851141 7912921 7982977 8060235 8142740 8227286 8309789 
1727.995 8385078 8450008 8504203 8551510 8596964 8644856 8694376 8738053 
1731.853 8760536 8741840 8664934 8525118 8340929 8150235 7997322 7909142 
1735.710 7886501 7910897 7956452 8000089 8022972 8015243 7976026 7913562 
1739.568 7842269 7776721 7727238 7696478 7681200 7674894 7671791 7667710 
1743.425 7661337 7653311 7645622 7640091 7638034 7639248 7643295 7648926 
1747.282 7654963 7660291 7663664 7663192 7656615 7641204 7615441 7580070 
1751.140 7539813 7502561 7476738 7467940 7477480 7501280 7530677 7554715 
1754.997 7563616 7551074 7517495 7470165 7421458 7383643 7363321 7360019 
1758.855 7366826 7374038 7371746 7353818 7319142 7272238 7221801 7177233 
1762.712 7146613 7133443 7137720 7155506 7181814 7209775 7232481 7244273 
1766.570 7241612 7225103 7200140 7174975 7157055 7149543 7149139 7146545 
1770.427 7129737 7088142 7018027 6925737 6827004 6740610 6679502 6646965 
1774.284 6637478 6641414 6649657 6657631 6664428 6672065 6681823 6693331 
1778.142 6703224 6707026 6701205 6685558 6663687 6642020 6626880 6620959 
1781.999 6622910 6627856 6629874 6624559 6610933 6591421 6570935 6554653 
1785.857 6546042 6546749 6556335 6573693 6597443 6625433 6654670 6680073 
1789.714 6695686 6694778 6672469 6628596 6568344 6502551 6443090 6399980 
1793.572 6376846 6371870 6379536 6393019 6407445 6419248 6426478 6428664 
1797.429 6425536 6417365 6404385 6387135 6366692 6344434 6321437 6298845 
1801.286 6277061 6256892 6239177 6225261 6216858 6214841 6219547 6229530 
1805.144 6242774 6256354 6268624 6278675 6286541 6292760 6297265 6299114 
1809.001 6296525 6288255 6273767 6254673 6233967 6215312 6201901 6195179 
1812.859 6194473 6198271 6204254 6210909 6218438 6227412 6239312 6255245 
1816.716 6275817 6300425 6328464 6358555 6389455 6420156 6449985 6478403 
1820.573 6505511 6531209 6555797 6578604 6598116 6611875 6617258 6612952 
1824.431 6600000 6583314 6569555 6564880 6572818 6591791 6615946 6635964 
1828.288 6642625 6630009 6598082 6553274 6506016 6467035 6442721 6433103 
1832.146 6433944 6438349 6440400 6436365 6425503 6409059 6389455 6368642 
1836.003 6348266 6329170 6312427 6299484 6292491 6293197 6303182 6322143 
1839.861 6349073 6381318 6415684 6448438 6474905 6490780 6492932 6481161 
1843.718 6459805 6437676 6426175 6434280 6465724 6517384 6581598 6648883 
1847.575 6710593 6762686 6805698 6844641 6885171 6932067 6986308 7045304 
1851.433 7104443 7159649 7209135 7253808 7296431 7339360 7383710 7428772 
1855.290 7472761 7514495 7554614 7595783 7641339 7694252 7755571 7824084 
1859.148 7898311 7976835 8059560 8147804 8242854 8344037 8448690 8551577 
1863.005 8646884 8730548 8800229 8856024 8898566 8927315 8939186 8928803 
1866.863 8890010 8818962 8717262 8593753 8461900 8337619 8233567 8155063 
1870.720 8100203 8062328 8032794 8004071 7970255 7928309 7876345 7814199 
1874.577 7742686 7663765 7580508 7496594 7414886 7337709 7264455 7193167 
1878.435 7120509 7044462 6964523 6882881 6802770 6727856 6659953 6599293 
1882.292 6544394 6493807 6446891 6404957 6370155 6345106 6330918 6326682 
1886.150 6329876 6336902 6344871 6351225 6354688 6355226 6353411 6350755 
1890.007 6349880 6354319 6366994 6389859 6422174 6460645 6499289 6531679 
1893.865 6553072 6561953 6561314 6556234 6552837 6555393 6564778 6578941 
1897.722 6595290 6611740 6628091 6646461 6669071 6696864 6728663 6761744 
1901.579 6792606 6819868 6844406 6868710 6896650 6930619 6970718 7015367 
1905.437 7061603 7106565 7149038 7188618 7225272 7258289 7286423 7308224 
1909.294 7323725 7335013 7346067 7360524 7381284 7407033 7434435 7458199 
1913.152 7474446 7482199 7484424 7485773 7490324 7499729 7511764 7521979 
1917.009 7525788 7520799 7509640 7497571 7489986 7489784 7495380 7502527 
1920.866 7506370 7504111 7497133 7490088 7489447 7499122 7520057 7548984 
1924.724 7581419 7613081 7643396 7673376 7706057 7742787 7782995 7823309 
1928.581 7860589 7892473 7919872 7945856 7974676 8008830 8047983 8089097 
1932.439 8128291 8162997 8193418 8221917 8252005 8285979 8323400 8361432 
1936.296 8396260 8424873 8447339 8465583 8483085 8501804 8522381 8542656 
1940.154 8560161 8573577 8583580 8593686 8608320 8630322 8660709 8698095 
1944.011 8739777 8784169 8831338 8882164 8937799 8998076 9060730 9121802 
1947.868 9178178 9229045 9275789 9322504 9373049 9430204 9494104 9563197 
1951.726 9634706 9706668 9779218 9852626 9926997 10001787 10074623 10143130 
1955.583 10206254 10264502 10320688 10377797 10437800 10500355 10563124 
1958.958 10623083 10678433 10729917 10780219 10832362 10888043 10946111 
1962.334 11003030 11056355 11104519 11149460 11195050 11244182 11297298 
1965.709 11350896 11397937 11432838 11453453 11463829 11472641 11489482 
1969.084 11520681 11567944 11626239 11689205 11750375 11809137 11867566 
1972.459 11931725 12005873 12090799 12183887 12281392 12380554 12483696 
1975.835 12595695 12721304 12861351 13009431 13151791 13271410 13355457 
1979.210 13396667 13396530 13363487 13308854 13243911 13176689 13112688 
1982.585 13054330 13004310 12964332 12936374 12921560 12919682 12929274 
1985.960 12948732 12977476 13015986 13066041 13129046 13203262 13284666 
1989.336 13367109 13444477 13512936 13573270 13629920 13689894 13760444 
1992.711 13846365 13948521 14065793 14194326 14329163 14466235 14600952 
1996.086 14727964 14843321 14944340 15030598 15104900 15172627 15239609 
1999.461 15309657 15384350 15461459 15538514 15612387 15683044 15752442 
2002.837 15825322 15905842 15997140 16099321 16211879 16332481 16459450 
2006.212 16591137 16726034 16860592 16989748 17108534 17212736 17301892 
2009.587 17380550 17456532 17538908 17634104 17745886 17873304 18013606 
2012.962 18163732 18321684 18487578 18661248 18840594 19022506 19199508 
2016.338 19366742 19519586 19658306 19784448 19902060 20012796 20116308 
2019.713 20209884 20291014 20357818 20411158 20452694 20484094 20504448 
2023.088 20511500 20500524 20467560 20411644 20333652 20236996 20125922 
2026.463 20003290 19871534 19731222 19584920 19435516 19288310 19147978 
2029.839 19018420 18900252 18792360 18691444 18595984 18507044 18428146 
2033.214 18364576 18320924 18298010 18292204 18297388 18306546 18314564 
2036.589 18320786 18327076 18336442 18351686 18372250 18395274 18416982 
2039.964 18434232 18444430 18447508 18443048 18429462 18404224 18364058 
2043.340 18306512 18231624 18142864 18046002 17947610 17853452 17767702 
2046.715 17692908 17627962 17571616 17519866 17467500 17406554 17328822 
2050.090 17225800 17092198 16928110 16739188 16535616 16329832 16133053 
2053.465 15952347 15788553 15637632 15492053 15344702 15191430 15031558 
2056.841 14867459 14703046 14540955 14382659 14228117 14077771 13932611 
2060.216 13795330 13668659 13555118 13454935 13366187 13285485 13209854 
2063.591 13137447 13069149 13006051 12949107 12897120 12847187 12794972 
2066.966 12736998 12671766 12600847 12527006 12453041 12380384 12307808 
2070.342 12232927 12153015 12066441 11974400 11879007 11782989 11687060 
2073.717 11590607 11490570 11385011 11272337 11154321 11034230 10916754 
2077.092 10805457 10702001 10606106 10516004 10429688 10346171 10264841 
2080.467 10186139 10110707 10038780 9970594 9907267 9849847 9800060 9758783 
2084.325 9725371 9696367 9667399 9633961 9592498 9543451 9489160 9433826 
2088.182 9381142 9331712 9283202 9231280 9171817 9102515 9024801 8942941 
2092.040 8862955 8790492 8728418 8677306 8635629 8600918 8570705 8542994 
2095.897 8516637 8490214 8462475 8432406 8400448 8368458 8339477 8316544 
2099.754 8300939 8291382 8283614 8273178 8255652 8229954 8197909 8164213 
2103.612 8133388 8109115 8092135 8080792 8072287 8064557 8056860 8050514 
2107.469 8047105 8047848 8052135 8058886 8065467 8070868 8074851 8077789 
2111.327 8080287 8082176 8081536 8076438 8065029 8047105 8024322 7999920 
2115.184 7977612 7959995 7948589 7943021 7942178 7944877 7950108 7956655 
2119.042 7962628 7965293 7960805 7946058 7919231 7881541 7836330 7789000 
2122.899 7744642 7706630 7675804 7651085 7630514 7612811 7597503 7586072 
2126.756 7579868 7579497 7583509 7589983 7595681 7598244 7597131 7593051 
2130.614 7587657 7583374 7582801 7588162 7602830 7629503 7670915 7727811 
2134.471 7798176 7876648 7955777 8028575 8089469 8137339 8174747 8205810 
2138.329 8235323 8265513 8296279 8325832 8352075 8373187 8389166 8399874 
2142.186 8405448 8404265 8394537 8375349 8347549 8315429 8285100 8262912 
2146.043 8252579 8254065 8263959 8276623 8286890 8291619 8290200 8282534 
2149.901 8268046 8243832 8206080 8150674 8076539 7985070 7882958 7776586 
2153.758 7672769 7575485 7489211 7417785 7371443 7364838 7415459 7539409 
2157.616 7742686 8015580 8331270 8653272 8945477 9180142 9345728 9445103 
2161.473 9491192 9500336 9488042 9466267 9442936 9422145 9405756 9392585 
2165.331 9379144 9360116 9330459 9286249 9228268 9160277 9089827 9024429 
2169.188 8969257 8925996 8891938 8862955 8835294 8807296 8780585 8758879 
2173.045 8744916 8739980 8743158 8751880 8763714 8777812 8794853 8815479 
2176.903 8840333 8867183 8892276 8912704 8926943 8936920 8948116 8967023 
2180.760 8999193 9047062 9108910 9180107 9253686 9323994 9386119 9437958 
2184.618 9477713 9505247 9520114 9523400 9516153 9500472 9477341 9447440 
2188.475 9409616 9361809 9302362 9232261 9154592 9075718 9003861 8945309 
2192.333 8903707 8878985 8866777 8860961 8855415 8845506 8828531 8804185 
2196.190 8772910 8736160 8696066 8656247 8620352 8593821 8580336 8581992 
2200.047 8597099 8621704 8649149 8673756 8691198 8700055 8701171 8696810 
2203.905 8689001 8679807 8670714 8663650 8660641 8664088 8674771 8692009 
2207.762 8712867 8732948 8748635 8758981 8766215 8775784 8792351 8819469 
2211.620 8855448 8896064 8933538 8961646 8977104 8981129 8977848 8972233 
2215.477 8967903 8965468 8963100 8958263 8948961 8934891 8917980 8899649 
2219.334 8880744 8859912 8834821 8802698 8762903 8716620 8667368 8619372 
2223.192 8575842 8538196 8506770 8480584 8458758 8441562 8429332 8422102 
2227.049 8419164 8418690 8418487 8416899 8414231 8412204 8413860 8420650 
2230.907 8433183 8449230 8465887 8479908 8490045 8496802 8502107 8508223 
2234.764 8515792 8524409 8532620 8538838 8543332 8547151 8552693 8561884 
2238.622 8575909 8594193 8615586 8638806 8663785 8691368 8722773 8758507 
2242.479 8797153 8835294 8869043 8894576 8910540 8917540 8917675 8913550 
2246.336 8907157 8898702 8887812 8873406 8855618 8835531 8815581 8797220 
2250.194 8782513 8771862 8765303 8763004 8765574 8773823 8788260 8807770 
2254.051 8829580 8848821 8860893 8862719 8853758 8836207 8814702 8793670 
2257.909 8776866 8764998 8757391 8751982 8746201 8738391 8727370 8712563 
2261.766 8693295 8669361 8640969 8609063 8576180 8545731 8520658 8502783 
2265.624 8492377 8487240 8485078 8483422 8481699 8480314 8481159 8485754 
2269.481 8493762 8503966 8514136 8522043 8527382 8530829 8534986 8542284 
2273.338 8553808 8569217 8586115 8601695 8612814 8618121 8617411 8611936 
2277.196 8603385 8593550 8584324 8576923 8572597 8572361 8576483 8585135 
2281.053 8597234 8611361 8625760 8638738 8649318 8656821 8660370 8659289 
2284.911 8652597 8639617 8620385 8595882 8568711 8541811 8518394 8500654 
2288.768 8488828 8481902 8477239 8472915 8466529 8457609 8445886 8432474 
2292.625 8417879 8403522 8390144 8378356 8369067 8362614 8358663 8356940 
2296.483 8356265 8355622 8354609 8353900 8354677 8358865 8368052 8382780 
2300.340 8401934 8423859 8446326 8467847 8487849 8507243 8527788 8551206 
2304.198 8578849 8611497 8648878 8690353 8734639 8780551 8826706 8871241 
2308.055 8912737 8950213 8983362 9013096 9041412 9070542 9102042 9136759 
2311.913 9173712 9211481 9247797 9281544 9312450 9341598 9371120 9402879 
2315.770 9439075 9480728 9528040 9580709 9637687 9697960 9760139 9823478 
2319.627 9887268 9951440 10015824 10080049 10142418 10199470 10245741 
2323.003 10275155 10282687 10265893 10226913 10172232 10112301 10058413 
2326.378 10021080 10007483 10020198 10057125 10112945 10180915 10254459 
2329.753 10327983 10398261 10462949 10520553 10570288 10611844 10645494 
2333.128 10672117 10693002 10709845 10723227 10733789 10741431 10746322 
2336.504 10748869 10750092 10751111 10753012 10755322 10756885 10755254 
2339.879 10748223 10734265 10713242 10686243 10654594 10619178 10578911 
2343.254 10530771 10470383 10393679 10298226 10185291 10060380 9933201 
2346.629 9815887 9720696 9658862 9637484 9659573 9724186 9826223 9957474 
2350.487 10107621 10266843 10426090 10578673 10721562 10853900 10976218 
2353.862 11089053 11192194 11284444 11364535 11431987 11486998 11531092 
2357.237 11565766 11592309 11611299 11622972 11628212 11627940 11624299 
2360.613 11619058 11613170 11606602 11597618 11584346 11565120 11539973 
2363.988 11510270 11478356 11445969 11414264 11382257 11348345 11311003 
2367.363 11269786 11224970 11178357 11131680 11085995 11041231 10996370 
2370.738 10950019 10901464 10850774 10798324 10744929 10690794 10635443 
2374.114 10577926 10517667 10453887 10387096 10318177 10248319 10178574 
2377.489 10109486 10041595 9975273 9911437 9851101 9795383 9745025 9699891 
2381.346 9659166 9622104 9587822 9555982 9527057 9501996 9481235 9465286 
2385.204 9453738 9445949 9441276 9439786 9441615 9447270 9457327 9471076 
2389.061 9487941 9506906 9527261 9549039 9572953 9599746 9630032 9663469 
2392.918 9698739 9734283 9768678 9801177 9832121 9862659 9893742 9925946 
2396.776 9958728 9991446 10022742 10052073 10079371 10104636 10128105 
2400.151 10149472 10167721 10181865 10190990 10195229 10195332 10192787 
2403.526 10188683 10183934 10178744 10172809 10166126 10159377 10153746 
2406.902 10150625 10151270 10155612 10163040 10171825 10180644 10188819 
2410.277 10196892 10206118 10217957 10233596 10253680 10277836 10305963 
2413.652 10337654 10373080 10412650 10456433 10503953 10554195 10606073 
2417.027 10658669 10712087 10766802 10823767 10883728 10945907 11008400 
2420.403 11069101 11125051 11174413 11216606 11252172 11282097 11307398 
2423.778 11328688 11345965 11359230 11368481 11374366 11378175 11381168 
2427.153 11384229 11388005 11392460 11397223 11401950 11406441 11410693 
2430.528 11415217 11420081 11425864 11433042 11442601 11455392 11472641 
2433.904 11494857 11521838 11552495 11584822 11616880 11647237 11675146 
2437.279 11700913 11725592 11750137 11775431 11801714 11829123 11857385 
2440.654 11886363 11916195 11946199 11976034 12005055 12032443 12058333 
2444.029 12083543 12109709 12138772 12172131 12210059 12251467 12293935 
2447.405 12334976 12372100 12404454 12431390 12453211 12470124 12481581 
2450.780 12487038 12486083 12479297 12468453 12456246 12446119 12440527 
2454.155 12440937 12447005 12457269 12469954 12483355 12496824 12510636 
2457.530 12525403 12541773 12560122 12580722 12603677 12629192 12657574 
2460.906 12689745 12726012 12766684 12811592 12860497 12913163 12969317 
2464.281 13029063 13092745 13160159 13230998 13305129 13382007 13461462 
2467.656 13543974 13629852 13719337 13812364 13908422 14006896 14107994 
2471.031 14212025 14320294 14434344 14555517 14684058 14820145 14963168 
2474.406 15112859 15270324 15437596 15617539 15813190 16026946 16259449 
2477.782 16510488 16778584 17062146 17359928 17671822 17998168 18339898 
2481.157 18697950 19072566 19463238 19867928 20282820 20701654 21116126 
2484.532 21516582 21891862 22231788 22528044 22774878 22968854 23109100 
2487.907 23196088 23230762 23214926 23151212 23043340 22896618 22718174 
2491.283 22515792 22297600 22070802 21841336 21613906 21392234 21179230 
2494.658 20978470 20793026 20626006 20480064 20357680 20260080 20188710 
2498.033 20145080 20130816 20148586 20200720 20289764 20417374 20585112 
2501.408 20793722 21043710 21335918 21670988 22049816 22472768 22939896 
2504.784 23450436 24002022 24590632 25209712 25850176 26498950 27140086 
2508.159 27755574 28324114 28824812 29236940 29540318 29718822 29760124 
2511.534 29657976 29413972 29037346 28545462 27960658 27308782 26616350 
2514.909 25905850 25196720 24503296 23834778 23196612 22591074 22018374 
2518.285 21477206 20964562 20477598 20012936 19568074 19141954 18735170 
2521.660 18349024 17986082 17648182 17336064 17049154 16785956 16544117 
2525.035 16322643 16120743 15938736 15777525 15637873 15519077 15420190 
2528.410 15338523 15271251 15215484 15168715 15128984 15095123 15066684 
2531.786 15043289 15025144 15012453 15005148 15002918 15004942 15009915 
2535.161 15016741 15024424 15032416 15040820 15049841 15059721 15070149 
2538.536 15080578 15090114 15098451 15105998 15113511 15122877 15135400 
2541.911 15151800 15172284 15195994 15221833 15248978 15277119 15306327 
2545.287 15337151 15370000 15405085 15442266 15482095 15525189 15572753 
2548.662 15625782 15684865 15749728 15819136 15891304 15964311 16037397 
2552.037 16110186 16183298 16257212 16332274 16407866 16483437 16558710 
2555.412 16634205 16711123 16792188 16879262 16973658 17076068 17185536 
2558.788 17300892 17421798 17548568 17682278 17824072 17974616 18133120 
2562.163 18298736 18469288 18643436 18820904 19002602 19189290 19381880 
2565.538 19580206 19782646 19987260 20191486 20393064 20590636 20783050 
2568.913 20968768 21146008 21312566 21465612 21603250 21724280 21828514 
2572.289 21917056 21991012 22051316 22098380 22132372 22152700 22159464 
2575.664 22153294 22135196 22107514 22072860 22034236 21994986 21958598 
2579.039 21928104 21906568 21896182 21898098 21912770 21940162 21979510 
2582.414 22030854 22094300 22170728 22261398 22367784 22491190 22632714 
2585.790 22793070 22972488 23170642 23386688 23619002 23865652 24124598 
2589.165 24394106 24673216 24961280 25257962 25562332 25872508 26184772 
2592.540 26494900 26798060 27089474 27365488 27623176 27859780 28072232 
2595.915 28256570 28408190 28522004 28593766 28620520 28601552 28538174 
2599.291 28433518 28291506 28116772 27914192 27687762 27442216 27181884 
2602.666 26910782 26633188 26353134 26074418 25800808 25535942 25283142 
2606.041 25045444 24825310 24624364 24444052 24285364 24149222 24037110 
2609.416 23950234 23890332 23858370 23854730 23878568 23928282 24001950 
2612.792 24097242 24211892 24343780 24489904 24646528 24809172 24973072 
2616.167 25133592 25287918 25434536 25573858 25707532 25837342 25964448 
2619.542 26089478 26212504 26333346 26452604 26571578 26691922 26815048 
2622.917 26941804 27071244 27201038 27327978 27447720 27555950 27648246 
2626.292 27719970 27766734 27783900 27767334 27713296 27619010 27483264 
2629.668 27305996 27088806 26834642 26547520 26232426 25895016 25541564 
2633.043 25178146 24810436 24443492 24081410 23727332 23384168 23053752 
2636.418 22738180 22438608 22156430 21891722 21643960 21411828 21193566 
2639.793 20987546 20792610 20607626 20432342 20266016 20108118 19957632 
2643.169 19813718 19675642 19543086 19416112 19295446 19181256 19073950 
2646.544 18973178 18878346 18789038 18704900 18626002 18552376 18484534 
2649.919 18422236 18365546 18314254 18268394 18228516 18195518 18170158 
2653.294 18153124 18144728 18143968 18149670 18160414 18174994 18192338 
2656.670 18212344 18234632 18259374 18286502 18315740 18346778 18379856 
2660.045 18414770 18451622 18490656 18531664 18574404 18618948 18665190 
2663.420 18713548 18764784 18819762 18879246 18943412 19012466 19085826 
2666.795 19163282 19244356 19328910 19416840 19507976 19601524 19696756 
2670.171 19792806 19888808 19984590 20080114 20176180 20273098 20371604 
2673.546 20472320 20575594 20682506 20793652 20909970 21032060 21159506 
2676.921 21291304 21425858 21561428 21696518 21830882 21965080 22100820 
2680.296 22239740 22383448 22533486 22690524 22855092 23027618 23208530 
2683.672 23398016 23596226 23802820 24016974 24238448 24467014 24703168 
2687.047 24947978 25203146 25470444 25751232 26046520 26357252 26684416 
2690.422 27028892 27392098 27774646 28176942 28598048 29035680 29486662 
2693.797 29947272 30413808 30882340 31349242 31810332 32260176 32692478 
2697.173 33099212 33471220 33798632 34072028 34282336 34423096 34489740 
2700.548 34481276 34399712 34250572 34042140 33784088 33487968 33165190 
2703.923 32826106 32480646 32137136 31802204 31481710 31179714 30899026 
2707.298 30641166 30405706 30191790 29997258 29819884 29657622 29508294 
2710.674 29370612 29243284 29125420 29015842 28913976 28819146 28730742 
2714.049 28649082 28574480 28507282 28448200 28397650 28355700 28322134 
2717.424 28296706 28279094 28268450 28264244 28265728 28271844 28282172 
2720.799 28295716 28312126 28330834 28351454 28373596 28396764 28420854 
2724.175 28446006 28472752 28501446 28532972 28567790 28606258 28648870 
2727.550 28696194 28749080 28809126 28878104 28957788 29049744 29154264 
2730.925 29270824 29397768 29533402 29675608 29823008 29974608 30130204 
2734.300 30289552 30452758 30619690 30789994 30963674 31140414 31320288 
2737.676 31503476 31689990 31879362 32070958 32263708 32455652 32644644 
2741.051 32828394 33004214 33169482 33321898 33459552 33581352 33686580 
2744.426 33774632 33845228 33897744 33931636 33946396 33942492 33921280 
2747.801 33885420 33838388 33784484 33727968 33672324 33620556 33574912 
2751.177 33537254 33509192 33491834 33486430 33493590 33512950 33543624 
2754.552 33584004 33632228 33686148 33743656 33802640 33861168 33917196 
2757.927 33968824 34014904 34055148 34089660 34119584 34146108 34170052 
2761.302 34191704 34210416 34225652 34237020 34244944 34250712 34256736 
2764.677 34265520 34279292 34299872 34328416 34365352 34411436 34467576 
2768.053 34534908 34614668 34708332 34816524 34939996 35079316 35234704 
2771.428 35406900 35596460 35803196 36026588 36265012 36516104 36777364 
2774.803 37046728 37322752 37605132 37894132 38190672 38494868 38806596 
2778.178 39124712 39447272 39772100 40096924 40419368 40737576 41049460 
2781.554 41353192 41646956 41929024 42197912 42452680 42692900 42918808 
2784.929 43131364 43332308 43523312 43706848 43884896 44059712 44233316 
2788.304 44407940 44585648 44768904 44960172 45161448 45374008 45598364 
2791.679 45832932 46075176 46321096 46566052 46805016 47033628 47247800 
2795.055 47444744 47622888 47782200 47924476 48053072 48173744 48293188 
2798.430 48419004 48559268 48721112 48910568 49131940 49388436 49681148 
2801.805 50010456 50375664 50775284 51207300 51669416 52159108 52673556 
2805.180 53209844 53764992 54335336 54916700 55504264 56092544 56675816 
2808.556 57248640 57805564 58341908 58853340 59335668 59784956 60197488 
2811.931 60569496 60897484 61178568 61409988 61589140 61714204 61783420 
2815.306 61796140 61752900 61655316 61506676 61311416 61074940 60803028 
2818.681 60502416 60179484 59841276 59495044 59147684 58806104 58476276 
2822.057 58162876 57869464 57598568 57351588 57129348 56931932 56759028 
2825.432 56610092 56483996 56379744 56296712 56234556 56193940 56176028 
2828.807 56181984 56212720 56268540 56348960 56452980 56579064 56725916 
2832.182 56892152 57076180 57276916 57492384 57720824 57961316 58213452 
2835.558 58477868 58756788 59052852 59368676 59706484 60067948 60454468 
2838.933 60868092 61311796 61790448 62310284 62878488 63502088 64187960 
2842.308 64942060 65770248 66679092 67676224 68769848 69968408 71278144 
2845.683 72700424 74228264 75844704 77521608 79216704 80877792 82446792 
2849.059 83859472 85058472 85996520 86641696 86983144 87031000 86815424 
2852.434 86378448 85773544 85058592 84286120 83507296 82765272 82092160 
2855.809 81513088 81042800 80687280 80446000 80312384 80277232 80328656 
2859.184 80455048 80645344 80888376 81174000 81491944 81831528 82182752 
2862.560 82535656 82880144 83207536 83509704 83779856 84013312 84208032 
2865.935 84365256 84489408 84588112 84670896 84747968 84829048 84922504 
2869.310 85034528 85169032 85328376 85512432 85719768 85947608 86192128 
2872.685 86449520 86716536 86991160 87272528 87560592 87855392 88155408 
2876.061 88458128 88759424 89054504 89339768 89613736 89878096 90137072 
2879.436 90398040 90669128 90958768 91275496 91626752 92018136 92453968 
2882.811 92936792 93466576 94041032 94655840 95305440 95982832 96681864 
2886.186 97396192 98119592 98846576 99571064 100287168 100989736 101674552 
2889.562 102339272 102983464 103608344 104216600 104811192 105395624 
2892.455 105973272 106547704 107122952 107702608 108290728 108890552 
2895.348 109505664 110138840 110794200 111475824 112188672 112938072 
2898.241 113728064 114561248 115437432 116353896 117305464 118284920 
2901.134 119284464 120294544 121305520 122306960 123287920 124238272 
2904.027 125149520 126015512 126833048 127601984 128323976 129002288 
2906.920 129639880 130241408 130811360 131355288 131880688 132394984 
2909.813 132905392 133418512 133938032 134465712 135000304 135537728 
2912.706 136070160 136585552 137067712 137495184 137844288 138092592 
2915.599 138220560 138216784 138079696 137817264 137445072 136982528 
2918.492 136450432 135866080 135241872 134585536 133898752 133179872 
2921.385 132424920 131629768 130792632 129915696 129006224 128077192 
2924.278 127146784 126234576 125361112 124544928 123799272 123133464 
2927.171 122551272 122051776 121630240 121279232 120989232 120749264 
2930.064 120548744 120378336 120230160 120099424 119983440 119880680 
2932.958 119790304 119710856 119639752 119573768 119509064 119441872 
2935.851 119369032 119287432 119193688 119084616 118956448 118805968 
2938.744 118631240 118432000 118209224 117965656 117703792 117425768 
2941.637 117132640 116824720 116501880 116163744 115809832 115439240 
2944.530 115050112 114639368 114203104 113737704 113240800 112712760 
2947.423 112157792 111583904 111001608 110424288 109866600 109342648 
2950.316 108867816 108456496 108121168 107873832 107723968 107677888 
2953.209 107739336 107908328 108180960 108548504 108997560 109508472 
2956.102 110055040 110607624 111133496 111600264 111982800 112263416 
2958.995 112436200 112505960 112487752 112403488 112277152 112133976 
2961.888 111996272 111880288 111797600 111752296 111741544 111755640 
2964.781 111780368 111798328 111791256 111743464 111643408 111484688 
2967.674 111266400 110993056 110673416 110318680 109942344 109558400 
2970.567 109178928 108814480 108472568 108156440 107866568 107600504 
2973.460 107353976 107122056 106899800 106682432 106465648 106245632 
2976.354 106019240 105783848 105538320 105282368 105016776 104742952 
2979.247 104462816 104178520 103892896 103609480 103333520 103070672 
2982.140 102827760 102611032 102425208 102273096 102154912 102068896 
2985.033 102011896 101979384 101966896 101968656 101978120 101988136 
2987.926 101989768 101973680 101930936 101852264 101729456 101555984 
2990.819 101326424 101037648 100689648 100286248 99834640 99346176 98834512 
2994.194 98312472 97791696 97280360 96781640 96295440 95819408 95349888 
2997.569 94884248 94421040 93960352 93503680 93053200 92611464 92181328 
3000.945 91765400 91365864 90984672 90622672 90279984 89955904 89649696 
3004.320 89360400 89087368 88830280 88588088 88359680 88142752 87934208 
3007.695 87730112 87526792 87320896 87109624 86890896 86663056 86424776 
3011.070 86174832 85912592 85638200 85353016 85058992 84758920 84455640 
3014.446 84151888 83849824 83551760 83260112 82977360 82706464 82449760 
3017.821 82208608 81982968 81770928 81569144 81373448 81179472 80983072 
3021.196 80780808 80569472 80346112 80107416 79850208 79571384 79268320 
3024.571 78939952 78586136 78208104 77808312 77389736 76955448 76508080 
3027.947 76049776 75581264 75102768 74613712 74113304 73601056 73077264 
3031.322 72542784 71999424 71448648 70891792 70329408 69761688 69188640 
3034.697 68611152 68031288 67451968 66877364 66311852 65758840 65220812 
3038.072 64698600 64192108 63700408 63222484 62757528 62304812 61864028 
3041.448 61434376 61015144 60605988 60205556 59813324 59428440 59049700 
3044.823 58675956 58305376 57936212 57567016 57197152 56826176 56454940 
3048.198 56083912 55713388 55343148 54972048 54598680 54222064 53841912 
3051.573 53458532 53073504 52687880 52302604 51917480 51531612 51143556 
3054.948 50752120 50356908 49958784 49559688 49162072 48768708 48381960 
3058.324 48003516 47634348 47274692 46924420 46583056 46249736 45923892 
3061.699 45604952 45292976 44988580 44693352 44409044 44137756 43881192 
3065.074 43640240 43414840 43204300 43007108 42821928 42647828 42483920 
3068.449 42329824 42185312 42050236 41924172 41806796 41698016 41598020 
3071.825 41507340 41426816 41357272 41299440 41253744 41219936 41197564 
3075.200 41185216 41181060 41183284 41189804 41198732 41209152 41220192 
3078.575 41231924 41244308 41257500 41270944 41284172 41295904 41305164 
3081.950 41311320 41314164 41313868 41310848 41305088 41296452 41284352 
3085.326 41268104 41247228 41222012 41193376 41162556 41131340 41100928 
3088.701 41072152 41045200 41020004 40996040 40973208 40951328 40929956 
3092.076 40908980 40888268 40866932 40844692 40820960 40795772 40769312 
3095.451 40742272 40715304 40689212 40664288 40640928 40618916 40597888 
3098.827 40577440 40556996 40536520 40516440 40497488 40481556 40470172 
3102.202 40465084 40467412 40477340 40494108 40516984 40544884 40577624 
3105.577 40615496 40660140 40712684 40774664 40846404 40927368 41016504 
3108.952 41112436 41214688 41323744 41440704 41567280 41704912 41853968 
3112.328 42013516 42181008 42352980 42525360 42694032 42855792 43008316 
3115.703 43150248 43281060 43401252 43511116 43611480 43702636 43784504 
3119.078 43857040 43919908 43972808 44015964 44049956 44075740 44094732 
3122.453 44108412 44118024 44124776 44129212 44131300 44130936 44127744 
3125.829 44121400 44112084 44100640 44088208 44076472 44066900 44060448 
3129.204 44057328 44056488 44056156 44054392 44049296 44039432 44024616 
3132.579 44005404 43982412 43956604 43928152 43896588 43860924 43820052 
3135.954 43772740 43718612 43657716 43590452 43517816 43440544 43359072 
3139.330 43274032 43185524 43093748 42999064 42902056 42803644 42704892 
3142.705 42607000 42510924 42417680 42327596 42240236 42154828 42070240 
3146.080 41985300 41899288 41811972 41723948 41636160 41549964 41466476 
3149.455 41386536 41310408 41238264 41169336 41103476 41039884 40977976 
3152.831 40917392 40857580 40798284 40739432 40681316 40624084 40568240 
3156.206 40513784 40460208 40406968 40353040 40297592 40240448 40181820 
3159.581 40122468 40063492 40005652 39949408 39894564 39840592 39786992 
3162.956 39733248 39679264 39625140 39571016 39516616 39461856 39406016 
3166.332 39348916 39290440 39231068 39171412 39112384 39054520 38997900 
3169.707 38942120 38886420 38830216 38773192 38715196 38657168 38599764 
3173.082 38543708 38489072 38435892 38383044 38329512 38274072 38215488 
3176.457 38153516 38088400 38020876 37952600 37885344 37820708 37760272 
3179.833 37704760 37654096 37607592 37564200 37522472 37481152 37439432 
3183.208 37397144 37354568 37312968 37273364 37237260 37205816 37179360 
3186.583 37157628 37139800 37124352 37109660 37094724 37078916 37062680 
3189.958 37046836 37032620 37021324 37013748 37010248 37010860 37015332 
3193.333 37023308 37034384 37047812 37062928 37078700 37094540 37109916 
3196.709 37125004 37140992 37159292 37181488 37208560 37240364 37275636 
3200.084 37313076 37350844 37387860 37424228 37460776 37498668 37539416 
3203.459 37583492 37630716 37680076 37729876 37778636 37824684 37867232 
3206.834 37905376 37939292 37969484 37997008 38023080 38049336 38076464 
3210.210 38104932 38133724 38161584 38186328 38206732 38222000 38232676 
3213.585 38239984 38245884 38251600 38258112 38265384 38272660 38279356 
3216.960 38284928 38289272 38292672 38295276 38297232 38298460 38299152 
3220.335 38299404 38300088 38302152 38307076 38315288 38327088 38341928 
3223.711 38358864 38376892 38395712 38415148 38435528 38456816 38479336 
3227.086 38502508 38525532 38548272 38570648 38593648 38618884 38648368 
3230.461 38683608 38725916 38775184 38830508 38890440 38952884 39015876 
3233.836 39077612 39136896 39193136 39246772 39298312 39349096 39399992 
3237.212 39451916 39504748 39558388 39612176 39665612 39718508 39770616 
3240.587 39822068 39872296 39920532 39965504 40005684 40040600 40070068 
3243.962 40095252 40117780 40139112 40160484 40181928 40202900 40222636 
3247.337 40240884 40257716 40274508 40292360 40312648 40335624 40360824 
3250.713 40387328 40414164 40440716 40467084 40493924 40522184 40552704 
3254.088 40586280 40623320 40664396 40710212 40761268 40817756 40879312 
3257.463 40944552 41011660 41078344 41142668 41203324 41260016 41313028 
3260.838 41363140 41410848 41456304 41499976 41542376 41584308 41627152 
3264.214 41672304 41720704 41772248 41825840 41879364 41930484 41977164 
3267.589 42018408 42054176 42085348 42112952 42137852 42160376 42180492 
3270.964 42197876 42212188 42223288 42231544 42237644 42241880 42245020 
3274.339 42247284 42248708 42249000 42248236 42245968 42242352 42237568 
3277.715 42231836 42225884 42220004 42214344 42208904 42202952 42196124 
3281.090 42187980 42178744 42168736 42158696 42149752 42142192 42136024 
3284.465 42130732 42125584 42120176 42114264 42108096 42102180 42096780 
3287.840 42091668 42086156 42079216 42069876 42057936 42043848 42028700 
3291.216 42014460 42002272 41993036 41986652 41982820 41980484 41978588 
3294.591 41976212 41972344 41966032 41956396 41942456 41924064 41901404 
3297.966 41875460 41847836 41820072 41793476 41768996 41746344 41725116 
3301.341 41704692 41684340 41663988 41643896 41623984 41604948 41586788 
3304.717 41569868 41554228 41540260 41527904 41517876 41510220 41505224 
3308.092 41502820 41503220 41506064 41511348 41518532 41527064 41536180 
3311.467 41545732 41555500 41566624 41580624 41599152 41624020 41656004 
3314.842 41694628 41738504 41785668 41834084 41882608 41930960 41980008 
3318.218 42030924 42084692 42141608 42201748 42264340 42328800 42395136 
3321.593 42463420 42534312 42607916 42683944 42761376 42838716 42914492 
3324.968 42987136 43055840 43120420 43180988 43238412 43293652 43347724 
3328.343 43401364 43455152 43508884 43561628 43611960 43658012 43698204 
3331.719 43731548 43757824 43777284 43790732 43798540 43800736 43797000 
3335.094 43786664 43769920 43747232 43719788 43689156 43656216 43621116 
3338.469 43582540 43539064 43488336 43429228 43361012 43284644 43201448 
3341.844 43113212 43021596 42927624 42832056 42735124 42637412 42538840 
3345.219 42439564 42339176 42237168 42132776 42025560 41915304 41802412 
3348.595 41687692 41572056 41456304 41340584 41224928 41109376 40993748 
3351.970 40878256 40763344 40648972 40534772 40420312 40304756 40187376 
3355.345 40068360 39948612 39829552 39712772 39599620 39490088 39383704 
3358.720 39279120 39174496 39068660 38960968 38851304 38740624 38629532 
3362.096 38518836 38409140 38300956 38193996 38088692 37984820 37881984 
3365.471 37780368 37679752 37580132 37481692 37385080 37290656 37199248 
3368.846 37111108 37026160 36944044 36863960 36784904 36705500 36624888 
3372.221 36541692 36455236 36365048 36271208 36174396 36075948 35977308 
3375.597 35880096 35785028 35692748 35603004 35515012 35428288 35342484 
3378.972 35257056 35172468 35088476 35005036 34921684 34837736 34752516 
3382.347 34665840 34577964 34489276 34400716 34313104 34227196 34143564 
3385.722 34062672 33984980 33910748 33840288 33773380 33709388 33647516 
3389.098 33586332 33524796 33462272 33398502 33333742 33268846 33204642 
3392.473 33141874 33080940 33021804 32963994 32906662 32848618 32788944 
3395.848 32726668 32662004 32595280 32528568 32463186 32401204 32343052 
3399.223 32288086 32234620 32179848 32121188 32056760 31986382 31910886 
3402.599 31832438 31753186 31674984 31598684 31524212 31450822 31377732 
3405.974 31304404 31230056 31154830 31078264 31000040 30919340 30835774 
3409.349 30748736 30658552 30566042 30471986 30377988 30285146 30194560 
3412.724 30107014 30022822 29941770 29863786 29787838 29713288 29639104 
3416.100 29564616 29488650 29410460 29329488 29244880 29156390 29064022 
3419.475 28968308 28870738 28773368 28678460 28588138 28503462 28424426 
3422.850 28349652 28277078 28204768 28131230 28055868 27978928 27901544 
3426.225 27824738 27749320 27676038 27604956 27536428 27470380 27407096 
3429.601 27346364 27287648 27230530 27173948 27117654 27061650 27006712 
3432.976 26954038 26904258 26857482 26812932 26769020 26723774 26675676 
3436.351 26624310 26570238 26514588 26458626 26403024 26346972 26288428 
3439.726 26224860 26153558 26072696 25982176 25882778 25777214 25668160 
3443.102 25557800 25447256 25336670 25224144 25107506 24985144 24855868 
3446.477 24720810 24582392 24444510 24310944 24184358 24065546 23953210 
3449.852 23844718 23736814 23626524 23512168 23393192 23270366 23144816 
3453.227 23017520 22889564 22761154 22632994 22505394 22379436 22255818 
3456.603 22135302 22017956 21903432 21790746 21679032 21567870 21456596 
3459.978 21345420 21234272 21123676 21013976 20905520 20799074 20695608 
3463.353 20595362 20498404 20403934 20310214 20215818 20118808 20019318 
3466.728 19917738 19816216 19717108 19621664 19530608 19442828 19356868 
3470.104 19270854 19183888 19096212 19009038 18923718 18841390 18762120 
3473.479 18685116 18608640 18531180 18452002 18371524 18290752 18211896 
3476.854 18136956 18067384 18003866 17946126 17892708 17841300 17789206 
3480.229 17734082 17673892 17608534 17539254 17468846 17400692 17337616 
3483.604 17280896 17229938 17182260 17134314 17082650 17024860 16960082 
3486.980 16889046 16812782 16732473 16648734 16561223 16468914 16371394 
3490.355 16268495 16160943 16049912 15936984 15823362 15709806 15596554 
3493.730 15483262 15369452 15254709 15138693 15021372 14903121 14784902 
3497.105 14668121 14554488 14445443 14342142 14243832 14148966 14054601 
3500.481 13957485 13854917 13745704 13630159 13510646 13390790 13274451 
3503.856 13165076 13064778 12974232 12892136 12816233 12742969 12668490 
3507.231 12589249 12503133 12409091 12308592 12204981 12102179 12004408 
3510.606 11914083 11831710 11755992 11684405 11614430 11544499 11474137 
3513.982 11403889 11334877 11268019 11203176 11140008 11077327 11014348 
3517.357 10950120 10884748 10818535 10751382 10683594 10615070 10545572 
3520.732 10475270 10404199 10332768 10261483 10190616 10120576 10051360 
3524.107 9983342 9917030 9852728 9790469 9729607 9668653 9606081 9540673 
3527.965 9471855 9400745 9329173 9259745 9194694 9135236 9081030 9030924 
3531.822 8983193 8936143 8888692 8840096 8790018 8738155 8684607 8629004 
3535.680 8571719 8513629 8456123 8400617 8348157 8298879 8252038 8206384 
3539.537 8160600 8113706 8065806 8017639 7970525 7925507 7882756 7841593 
3543.395 7800638 7757190 7709025 7654221 7591838 7522248 7448086 7373094 
3547.252 7302462 7240567 7190572 7152945 7125224 7102489 7078712 7048032 
3551.109 7006949 6954826 6894630 6830504 6767869 6710021 6658001 6610832 
3554.967 6566292 6522194 6477427 6432161 6387471 6344467 6303552 6264388 
3558.824 6225765 6186205 6145237 6102963 6060827 6020912 5985167 5954934 
3562.682 5930245 5909218 5888663 5863877 5829555 5780595 5713511 5628245 
3566.539 5528464 5422365 5320585 5233048 5166485 5122763 5099160 5089204 
3570.396 5086187 5083571 5076733 5063357 5043009 5016729 4986496 4954120 
3574.254 4921311 4889443 4859353 4831242 4804807 4779212 4752781 4723939 
3578.111 4691516 4654674 4613750 4569783 4524447 4479685 4437304 4399045 
3581.969 4366278 4339805 4319960 4305436 4293389 4280071 4260261 4229278 
3585.826 4183810 4123462 4051918 3975905 3903951 3843842 3800120 3773280 
3589.684 3760045 3755633 3754163 3750887 3742098 3725454 3699923 3665838 
3593.541 3624573 3578367 3530028 3482496 3438275 3398701 3364507 3334589 
3597.398 3307744 3281870 3255096 3226187 3194676 3160932 3126189 3092850 
3601.256 3062683 3038292 3020875 3010665 3006895 3007529 3009664 3009597 
3605.113 3003458 2987711 2959454 2917321 2862018 2796918 2727959 2661879 
3608.971 2605209 2562044 2532014 2511552 2494156 2473362 2444405 2405854 
3612.828 2360810 2315704 2277498 2251885 2240361 2240095 2244291 2244857 
3616.686 2234166 2206358 2159603 2096472 2023430 1949403 1883474 1832694 
3620.543 1800020 1784549 1782653 1789207 1799521 1810435 1821015 1831863 
3624.400 1845006 1861078 1878815 1892858 1895121 1874688 1822945 1736410 
3628.258 1623118 1502009 1397852 1331243 1309773 1326756 1366242 1411016 
3632.115 1446886 1464838 1462910 1444658 1417232 1387947 1362386 1342311 
3635.973 1326357 1311435 1294818 1274945 1252149 1227859 1203603 1180213 
3639.830 1157687 1135495 1113703 1092476 1073609 1059260 1051455 1050790 
3643.688 1056370 1065272 1073609 1076233 1067929 1044679 1003662 944518 
3647.545 869711 783929 693817 607241 532193 475932 444256 440077 462698 
3651.885 507744 567625 632691 692224 735801 755715 747285 712303 659237 
3656.224 602728 557937 536075 541814 571175 615602 663817 706163 734838 
3660.564 746156 740082 720002 691527 660532 633155 613678 604387 605714 
3664.903 616465 633786 653596 671549 683031 683662 670719 644272 609961 
3669.243 578806 568687 599178 683994 827780 1022991 1254807 1502541 1744760 
3673.583 1960919 2128802 2229337 2251419 2195634 2076529 1915122 1730954 
3677.440 1535491 1334068 1130446 930073 742074 578275 447540 353916 294595 
3681.780 261207 244200 235613 232364 234320 243238 259483 280039 298408 
3686.119 306299 295888 262832 208728 141505 72702 13154 -29885 -55330 -65600 
3690.941 -64440 -54402 -36545 -11232 20079 55039 89603 119464 141339 154067 
3695.763 158840 159006 158641 160762 166497 173855 179656 179026 168287 
3700.102 145880 113200 74657 37111 8051 -6560 -4075 15175 48080 89636 134511 
3705.406 178264 217446 249703 273906 289389 295855 292539 278779 253947 
3709.746 217778 171171 116780 59579 6096 -36644 -63016 -69840 -57450 -29653 
3714.568 7786 48742 87449 119530 143030 158277 167458 173325 178496 183767 
3719.389 188573 190927 189932 185026 178463 173557 173889 181612 196131 
3723.729 214231 231105 241879 243802 237238 225900 215855 213501 222949 
3728.069 244432 274337 306034 331665 343702 338065 314191 276459 232762 
3732.408 191987 160298 137992 120293 99115 68162 25447 -24087 -70337 -102073 
3737.230 -111879 -98264 -65070 -18289 36349 94674 154730 214297 269164 
3741.570 312102 331566 314257 250068 140080 2385 -129733 -218364 -242374 
3745.909 -204289 -125692 -34226 45859 95834 106804 79462 23293 -47213 
3750.249 -117444 -176701 -219755 -244294 -248500 -230684 -189849 -128441 
3754.106 -53077 27170 101435 161691 202463 223049 226497 218441 204021 
3758.446 187181 169745 153371 140610 135506 142599 164210 199148 241945 
3762.785 284648 318203 336772 338397 327023 309615 294462 286770 286604 
3767.125 289223 287632 276326 252985 220165 184363 154398 137196 135671 
3771.465 148432 171137 198319 225071 248344 267540 283056 296319 308620 
3775.804 319794 328747 332395 327885 312732 287499 255671 223811 200242 
3780.144 191391 199844 222386 252289 281067 300696 306664 298772 280802 
3784.483 258655 239227 226994 223712 228353 238663 252057 267043 282194 
3788.823 297280 311671 324768 336275 346587 356735 367943 380611 393479 
3793.163 403660 406479 397956 375703 341713 302287 266943 246023 245824 
3797.502 266512 301359 339159 366550 371094 345559 290152 215292 138953 
3801.842 82710 62362 81749 132987 200639 267540 317473 339458 329775 293633 
3806.664 244001 198551 173027 173922 199181 239923 286273 330936 371293 
3811.003 408569 446346 487509 531364 572834 603027 612218 593040 545032 
3815.343 476861 406512 354082 334152 349837 392815 447075 493878 517232 
3819.682 506583 460343 388007 308653 244962 212407 215590 246985 293036 
3824.022 339093 373780 391588 393280 385055 375571 373647 383994 406148 
3828.362 435234 464389 487376 500247 502967 497925 489732 482799 480178 
3832.701 483562 492087 504228 517596 529008 535146 532293 517464 489400 
3837.041 449795 403760 359122 323972 304011 300762 311671 331267 353186 
3841.380 371956 384359 389134 387045 380910 373912 369402 369999 377660 
3845.720 392550 414306 441437 472416 505986 541980 580531 621376 662689 
3850.060 699691 723554 721828 681704 593106 456661 289356 124568 -1027 
3854.399 -63148 -58510 -2021 84732 181247 273740 354844 421802 475203 516833 
3859.221 548184 570213 583219 587731 584612 575355 561089 542477 520085 
3863.561 495006 470459 452747 448866 464688 501607 554686 613313 663452 
3867.900 691461 688142 652269 592741 527383 476496 452780 458353 484623 
3872.240 518459 547155 563412 567028 564407 565236 577744 606179 648320 
3876.579 697335 743368 777523 792360 783929 752927 704902 649880 600074 
3880.919 567127 558601 575621 612583 658673 701649 728731 731220 707689 
3885.259 665410 618920 585077 576384 596059 638365 690332 738356 769789 
3889.598 776660 757640 718376 670354 626253 597088 588627 600472 628510 
3893.938 666903 710112 753325 793157 826785 851982 866822 870043 861543 
3898.277 843450 819348 794153 772610 757707 749542 745592 741476 732482 
3902.617 715986 691826 663485 636706 617427 610625 617693 637204 665310 
3906.957 697368 729196 757375 780510 798402 811680 821606 829805 837640 
3911.296 846836 858887 874790 895209 919282 945082 969722 989581 1001669 
3915.636 1004193 997186 982640 963877 944352 927118 914268 906996 905635 
3919.975 910715 922038 939072 959760 981079 999278 1010038 1010736 1000939 
3924.315 982939 961553 942326 930472 928513 936648 952222 971781 991474 
3928.655 1007913 1019304 1024187 1022194 1013725 999345 980548 959760 940068 
3932.994 924462 915463 913770 918418 927251 937046 945547 951458 955044 
3937.334 957966 962350 970021 981278 995326 1009706 1021530 1027873 1027176 
3941.673 1019172 1005522 989415 974803 965405 964010 971316 986127 1005588 
3946.013 1026013 1043018 1053481 1055341 1048499 1034516 1015950 995957 
3949.870 977227 961918 951591 946709 947539 953417 963446 976131 989182 
3954.210 1000905 1009573 1014422 1015684 1014489 1012164 1010204 1009341 
3958.067 1009773 1011367 1013824 1017279 1021928 1028438 1036708 1046772 
3961.925 1057599 1067763 1075669 1080518 1081581 1079389 1074805 1068760 
3965.782 1062582 1057035 1052518 1049728 1048465 1049030 1051089 1054278 
3969.640 1057965 1061685 1065073 1067896 1070421 1072978 1075768 1078559 
3973.497 1081116 1082943 1083707 1083574 1082777 1082113 1082578 1084371 
3977.354 1087959 1092842 1098422 1104202 1109384 1113703 1116427 1117457 
3981.212 1116560 1113437 1108189 1101578 1094270 1087560 1082777 1080884 
3985.069 1081913 1085999 1092144 1099020 1104734 1108388 1108820 1105764 
3988.927 1099718 1091978 1084272 1078127 1074805 1074606 1076997 1080618 
3992.784 1084438 1087328 1089287 1091247 1094171 1099485 1107923 1118985 
3996.642 1131708 1144332 1155096 1162970 1167721 1170046 1170677 1171043 
4000.499 1171707 
##END=
