
##TITLE=Z197_2_a
##JCAMP-DX=5.01  $$ Nicolet v. 1
##DATATYPE=INFRARED SPECTRUM
##ORIGIN=UniL
##OWNER=Nicolet
##LONGDATE=2011/09/08
##TIME=10:28:56
##SPECTROMETER/DATA SYSTEM=Nicolet iS5
##DATA PROCESSING=
Ratio against background
%Transmittance->Absorbance
Truncated
ElementMultiply or ElementDivide
##COMMENTS=
Number of sample scans: 32
Collection length: 51.14 sec
Sample gain: 2.0
Background collected on: Jeu Sep 08 10:26:36 2011 (GMT+02:00);
Number of background scans: 32
Background gain: 2.0
Sample spacing:  1.000
Number of scan points: 12415
Resolution points: 8192
Number of FFT points: 65536
Apodization: N-B fort;
Phase correction: Mertz;
Laser frequency: 15798.0 cm-1
Number of rejected sample scans: 0
Number of rejected background scans: 0
Bench serial number: ASB1000141;
##RESOLUTION=4.000
##XUNITS=1/CM
##YUNITS=ABSORBANCE
##FIRSTX=649.893372
##LASTX=4000.122314
##FIRSTY=0.115543
##MAXX=4000.122314
##MINX=649.893372
##MAXY=0.255286
##MINY=-0.002566
##XFACTOR=1.000000
##YFACTOR=1.000000E-009
##NPOINTS=6950
##DELTAX=0.482117
##ZPD=6100
##XYDATA=(X++(Y..Y))
649.893 115542776 115662504 115886872 116228568 116667520 117164720 
652.786 117684848 118218792 118784888 119418280 120145520 120967736 
655.679 121855912 122767048 123664768 124538224 125403256 126289608 
658.571 127216144 128174800 129129408 130030512 130843368 131561216 
661.464 132209312 132829040 133459016 134115144 134787120 135446624 
664.357 136061232 136606064 137055840 137378560 137524880 137427744 
667.250 137031952 136337264 135424944 134423840 133447304 132537560 
670.142 131660504 130735096 129671144 128407600 126928848 125273032 
673.035 123509088 121713944 119938808 118196528 116474200 114754232 
675.928 113035328 111341400 109711472 108181648 106770848 105473720 
678.820 104268616 103132128 102054352 101041208 100109344 99273000 98534000 
682.195 97879184 97287488 96740192 96230880 95767856 95366480 95037792 
685.570 94779176 94572000 94388352 94203712 94004872 93794768 93586576 
688.945 93394800 93224168 93069048 92915992 92754528 92583944 92414624 
692.320 92261712 92135560 92033688 91941264 91835920 91700080 91530608 
695.694 91340960 91154056 90990592 90859832 90755320 90660024 90555976 
699.069 90434968 90302048 90171448 90057368 89964744 89886088 89805648 
702.444 89706728 89580752 89430824 89268544 89106080 88948352 88791368 
705.819 88625144 88442040 88242496 88037152 87840744 87665312 87512888 
709.194 87375184 87238536 87093920 86944328 86805424 86699264 86644000 
712.569 86646880 86699136 86781672 86870096 86943560 86984640 86975496 
715.943 86894784 86715600 86413576 85981936 85445384 84866992 84331936 
719.318 83930976 83721792 83703080 83803976 83898616 83843920 83507576 
722.693 82814664 81758888 80398984 78833544 77174728 75529608 73974560 
726.068 72557112 71297632 70194944 69233944 68392112 67646016 66972568 
729.443 66354164 65780968 65250224 64763324 64322152 63924804 63563876 
732.817 63228884 62909244 62598444 62296092 62006028 61732196 61475680 
736.192 61231404 60991160 60747428 60496440 60241296 59989880 59750244 
739.567 59526508 59315880 59110744 58902708 58687560 58467560 58250584 
742.942 58046744 57863824 57703380 57562476 57435540 57318504 57210344 
746.317 57113100 57028456 56955844 56890836 56826700 56757332 56681292 
749.692 56601560 56524040 56453472 56389704 56327420 56258428 56176028 
753.066 56079276 55973764 55869180 55774608 55693576 55622692 55554340 
756.441 55481488 55401864 55320036 55244960 55186604 55149132 55131340 
759.816 55127088 55130284 55139648 55159252 55196572 55257944 55344352 
763.191 55450536 55567708 55690036 55819368 55967808 56154268 56397288 
766.566 56710660 57099568 57562440 58097608 58709484 59413888 60243312 
769.940 61245868 62486248 64053812 66053076 68600280 71805640 75730376 
773.315 80344160 85469592 90780072 95774216 99838224 102401184 103005384 
776.690 101457656 97873296 92658136 86409904 79757312 73308248 67513232 
780.065 62629372 58751704 55828448 53724192 52260220 51270088 50616064 
783.440 50191812 49930384 49788228 49736544 49756312 49832080 49950124 
786.815 50099320 50271712 50462556 50671164 50899920 51153396 51436116 
790.189 51753056 52108372 52505744 52949704 53445376 53998120 54612772 
793.564 55293016 56040484 56857064 57745952 58714528 59775644 60946244 
796.939 62247064 63700796 65329864 67160104 69225128 71565648 74238840 
800.314 77313672 80861432 84951400 89629584 94903496 100720280 106952312 
803.689 113394824 119740232 125615192 130612448 134315264 136403488 
806.581 136701840 135225808 132181064 127935528 122966664 117748248 
809.474 112734368 108299192 104683328 102012104 100276104 99351176 99006112 
812.849 98940400 98842000 98398744 97369744 95618880 93115888 89939144 
816.224 86241224 82228592 78109488 74071840 70274128 66819660 63765256 
819.598 61126616 58886616 57006768 55437700 54131076 53041344 52130116 
822.973 51369536 50736740 50213944 49787596 49445572 49178064 48979180 
826.348 48845900 48778680 48780572 48855392 49006476 49236100 49545052 
829.723 49931836 50392480 50917728 51493708 52100528 52713844 53311168 
833.098 53874584 54393656 54866052 55290944 55662576 55962872 56158532 
836.473 56205256 56060692 55692296 55092592 54281344 53306000 52229432 
839.847 51117912 50035668 49030996 48136020 47367692 46728960 46213252 
843.222 45806936 45494448 45259368 45087156 44968512 44897964 44873636 
846.597 44894436 44957196 45054952 45178180 45316112 45460784 45609368 
849.972 45764708 45932988 46120792 46332196 46567268 46823948 47099356 
853.347 47393044 47707120 48046152 48413892 48811896 49239440 49694376 
856.721 50176004 50686540 51231720 51819732 52459004 53156220 53917980 
860.096 54753208 55674972 56705868 57877148 59225904 60796932 62635684 
863.471 64785176 67284152 70154872 73391184 76938088 80681736 84431528 
866.846 87917656 90844104 92905440 93853744 93563320 92044632 89454440 
870.221 86045632 82144592 78081296 74129840 70510712 67356384 64719400 
873.596 62594428 60934080 59671928 58732928 58051100 57571896 57251436 
876.970 57059704 56973748 56975260 57049312 57182528 57363500 57585140 
880.345 57844216 58141092 58477984 58857320 59280292 59745908 60253172 
883.720 60801696 61392588 62029076 62714116 63449168 64233408 65063820 
887.095 65937712 66854404 67816424 68830912 69908928 71064592 72315608 
890.470 73683496 75189512 76851424 78672392 80631464 82669904 84687608 
893.844 86558824 88134672 89278720 89896760 89945016 89441616 88453088 
897.219 87082296 85441184 83635664 81765008 79908552 78131384 76488168 
900.594 75016240 73739136 72664232 71784336 71081104 70530992 70112616 
903.969 69808024 69604408 69492792 69464368 69510136 69621672 69792576 
907.344 70020968 70309464 70664000 71090504 71592880 72173488 72835192 
910.719 73583672 74430840 75392888 76488048 77733256 79139760 80713656 
914.093 82458048 84375032 86467112 88735480 91174776 93767792 96481928 
917.468 99273504 102086624 104859616 107528848 110014224 112217976 114022296 
920.843 115284232 115868840 115678728 114685144 112954480 110648960 
923.736 108017808 105335568 102879696 100894464 99547816 98943848 99120160 
927.110 100059744 101702528 103950560 106682008 109738296 112937808 
930.003 116097728 119026000 121550888 123533568 124858344 125446024 
932.896 125253704 124277352 122561328 120205512 117377448 114290864 
935.789 111203768 108404648 106158168 104706768 104245032 104892096 
938.681 106698744 109629240 113564744 118276000 123424680 128600552 
941.574 133300912 137017456 139322240 139898880 138635104 135631584 
944.467 131193768 125754256 119790608 113776920 108078624 102948480 98528472 
947.841 94854608 91895408 89576880 87812192 86511224 85590232 84981016 
951.216 84623824 84470128 84483656 84636064 84907080 85282776 85751056 
954.591 86300512 86919304 87594888 88316024 89074272 89864080 90682312 
957.966 91526312 92391752 93273040 94162544 95053184 95940512 96822920 
961.341 97701520 98578408 99454440 100328616 101198576 102062312 102919792 
964.716 103774136 104630160 105492688 106364216 107244032 108129368 
967.608 109017920 109910168 110810584 111726928 112668184 113641440 
970.501 114651096 115699528 116789072 117924480 119114520 120369328 
973.394 121699648 123112520 124610216 126191648 127854272 129597992 
976.286 131425816 133342848 135352624 137453344 139635312 141882112 
979.179 144171632 146480992 148789104 151073024 153309008 155468640 
982.072 157517424 159422832 161157776 162708208 164076688 165280688 
984.964 166347088 167303424 168175264 168984592 169750176 170493312 
987.857 171236528 172001168 172803744 173650320 174535744 175446480 
990.750 176367152 177287280 178204032 179120912 180043696 180973312 
993.643 181904736 182827088 183727792 184598784 185436944 186242384 
996.535 187013440 187741600 188410144 188999408 189492768 189885072 
999.428 190185456 190416704 190607888 190785728 190973536 191188672 
1002.321 191446256 191764016 192161936 192658736 193268288 193993344 
1005.213 194825760 195750560 196755392 197836736 199003936 200276560 
1008.106 201678704 203232400 204952688 206849424 208928464 211191728 
1010.999 213629344 216206544 218852960 221443552 223810864 225772512 
1013.891 227150656 227828720 227776848 227063008 225835120 224290848 
1016.784 222650336 221101536 219792448 218820992 218228000 218012880 
1019.677 218141760 218563840 219218400 220047728 221008592 222071792 
1022.570 223224640 224465472 225795424 227211504 228703824 230255552 
1025.462 231849008 233471280 235114592 236775776 238451168 240130752 
1028.355 241798608 243434096 245017360 246535264 247980368 249347056 
1031.249 250625856 251796928 252831280 253698624 254375392 254854176 
1034.142 255146768 255279872 255286160 255193888 255026080 254798352 
1037.035 254523936 254217888 253893760 253558880 253205232 252805568 
1039.928 252313968 251670752 250819920 249715440 248326960 246641360 
1042.821 244656928 242380176 239825264 237019936 234010864 230860032 
1045.714 227648672 224462736 221377216 218456000 215742784 213262240 
1048.607 211029184 209049568 207323184 205840848 204582624 203516416 
1051.500 202598928 201785968 201037712 200323984 199628032 198940272 
1054.393 198252240 197551504 196818608 196027872 195154848 194175584 
1057.286 193069152 191816272 190393488 188774656 186935168 184856048 
1060.179 182534416 179985712 177245120 174358432 171374224 168339904 
1063.072 165293728 162268144 159292800 156393520 153595088 150918128 
1065.965 148375648 145973120 143709344 141579904 139581424 137713744 
1068.858 135979584 134382672 132923352 131596520 130391928 129295200 
1071.751 128293064 127373304 126527520 125747960 125025688 124349040 
1074.645 123703488 123074560 122452112 121832488 121220096 120625544 
1077.538 120062688 119546544 119090112 118705360 118403232 118193048 
1080.431 118081920 118070440 118151160 118304976 118502424 118708928 
1083.324 118885384 118997192 119017888 118929432 118725176 118409712 
1086.217 118000264 117525304 117024832 116549112 116148816 115873552 
1089.110 115766392 115857928 116170328 116719584 117518704 118582832 
1092.003 119930288 121579160 123545632 125836808 128445400 131341784 
1094.896 134468688 137738864 141021280 144151872 146942160 149182192 
1097.789 150688080 151324672 151031456 149841088 147873152 145318064 
1100.682 142386384 139294736 136235632 133348840 130734072 128446520 
1103.575 126503976 124899504 123609144 122601224 121839632 121290536 
1106.468 120926024 120721344 120656648 120713208 120868560 121096688 
1109.361 121366944 121644528 121897064 122096672 122222176 122261960 
1112.254 122211592 122071352 121842792 121522704 121097032 120537760 
1115.147 119798072 118817816 117537632 115909032 113916712 111589080 
1118.041 109004416 106277328 103535080 100905328 98482576 96319968 94431424 
1121.416 92796784 91376904 90126760 89009928 88001152 87088288 86271176 
1124.791 85558832 84968928 84524824 84255576 84189368 84344776 84721184 
1128.166 85287808 85981288 86697560 87305624 87666360 87636808 87101976 
1131.542 85989576 84276096 81996504 79238056 76135800 72841384 69511808 
1134.917 66292128 63288792 60575248 58189508 56138620 54410668 52982604 
1138.292 51828912 50923504 50241876 49762476 49463208 49323320 49324328 
1141.667 49448876 49683120 50015216 50433152 50923952 51472784 52062240 
1145.042 52676096 53300308 53924360 54542660 55153004 55755132 56350844 
1148.418 56943112 57537056 58139996 58761300 59410164 60092912 60811220 
1151.793 61561348 62335868 63124992 63920044 64715324 65506980 66291860 
1155.168 67066288 67823928 68556288 69253800 69906096 70502888 71032672 
1158.543 71481024 71831128 72063016 72155608 72091608 71857632 71446344 
1161.919 70856216 70089760 69152384 68051672 66799068 65409592 63901468 
1165.294 62297888 60622600 58898720 57148588 55391284 53643804 51922780 
1168.669 50243256 48619892 47066344 45592588 44205544 42907944 41699148 
1172.044 40576280 39536028 38575792 37693664 36888240 36157688 35498720 
1175.420 34906460 34375608 33900356 33476014 33098604 32764860 32470788 
1178.795 32212176 31984602 31785056 31613648 31474690 31375774 31326912 
1182.170 31338270 31417302 31568750 31795610 32099388 32482610 32948770 
1185.545 33501532 34144284 34879780 35710880 36643992 37691388 38872616 
1188.921 40214492 41744776 43484088 45437828 47588540 49891916 52274908 
1192.296 54649068 56915156 58973976 60748148 62186840 63277332 64046704 
1195.671 64561292 64918628 65225700 65597220 66134600 66909680 67963048 
1199.046 69292288 70853088 72555352 74275200 75869056 77175600 78048568 
1202.422 78370664 78061584 77094120 75489264 73313344 70660992 67650896 
1205.797 64415612 61079708 57764044 54572152 51578548 48834624 46364708 
1209.172 44169116 42231288 40524332 39019216 37687340 36506480 35460788 
1212.547 34539572 33735708 33044544 32461758 31984206 31609696 31336632 
1215.923 31163908 31089654 31109836 31218804 31409256 31673770 32006894 
1219.298 32405026 32866814 33391490 33977888 34622884 35322140 36069972 
1222.673 36860644 37689000 38548632 39431524 40327736 41225000 42112076 
1226.048 42981576 43832188 44669628 45506004 46357556 47240784 48171224 
1229.424 49162440 50225512 51370100 52604136 53932652 55357148 56874892 
1232.799 58480296 60166356 61928448 63766176 65683864 67688880 69789072 
1236.174 71991288 74299464 76715080 79236864 81859536 84568544 87332312 
1239.549 90099320 92791160 95302176 97518744 99321936 100608688 101312952 
1242.925 101411744 100937816 99973888 98656120 97155192 95647048 94313040 
1246.300 93306976 92741808 92697552 93213784 94302544 95958040 98167568 
1249.675 100915784 104182184 107936024 112121720 116641072 121355600 
1252.568 126069456 130531248 134470224 137587504 139595408 140268096 
1255.461 139451680 137106640 133311184 128257232 122215280 115481736 
1258.354 108373392 101174192 94119456 87409584 81186016 75539104 70516024 
1261.729 66120012 62321452 59065300 56285320 53908940 51864492 50092520 
1265.105 48542036 47174144 45962784 44890648 43948684 43135536 42456516 
1268.480 41923516 41552404 41362848 41372800 41594044 42027676 42659456 
1271.855 43458380 44372676 45335936 46269784 47084804 47698060 48037492 
1275.230 48052664 47727280 47079596 46162212 45045616 43813160 42543740 
1278.606 41297252 40117056 39025524 38028760 37124100 36304564 35563084 
1281.981 34893712 34291232 33750856 33267416 32836114 32453224 32115764 
1285.356 31822600 31572170 31362418 31190644 31053600 30948446 30874086 
1288.731 30829940 30815746 30829228 30865050 30915034 30970434 31023314 
1292.107 31069546 31110014 31149704 31195770 31255160 31333786 31435720 
1295.482 31563942 31721498 31911026 32134962 32393958 32686510 33009220 
1298.857 33357854 33730012 34125248 34546100 34995520 35475636 35986020 
1302.232 36523456 37083752 37663416 38261840 38881020 39524056 40193048 
1305.608 40887356 41603272 42335048 43076804 43824012 44573460 45321960 
1308.983 46065304 46796380 47506324 48186776 48831328 49437292 50005736 
1312.358 50539820 51043632 51520496 51973496 52406256 52821860 53222132 
1315.733 53602980 53950884 54238772 54427980 54475232 54337928 53988928 
1319.109 53421844 52654516 51723608 50677384 49568228 48440708 47331444 
1322.484 46268752 45271756 44356160 43534376 42814908 42202696 41698016 
1325.859 41297360 40994584 40783688 40659412 40617136 40651516 40756064 
1329.234 40921580 41137896 41395320 41685104 42000264 42333732 42675756 
1332.610 43013804 43332308 43614484 43847176 44021540 44134972 44189768 
1335.985 44190140 44140104 44042112 43897212 43707544 43477532 43216196 
1339.360 42935524 42647536 42362368 42085568 41818320 41560024 41309860 
1342.735 41069312 40842252 40633508 40447696 40289088 40160664 40066544 
1346.111 40012844 40007320 40059276 40177384 40367404 40632088 40971828 
1349.486 41386284 41875568 42439308 43075708 43778164 44534432 45327952 
1352.861 46139176 46950628 47748432 48520920 49257068 49942464 50556052 
1356.236 51073708 51470952 51728944 51840936 51814276 51670836 51441036 
1359.612 51163124 50877976 50623432 50438660 50360812 50423140 50655784 
1362.987 51079448 51702480 52521412 53520744 54675336 55947192 57285952 
1366.362 58624984 59876492 60948416 61753932 62230008 62356524 62158280 
1369.737 61698932 61057512 60318532 59555884 58821808 58154204 57575908 
1373.113 57098020 56720404 56428076 56190284 55956840 55667588 55264340 
1376.488 54697508 53941428 52997844 51899404 50701960 49475724 48294968 
1379.863 47218692 46290356 45538416 44978768 44623212 44480908 44559360 
1383.238 44866988 45417740 46236468 47365772 48860584 50771376 53116788 
1386.614 55848496 58836304 61863608 64679100 67050704 68793184 69807088 
1389.989 70069824 69625488 68565288 67012660 65111360 62997112 60809392 
1393.364 58688204 56761900 55151124 53943980 53177640 52834920 52855276 
1396.739 53160900 53668888 54309016 55029404 55790316 56566384 57341568 
1400.115 58104088 58843664 59547220 60197832 60778068 61272228 61671356 
1403.490 61977668 62204888 62376144 62515752 62645600 62781536 62932760 
1406.865 63105604 63303820 63527748 63769512 64009732 64218656 64356812 
1410.240 64387516 64287232 64051620 63696960 63252920 62755080 62232956 
1413.615 61707908 61193524 60696780 60221732 59769520 59336544 58912536 
1416.991 58481696 58028152 57546208 57052448 56588388 56211172 55969504 
1420.366 55881128 55931248 56080220 56283248 56500828 56712056 56916556 
1423.741 57132148 57383844 57690892 58057880 58471692 58908020 59339352 
1427.116 59744576 60109916 60430212 60707492 60949904 61173116 61399916 
1430.492 61663984 62006332 62465628 63074112 63848348 64790136 65892132 
1433.867 67149584 68570640 70176288 71993592 74034632 76273848 78637248 
1437.242 81022840 83336176 85516912 87535832 89374160 91008080 92391376 
1440.617 93458280 94144360 94394400 94182176 93514824 92429016 90983280 
1443.993 89243032 87280504 85159080 82925304 80612592 78241392 75834608 
1447.368 73436376 71118448 68974864 67104644 65580076 64438016 63676848 
1450.743 63265072 63147716 63250540 63490392 63770168 63986808 64043328 
1454.118 63837060 63267752 62247332 60727608 58752576 56492260 54233476 
1457.494 52262200 50747576 49710572 49072472 48728856 48590060 48597320 
1460.869 48713216 48908084 49154204 49419176 49667108 49867348 49998228 
1464.244 50057192 50061280 50044588 50046672 50099284 50225660 50437060 
1467.619 50736480 51120108 51578140 52094924 52644564 53191944 53690332 
1470.995 54077448 54286452 54259340 53967428 53424392 52679988 51798148 
1474.370 50833540 49827876 48815384 47829476 46911940 46107564 45452912 
1477.745 44970536 44664156 44522168 44526760 44661956 44920484 45304636 
1481.120 45824980 46493984 47321396 48308784 49450364 50735884 52158656 
1484.496 53720552 55436420 57333516 59446408 61806836 64435900 67339128 
1487.871 70510640 73941440 77627616 81571024 85762728 90175288 94746616 
1491.246 99386872 103994888 108479840 112772216 116803600 120507976 
1494.139 123803416 126575096 128704592 130097120 130729736 130673584 
1497.032 130090104 129186960 128147248 127115160 126187920 125425368 
1499.925 124875520 124576752 124553712 124812144 125327288 126044216 
1502.818 126865744 127652928 128220856 128299344 127539976 125542376 
1505.711 121950496 116668904 110014784 102645912 95239096 88209560 81652272 
1509.087 75468768 69510840 63678080 57949460 52399264 47164872 42382936 
1512.462 38168888 34570856 31568502 29096510 27066940 25393330 23995124 
1515.837 22809552 21794440 20923878 20190514 19594972 19134888 18797100 
1519.212 18553448 18361812 18179554 17976030 17751546 17538978 17388654 
1522.588 17337824 17391656 17526558 17704884 17893742 18073740 18246898 
1525.963 18431778 18653362 18927942 19255268 19621422 20008252 20403934 
1529.338 20807278 21227176 21675934 22161628 22684066 23233452 23794842 
1532.713 24356010 24913764 25476348 26054612 26655490 27273394 27892640 
1536.089 28489382 29038622 29519358 29912626 30205466 30388718 30457520 
1539.464 30409578 30247274 29984726 29647724 29269088 28877536 28485700 
1542.839 28087114 27659900 27180050 26634176 26031602 25402252 24786544 
1546.214 24215046 23694576 23207762 22721980 22205738 21642148 21040582 
1549.590 20432240 19858978 19351116 18915274 18535640 18186430 17845544 
1552.965 17505928 17178022 16883842 16644258 16466368 16339913 16238948 
1556.340 16130818 15977578 15738390 15376797 14873666 14253488 13591492 
1559.715 12983484 12496381 12146370 11913913 11763107 11657380 11563758 
1563.091 11459747 11335728 11197634 11064138 10958106 10896843 10883593 
1566.466 10906764 10946212 10983388 11007075 11018562 11029981 11059720 
1569.841 11123589 11228201 11372155 11550521 11759260 11996880 12262100 
1573.216 12552243 12859815 13174196 13486652 13794817 14108405 14447566 
1576.592 14835299 15283469 15790099 16345141 16938584 17566614 18232214 
1579.967 18942546 19702234 20506984 21341660 22179130 22984750 23725302 
1583.342 24368766 24889096 25266672 25486992 25542724 25434644 25173652 
1586.717 24780758 24285540 23725440 23137092 22551110 21987040 21449876 
1590.093 20933544 20426126 19917704 19403536 18884610 18364924 17848376 
1593.468 17337306 16834138 16345004 15882952 15465819 15113751 14840613 
1596.843 14649374 14531944 14473567 14460481 14485899 14551611 14665551 
1600.218 14836293 15066959 15354862 15693316 16078450 16514000 17012316 
1603.594 17590490 18265768 19049820 19947294 20957990 22080704 23315394 
1606.969 24660310 26106720 27634334 29206180 30774308 32288012 33701008 
1610.344 34983740 36126104 37137636 38040476 38860364 39617656 40319448 
1613.719 40957952 41510112 41945012 42226104 42321280 42211608 41896804 
1617.094 41392552 40720180 39895360 38924432 37807152 36540468 35122672 
1620.470 33553432 31841780 30006986 28085064 26140008 24253760 22513874 
1623.845 20991580 19721234 18698466 17888496 17244384 16718147 16271247 
1627.220 15880616 15537552 15244517 15008852 14836945 14729335 14680596 
1630.595 14680390 14715933 14774309 14841745 14903943 14945712 14949072 
1633.971 14897325 14779109 14596909 14372281 14142600 13947152 13809491 
1637.346 13732092 13701145 13695878 13695331 13683876 13653854 13605406 
1640.721 13544999 13482139 13424552 13375310 13331165 13283539 13220478 
1644.096 13130002 13001169 12827904 12610841 12361122 12099658 11853979 
1647.472 11652037 11511834 11439437 11428416 11464373 11525751 11584448 
1650.847 11607521 11553585 11382597 11076239 10667329 10243672 9899640 
1654.222 9683290 9583419 9559539 9569701 9584266 9587145 9571767 9538743 
1658.080 9491836 9435452 9372068 9301956 9222514 9130262 9021215 8893392 
1661.937 8747993 8591421 8434636 8290977 8172315 8085687 8031106 8002418 
1665.794 7988817 7977679 7955372 7910863 7837309 7734085 7607416 7469289 
1669.652 7335013 7217927 7126807 7065173 7030049 7014087 7005703 6990617 
1673.509 6954085 6884127 6777730 6645216 6509043 6393860 6316461 6278675 
1677.367 6270237 6274607 6277431 6271346 6257766 6245295 6244454 6261665 
1681.224 6293937 6328060 6342080 6312696 6223816 6079341 5907841 5753297 
1685.082 5651473 5612066 5623344 5663826 5714753 5761825 5797216 5818204 
1688.939 5825491 5822502 5814745 5809742 5815350 5837648 5878856 5935484 
1692.796 5998403 6052360 6081592 6072889 6023936 5947678 5872810 5830562 
1696.654 5837413 5888898 5962559 6029345 6058341 6026725 5929405 5788419 
1700.511 5648620 5552895 5522524 5549707 5611428 5680846 5736375 5763437 
1704.369 5754707 5712907 5648318 5577160 5513329 5465211 5433772 5414481 
1708.226 5400893 5387742 5372680 5356712 5343294 5335814 5336686 5345340 
1712.083 5359328 5374827 5388514 5398813 5405321 5408610 5407200 5397706 
1715.941 5373988 5331017 5268497 5194416 5124272 5076196 5061915 5083236 
1719.798 5133156 5199882 5271448 5338698 5397471 5447663 5492659 5537256 
1723.656 5585584 5639859 5700653 5766828 5837379 5910864 5985503 6058441 
1727.513 6126150 6184962 6233228 6271851 6305098 6337978 6373887 6410639 
1731.371 6439627 6445075 6407681 6312024 6155891 5959435 5761187 5603809 
1735.228 5511182 5482089 5496618 5529202 5557392 5563937 5540042 5485981 
1739.085 5410253 5326858 5249447 5186939 5141304 5108816 5083136 5058999 
1742.943 5033188 5005534 4977648 4952579 4932471 4918664 4910688 4906835 
1746.800 4905025 4903149 4899496 4892861 4882071 4865786 4842298 4810637 
1750.658 4771741 4729667 4691282 4664387 4654406 4662042 4683444 4710340 
1754.515 4731979 4738912 4725246 4691851 4646201 4600255 4565329 4547114 
1758.373 4543766 4547750 4549056 4538107 4509716 4463884 4406309 4346498 
1762.230 4293924 4256648 4238111 4238178 4253804 4280138 4310823 4338499 
1766.087 4356037 4358848 4345929 4321566 4294058 4271839 4259358 4254439 
1769.945 4248283 4229111 4185985 4114899 4022154 3924246 3839931 3782338 
1773.802 3754229 3749016 3756034 3765326 3771943 3775486 3777959 3781837 
1777.660 3787151 3790527 3787585 3774784 3751856 3722814 3694576 3674091 
1781.517 3664368 3664267 3668678 3671418 3667809 3656014 3637804 3617189 
1785.375 3597911 3582609 3572487 3567576 3568010 3574224 3586351 3603490 
1789.232 3621933 3636333 3639608 3626143 3593534 3545527 3490879 3439711 
1793.089 3400772 3378030 3369549 3370517 3375626 3380668 3383373 3382505 
1796.947 3377964 3369215 3356226 3338295 3315991 3290050 3262507 3235200 
1800.804 3210031 3188201 3170477 3157427 3149183 3146013 3147682 3152921 
1804.662 3159697 3166138 3170344 3171779 3171278 3170344 3170310 3171212 
1808.519 3171478 3168508 3159863 3144578 3123919 3101126 3080336 3064485 
1812.376 3054909 3050671 3049536 3049370 3049103 3049236 3051338 3057478 
1816.234 3068957 3086376 3108768 3134699 3162433 3190103 3216540 3240808 
1820.091 3262507 3281836 3299565 3316559 3332886 3347778 3358863 3363572 
1823.949 3359798 3348212 3332919 3320465 3317360 3327143 3348245 3374491 
1827.806 3395963 3402842 3389117 3354890 3307611 3258401 3218476 3193842 
1831.664 3183895 3182960 3183695 3180457 3170544 3154490 3134699 3114274 
1835.521 3094585 3076298 3059147 3043497 3030684 3023444 3024111 3033687 
1839.378 3051706 3075230 3100725 3124687 3144144 3156693 3160698 3155091 
1843.236 3140473 3120448 3100892 3089880 3094285 3117311 3157460 3209163 
1847.093 3265011 3318262 3365308 3406649 3446190 3489209 3539548 3597543 
1850.951 3660425 3723115 3780867 3831708 3876470 3918294 3960557 4004831 
1854.808 4050948 4096870 4140957 4182907 4224627 4269497 4320562 4379532 
1858.666 4446042 4518721 4595801 4676745 4761859 4851412 4944804 5039389 
1862.523 5130273 5212357 5281644 5336048 5375732 5401698 5414044 5411025 
1866.380 5388614 5341784 5267994 5168630 5050887 4926640 4808559 4707091 
1870.238 4626543 4565463 4518554 4479618 4443196 4404969 4362127 4312698 
1874.095 4254908 4187925 4112591 4031083 3947149 3864301 3785279 3710081 
1877.953 3636601 3561462 3482629 3399536 3314489 3231194 3154123 3085308 
1881.810 3025212 2972231 2924260 2880096 2840506 2806522 2780044 2761537 
1885.667 2749466 2741530 2734861 2727593 2718923 2709621 2701019 2695151 
1889.525 2694051 2699786 2714823 2740330 2776443 2819962 2865754 2905947 
1893.382 2933333 2943674 2937203 2919223 2897874 2881363 2874693 2878028 
1897.240 2887901 2899275 2908882 2915920 2923292 2934200 2950813 2972898 
1901.097 2998053 3022710 3045199 3066154 3088645 3116010 3150485 3191405 
1904.955 3235634 3279333 3319230 3354790 3387247 3418404 3449096 3478321 
1908.812 3503639 3522445 3534604 3541786 3547532 3555048 3565905 3579168 
1912.669 3591630 3601352 3607500 3611375 3615251 3620262 3624840 3624639 
1916.527 3614616 3591830 3558122 3521109 3491147 3476651 3481026 3500098 
1920.384 3525585 3547899 3560393 3562565 3558857 3556618 3561863 3576997 
1924.242 3599682 3625742 3651570 3676497 3702830 3734277 3772612 3816699 
1928.099 3861694 3901544 3931969 3952399 3965907 3978012 3993929 4015866 
1931.957 4043222 4073390 4103593 4132427 4160259 4187357 4213085 4235167 
1935.814 4250558 4257652 4257652 4255644 4258555 4272140 4297571 4330802 
1939.671 4364169 4389037 4400350 4399447 4393221 4391882 4403932 4432116 
1943.529 4472789 4518588 4561144 4595734 4622624 4646033 4671520 4703775 
1947.386 4744774 4794287 4851110 4913503 4980597 5051993 5125914 5199949 
1951.244 5270609 5335042 5392003 5441892 5486182 5526819 5563635 5595754 
1955.101 5621532 5640765 5655468 5670003 5689709 5718648 5758065 5805779 
1958.958 5857999 5911770 5966086 6021954 6081525 6144969 6209295 6269060 
1962.816 6318041 6353545 6376644 6393188 6409732 6432094 6460982 6492966 
1966.673 6522530 6545705 6562894 6578133 6598250 6627485 6665942 6709314 
1970.531 6752523 6791529 6828048 6868339 6921495 6993682 7086592 7195558 
1974.388 7312942 7432548 7552962 7677862 7813154 7962290 8120863 8276860 
1978.246 8413555 8516299 8574996 8589596 8567123 8519509 8459974 8398996 
1982.103 8345016 8302729 8274867 8261663 8261764 8270613 8282196 8291146 
1985.960 8293476 8290943 8289254 8297495 8324413 8374268 8445311 8530221 
1989.818 8620487 8708371 8791540 8873406 8959684 9056907 9167349 9289363 
1993.675 9417336 9545551 9669025 9785589 9895471 9999481 10098532 10192787 
1997.533 10283162 10371011 10458672 10548695 10642404 10738035 10831445 
2000.908 10916787 10989539 11047179 11091704 11127499 11160712 11195424 
2004.283 11234083 11277438 11325525 11379331 11440730 11513128 11598401 
2007.658 11695637 11802736 11915752 12033431 12156558 12289232 12435481 
2011.034 12597367 12771973 12952897 13132358 13304036 13467306 13625851 
2014.409 13786164 13953002 14126409 14301494 14470004 14624083 14760425 
2017.784 14880558 14991154 15098451 15206906 15316109 15421392 15516364 
2021.159 15594767 15651887 15686067 15696099 15681362 15641205 15575569 
2024.535 15486559 15378102 15257043 15129842 15002575 14878604 14757512 
2027.910 14637825 14516629 14392146 14264924 14137568 14012543 13894087 
2031.285 13785856 13690920 13612722 13554844 13518712 13504186 13507501 
2034.660 13521960 13539496 13554639 13564347 13570637 13577578 13589304 
2038.036 13607320 13629680 13651528 13668591 13678576 13683842 13688424 
2041.411 13697451 13712737 13732024 13749124 13755553 13745464 13716157 
2044.786 13668659 13607560 13538265 13466213 13395061 13328397 13268541 
2048.161 13217096 13172795 13130753 13082023 13015133 12919819 12790672 
2051.537 12629568 12445539 12251195 12060138 11880710 11714325 11555626 
2054.912 11395862 11227691 11049014 10863922 10681455 10511082 10358455 
2058.287 10223996 10102601 9987784 9873811 9759359 9646767 9540504 9444561 
2062.145 9360455 9286757 9220348 9158957 9102143 9050479 9005316 8966009 
2066.002 8929682 8891364 8846825 8793501 8732204 8666353 8599059 8532147 
2069.859 8463894 8390584 8307999 8213948 8109486 7999650 7890314 7786571 
2073.717 7690913 7602527 7519012 7437604 7356952 7277258 7199095 7122934 
2077.574 7047089 6969809 6889143 6805227 6720654 6639463 6565855 6501912 
2081.432 6447025 6397761 6350452 6302644 6254135 6207111 6164595 6127930 
2085.289 6096209 6066035 6033108 5993767 5947006 5894204 5837782 5779655 
2089.146 5719924 5657348 5589646 5515443 5435819 5354129 5275305 5203940 
2093.004 5143349 5094232 5055814 5026517 5004797 4989546 4979424 4972956 
2096.861 4968029 4961427 4951138 4935990 4916486 4893866 4869371 4842801 
2100.719 4813786 4780987 4744573 4706052 4669410 4638632 4617132 4605680 
2104.576 4602599 4604943 4609698 4615391 4622892 4633609 4648043 4664755 
2108.434 4680061 4689104 4688970 4679793 4664722 4649651 4640240 4639235 
2112.291 4645531 4655177 4662444 4663884 4658224 4647038 4633542 4620380 
2116.148 4608760 4597308 4584281 4568209 4549090 4528632 4508778 4491469 
2120.006 4476404 4462478 4447380 4430242 4410927 4390811 4371600 4354129 
2123.863 4337931 4321432 4302926 4282145 4259927 4238379 4219374 4203616 
2127.721 4189498 4174309 4155007 4129918 4099245 4065564 4032186 4003259 
2131.578 3982158 3972093 3975604 3995735 4034394 4091184 4162734 4241156 
2135.436 4316914 4380971 4427865 4458193 4477576 4494784 4516780 4547081 
2139.293 4583411 4619410 4647842 4663549 4664487 4651928 4629423 4599551 
2143.150 4563354 4521835 4475299 4427028 4381707 4344256 4317617 4300650 
2147.008 4288436 4273278 4249554 4214557 4171265 4124465 4079879 4039678 
2150.865 4002356 3962463 3914249 3854506 3784076 3706606 3627279 3550939 
2154.723 3480792 3420642 3377630 3363204 3393458 3484800 3646257 3874230 
2158.580 4149420 4440886 4716001 4948892 5125814 5247234 5322329 5363354 
2162.438 5381737 5386199 5382106 5373284 5362850 5353424 5345877 5338564 
2166.295 5327629 5308845 5278659 5236502 5185229 5129904 5074219 5022092 
2170.152 4974431 4930963 4891621 4857644 4832012 4817907 4818208 4832481 
2174.010 4858247 4891889 4929052 4967593 5005568 5041836 5073582 5097484 
2177.867 5109453 5107240 5092958 5072945 5057323 5056820 5078844 5126417 
2181.725 5195423 5277518 5363421 5444475 5515007 5571589 5612872 5638650 
2185.582 5649426 5647344 5636368 5621397 5607401 5598003 5592800 5588337 
2189.439 5579476 5561587 5533531 5497423 5458332 5421157 5389017 5361308 
2193.297 5335076 5306732 5274701 5240627 5207729 5179730 5157834 5139997 
2197.154 5121053 5095909 5063022 5024338 4986698 4957908 4944469 4947887 
2201.012 4965281 4990451 5015825 5037076 5052563 5063424 5071637 5079582 
2204.869 5087192 5094400 5101373 5109084 5119578 5135336 5157063 5183519 
2208.727 5212022 5239487 5264170 5286943 5309684 5335780 5366943 5402302 
2212.584 5438503 5472089 5499370 5518900 5531249 5537458 5538599 5534471 
2216.441 5523699 5504839 5477928 5444609 5407536 5370097 5333700 5298313 
2220.299 5262728 5225268 5186201 5147808 5113778 5088164 5072710 5066911 
2224.156 5067078 5069425 5070196 5068016 5063625 5058563 5054708 5052194 
2228.014 5050317 5048406 5045959 5044216 5044887 5050183 5060407 5074420 
2231.871 5089539 5103016 5112906 5118807 5122126 5124540 5126820 5129234 
2235.729 5131178 5132754 5135437 5141874 5155453 5178288 5210378 5248408 
2239.586 5287312 5322397 5349902 5369593 5383347 5394586 5406664 5421291 
2243.443 5438603 5458030 5477726 5496349 5512557 5525007 5531686 5530712 
2247.301 5521517 5504772 5483900 5463902 5449642 5444240 5447830 5457057 
2251.158 5467157 5473968 5475042 5471552 5466519 5463332 5463869 5467492 
2255.016 5471452 5472827 5469572 5462224 5453333 5446052 5442797 5443569 
2258.873 5446388 5447797 5444509 5434678 5418003 5395626 5369224 5340208 
2262.730 5309952 5280336 5253270 5231707 5218595 5215174 5221110 5233819 
2266.588 5248910 5261688 5269436 5271113 5267927 5262393 5256624 5251929 
2270.445 5248341 5244484 5239856 5234255 5228621 5224396 5223457 5227045 
2274.303 5235798 5250386 5270643 5296301 5326455 5359127 5391768 5421526 
2278.160 5445951 5464372 5477793 5488934 5501047 5516350 5535209 5556251 
2282.018 5576355 5592129 5601124 5602333 5595955 5583034 5564910 5542592 
2285.875 5516987 5489001 5460412 5432564 5407066 5384522 5364662 5346212 
2289.732 5327998 5309416 5290901 5273829 5260112 5250856 5246094 5244350 
2293.590 5243243 5240996 5236569 5229929 5222149 5214202 5206321 5198004 
2297.447 5188414 5176913 5163903 5150793 5139963 5133291 5132184 5136107 
2301.305 5143718 5153073 5162394 5170844 5178422 5185732 5193142 5201157 
2305.162 5209674 5218997 5229695 5242405 5258200 5277116 5298883 5321860 
2309.020 5343897 5363354 5378953 5390493 5398243 5403007 5405187 5404852 
2312.877 5401933 5396565 5389252 5381435 5374524 5369828 5368285 5369627 
2316.734 5373418 5379121 5386434 5395224 5406060 5418775 5433302 5449139 
2320.592 5465714 5482290 5498195 5512557 5523095 5527088 5521048 5501819 
2324.449 5468230 5421761 5367312 5311595 5262594 5227146 5209306 5210110 
2328.307 5227280 5257597 5296704 5341416 5389822 5440415 5491652 5541753 
2332.164 5588135 5628413 5661141 5685983 5703708 5715794 5723516 5727445 
2336.021 5727713 5723718 5715257 5702768 5687023 5669198 5650030 5629755 
2339.879 5608072 5584778 5559943 5534068 5507994 5482223 5456520 5429880 
2343.736 5400994 5369191 5335478 5303277 5277083 5262560 5264036 5283925 
2347.594 5321457 5373853 5436557 5503967 5571085 5633213 5686587 5729324 
2351.451 5760852 5782475 5796209 5805074 5811958 5818372 5824920 5831166 
2355.309 5836237 5839260 5839797 5837917 5834054 5828413 5820723 5810917 
2359.166 5799131 5785498 5771126 5757796 5746548 5738524 5733656 5731205 
2363.023 5730466 5731037 5732816 5736644 5743023 5752189 5763874 5777237 
2366.881 5791642 5806484 5822234 5839932 5860283 5883759 5910024 5938407 
2370.738 5967564 5997160 6026993 6057836 6090127 6123730 6158176 6192087 
2374.596 6223883 6252219 6276826 6298072 6317167 6335390 6353948 6373551 
2378.453 6394566 6417129 6441073 6466027 6491284 6515803 6538541 6558522 
2382.311 6575207 6589066 6601210 6613019 6625803 6640136 6655814 6672032 
2386.168 6687846 6702685 6716717 6730918 6746365 6764066 6784764 6808222 
2390.025 6834072 6861944 6891297 6921865 6953614 6985836 7017825 7048638 
2393.883 7077432 7104038 7128862 7152777 7177401 7203643 7232144 7262837 
2397.740 7295117 7328072 7360692 7391867 7420447 7445221 7465244 7479638 
2401.598 7488503 7492380 7492549 7490661 7488065 7485469 7482941 7479806 
2405.455 7475592 7470098 7463861 7457693 7453041 7450884 7451457 7454794 
2409.313 7460356 7467705 7476974 7487964 7501280 7517293 7536206 7558390 
2413.170 7584015 7613553 7647510 7686259 7730037 7778677 7831810 7888661 
2417.027 7948893 8012172 8077957 8145306 8212766 8278278 8339545 8395009 
2420.885 8443893 8487105 8526233 8563506 8600276 8637082 8672641 8705228 
2424.742 8732779 8753740 8768042 8776020 8779367 8779469 8777677 8774803 
2428.600 8771592 8768548 8766215 8764998 8765236 8766926 8769833 8774060 
2432.457 8780213 8789139 8802325 8820923 8845000 8873777 8905094 8936549 
2436.314 8965908 8992190 9015667 9037725 9060459 9085496 9113885 9145624 
2440.172 9179939 9215576 9251384 9286587 9320608 9353244 9384425 9414594 
2444.029 9444324 9474598 9506296 9539827 9575323 9611874 9648291 9683120 
2447.887 9715139 9743975 9769695 9792705 9813141 9831036 9845949 9857235 
2451.744 9864862 9869032 9870591 9870862 9871133 9872354 9875201 9879980 
2455.602 9887030 9896725 9909268 9924827 9943201 9963814 9985818 10008330 
2459.459 10031354 10055429 10081473 10110741 10144147 10182441 10225014 
2462.834 10271423 10321095 10373386 10428431 10486370 10547711 10612931 
2466.209 10682338 10756274 10835350 10919675 11009419 11103840 11202258 
2469.585 11303079 11405081 11507683 11611163 11716878 11826535 11941703 
2472.960 12063749 12192680 12328499 12470806 12620153 12777876 12946240 
2476.335 13127782 13324912 13539598 13773201 14026367 14300021 14594818 
2479.710 14911590 15250248 15610670 15991088 16389320 16802072 17225662 
2483.086 17655808 18086728 18511712 18922542 19309580 19662918 19973244 
2486.461 20232622 20435364 20578374 20661136 20685078 20653456 20571704 
2489.836 20445644 20282820 20090802 19877050 19648670 19412198 19172770 
2493.211 18935484 18704730 18483912 18276894 18086554 17914944 17764044 
2496.587 17635208 17529662 17449116 17395828 17372272 17381412 17425592 
2499.962 17506654 17626202 17785548 17986046 18229760 18518626 18854262 
2503.337 19238052 19670060 20148690 20672012 21236986 21839524 22474198 
2506.712 23133318 23805340 24475110 25123340 25727078 26262098 26705064 
2510.088 27033018 27228130 27277946 27176592 26926434 26537444 26027944 
2513.463 25420554 24742066 24020126 23279002 22540188 21820256 21129658 
2516.838 20474924 19858668 19280484 18738526 18229862 17751098 17298790 
2520.213 16869926 16462754 16075905 15709942 15365744 15044422 14746851 
2523.589 14473259 14223049 13995569 13789516 13604175 13439110 13293889 
2526.964 13167774 13060305 12969829 12894799 12832955 12782346 12740922 
2530.339 12706803 12678486 12655152 12636662 12623223 12615991 12615787 
2533.714 12622847 12636254 12654367 12674529 12694146 12711785 12726831 
2537.090 12740206 12753479 12768493 12786134 12806302 12828314 12850497 
2540.465 12871590 12890840 12907633 12922208 12935077 12946922 12959007 
2543.840 12972730 12989835 13012129 13041115 13077036 13119450 13166989 
2547.215 13217404 13268848 13320026 13370458 13420554 13470724 13521892 
2550.591 13574842 13630262 13689279 13752681 13821429 13896311 13976749 
2553.966 14061686 14149207 14237361 14324677 14410743 14496450 14583442 
2557.341 14674050 14769990 14872774 14982923 15100784 15226020 15358604 
2560.716 15498062 15644126 15796250 15953964 16117098 16285626 16459828 
2564.092 16639816 16825906 17017384 17213458 17412728 17614228 17816788 
2567.467 18019962 18222434 18422858 18618740 18806960 18983840 19146178 
2570.842 19291706 19419440 19529118 19621282 19695994 19753656 19794090 
2574.217 19817568 19825128 19819130 19802448 19778312 19749736 19718842 
2577.593 19686944 19654840 19623328 19593794 19568178 19548700 19538060 
2580.968 19538614 19551924 19579376 19621942 19680080 19754280 19844828 
2584.343 19951006 20072444 20208390 20358234 20522372 20701446 20896794 
2587.718 21109622 21340514 21588832 21853774 22132792 22424058 22725262 
2591.094 23034046 23348434 23665362 23981606 24292864 24594490 24881868 
2594.469 25150268 25395050 25612344 25797888 25947844 26059362 26130050 
2597.844 26158378 26144548 26089232 25994276 25861854 25695158 25497850 
2601.219 25274082 25028632 24766656 24493024 24212732 23929998 23648846 
2604.594 23372770 23105084 22849224 22608594 22386588 22185582 22007710 
2607.970 21853950 21725080 21621394 21543252 21491236 21466204 21468746 
2611.345 21498616 21555298 21636854 21741104 21865100 22005758 22159534 
2614.720 22322750 22491470 22661444 22828968 22990900 23145060 23290816 
2618.095 23428230 23558340 23682612 23802576 23919634 24035288 24150868 
2621.471 24267810 24387166 24509572 24634816 24761886 24888780 25012836 
2624.846 25131134 25239982 25335052 25412088 25465454 25489980 25480598 
2628.221 25432710 25343590 25211996 25038354 24824750 24574644 24292304 
2631.596 23982482 23650560 23302354 22943284 22579102 22215710 21857400 
2634.972 21508434 21172134 20850312 20544396 20255186 19982890 19727060 
2638.347 19487356 19262888 19052380 18854920 18669412 18494666 18330360 
2641.722 18175582 18030080 17892812 17763076 17639660 17521796 17408382 
2645.097 17298754 17192878 17090716 16992572 16899172 16811130 16728995 
2648.473 16652865 16583392 16520539 16464164 16414439 16371015 16334202 
2651.848 16304031 16280603 16263852 16253153 16247924 16247408 16250746 
2655.223 16257659 16267773 16281361 16298527 16319409 16343560 16370568 
2658.598 16399780 16430715 16463064 16496895 16532792 16570862 16611621 
2661.974 16654827 16700689 16748898 16799524 16852670 16908750 16968248 
2665.349 17031406 17098574 17169714 17244692 17323204 17404900 17489438 
2668.724 17576342 17665230 17755620 17847308 17940186 18034432 18130290 
2672.099 18227858 18327456 18429080 18533046 18639458 18748316 18860006 
2675.475 18974806 19092612 19213324 19336878 19462648 19590952 19721616 
2678.850 19855128 19991980 20132518 20277092 20425814 20579000 20736998 
2682.225 20900550 21070700 21248226 21433724 21627244 21828270 22036048 
2685.600 22250376 22471126 22699216 22935844 23182806 23441660 23713824 
2688.976 24000516 24302640 24621490 24957874 25312996 25687072 26080050 
2692.351 26490920 26918184 27359738 27813186 28276512 28746604 29219788 
2695.726 29691574 30155242 30603266 31026518 31414810 31758140 32046522 
2699.101 32270524 32423020 32498930 32496572 32417412 32267098 32054334 
2702.477 31789370 31484346 31151520 30802088 30446398 30093626 29751110 
2705.852 29425070 29119646 28837380 28579080 28344168 28130876 27937300 
2709.227 27761508 27601884 27457322 27326850 27209538 27104146 27009182 
2712.602 26923084 26844616 26772720 26706824 26646894 26592818 26544630 
2715.978 26502612 26467078 26438694 26417990 26405278 26401158 26404892 
2719.353 26415878 26432956 26455034 26481024 26510396 26542096 26575874 
2722.728 26610818 26645978 26680224 26712640 26743084 26772014 26800704 
2726.103 26830838 26864426 26903554 26949912 27005302 27070820 27147634 
2729.479 27235998 27335882 27446484 27566366 27693660 27826856 27964686 
2732.854 28106414 28252042 28401860 28556432 28716264 28881716 29053040 
2736.229 29230384 29413156 29600722 29791670 29984052 30176160 30366084 
2739.604 30552568 30734724 30912366 31084850 31251560 31410750 31560056 
2742.979 31696726 31817998 31921904 32007322 32073702 32121542 32151300 
2746.355 32163608 32159578 32140418 32108306 32065962 32016486 31963698 
2749.730 31911098 31861890 31818998 31784524 31759958 31746342 31744276 
2753.105 31753436 31773328 31803024 31841316 31887348 31940270 31998832 
2756.480 32061398 32126256 32190372 32251216 32305892 32352760 32391242 
2759.856 32421734 32445654 32464362 32479252 32491074 32500536 32508068 
2763.231 32514784 32522208 32532352 32547102 32568100 32596458 32632608 
2766.606 32676864 32729526 32791264 32863128 32946516 33042610 33152462 
2769.981 33276894 33416502 33571868 33743588 33931884 34136752 34357320 
2773.357 34591956 34838924 35096052 35361784 35635340 35916480 36205404 
2776.732 36502480 36807588 37120344 37439396 37763452 38090864 38419600 
2780.107 38747940 39073520 39393936 39706636 40009244 40299304 40575296 
2783.482 40836068 41081004 41310368 41524768 41725552 41914428 42093708 
2786.858 42265912 42433464 42599032 42764960 42933548 43107180 43287940 
2790.233 43478300 43679736 43893508 44119272 44354836 44596884 44840608 
2793.608 45080172 45310116 45525688 45723252 45901316 46060112 46202120 
2796.983 46331308 46453532 46575824 46705276 46849596 47015608 47209160 
2800.359 47434584 47694772 47990788 48322336 48688084 49085976 49513712 
2803.734 49968968 50449788 50954280 51480724 52026716 52589176 53164160 
2807.109 53746464 54330568 54910836 55481784 56038712 56577404 57093904 
2810.484 57583812 58042996 58466420 58849204 59187172 59476312 59713708 
2813.860 59897524 60026208 60099304 60116956 60080048 59990676 59851544 
2817.235 59666948 59441088 59179160 58886808 58569924 58235240 57890248 
2820.610 57541900 57197836 56865036 56548984 56254128 55983716 55739644 
2823.985 55522976 55333888 55172084 55036812 54926664 54840340 54776736 
2827.361 54734828 54714380 54715624 54738848 54784444 54852144 54941480 
2830.736 55051444 55180848 55328768 55494436 55677080 55875928 56089872 
2834.111 56317988 56559176 56812952 57079544 57360020 57655816 57968620 
2837.486 58300108 58651948 59025900 59424640 59852076 60313208 60813892 
2840.862 61360644 61959096 62614560 63331844 64115404 64970880 65905048 
2844.237 66925444 68040008 69254000 70568176 71975408 73458624 74990608 
2847.612 76530808 78031240 79438080 80694624 81751168 82568312 83121416 
2850.987 83405024 83431520 83230408 82840888 82310448 81689856 81025152 
2854.363 80360904 79735016 79176064 78706712 78340592 78083432 77934216 
2857.738 77886568 77930928 78055512 78248256 78498480 78795880 79131136 
2861.113 79495936 79880912 80277152 80675072 81063968 81433904 81775168 
2864.488 82079272 82340520 82556576 82729032 82863504 82969184 83057032 
2867.864 83138032 83222744 83319672 83434288 83570224 83728912 83909912 
2871.239 84111672 84331984 84568184 84817728 85078904 85350480 85631904 
2874.614 85922288 86220048 86522184 86824728 87122872 87412344 87691016 
2877.989 87959040 88219840 88478592 88742352 89018504 89314040 89635400 
2881.365 89988592 90378456 90809104 91283552 91802688 92365392 92968352 
2884.740 93606552 94273520 94962792 95667320 96380024 97093824 97802064 
2888.115 98497920 99176360 99833808 100468904 101082104 101675344 102251416 
2891.490 102813144 103363488 103905104 104440944 104975208 105511864 
2894.383 106055280 106610384 107181128 107771904 108387048 109031160 
2897.276 109709040 110425488 111183744 111985336 112829144 113712000 
2900.169 114628408 115571144 116532256 117503024 118472864 119431712 
2903.063 120367584 121269464 122128192 122936936 123692256 124394088 
2905.956 125044688 125647504 126206624 126726296 127211032 127666088 
2908.849 128097800 128512712 128917976 129319880 129722864 130129400 
2911.742 130539088 130948184 131348880 131728800 132071776 132357136 
2914.635 132563096 132669944 132662160 132532032 132280576 131917760 
2917.528 131459904 130925568 130334976 129704952 129047960 128371656 
2920.421 127678128 126965344 126228288 125461680 124662224 123831704 
2923.314 122977440 122113656 121259696 120435656 119661536 118953400 
2926.207 118320856 117768544 117295872 116898824 116570696 116303744 
2929.100 116089416 115918376 115781528 115670808 115579528 115503048 
2931.993 115438992 115386216 115343952 115311152 115285528 115263928 
2934.886 115242800 115218040 115186296 115143616 115086008 115009304 
2937.779 114909176 114782280 114627160 114444360 114236728 114007952 
2940.672 113762416 113503248 113231944 112948856 112653280 112343960 
2943.565 112019464 111677816 111316568 110931792 110520048 110078168 
2946.458 109604800 109101184 108571904 108023936 107466296 106909920 
2949.352 106366544 105848616 105370328 104946768 104592976 104324016 
2952.245 104152288 104086928 104132952 104290312 104554408 104914840 
2955.138 105356384 105858296 106393080 106931032 107439520 107886872 
2958.031 108248680 108508944 108663256 108718024 108690072 108602192 
2960.924 108478488 108343624 108218328 108117592 108051040 108021768 
2963.817 108026232 108055424 108095624 108130720 108143056 108117424 
2966.710 108042248 107910200 107719848 107474696 107183080 106856104 
2969.603 106507144 106150128 105797384 105458984 105141320 104847472 
2972.496 104576960 104327296 104095344 103877240 103669088 103467376 
2975.389 103268152 103066848 102859200 102641288 102410448 102166056 
2978.282 101909280 101642648 101369272 101092680 100816392 100544160 
2981.175 100280656 100031120 99801744 99598656 99426616 99288456 99184856 
2984.551 99113712 99071208 99052264 99051312 99062048 99077944 99092144 
2987.926 99096888 99084272 99046360 98974896 98862176 98700784 98484200 
2991.301 98208152 97871344 97477016 97032632 96550448 96045576 95532336 
2994.676 95023608 94527800 94048480 93584936 93133584 92690616 92252328 
2998.052 91816976 91384472 90956152 90534416 90121416 89720208 89333128 
3001.427 88962584 88610512 88278016 87965408 87672000 87396824 87138584 
3004.802 86896360 86669280 86456480 86256584 86067408 85885944 85708672 
3008.177 85532000 85352376 85166736 84972952 84768664 84552400 84322680 
3011.552 84079096 83821776 83552032 83272224 82985384 82694832 82403888 
3014.928 82115848 81834168 81562344 81303800 81061216 80836328 80629504 
3018.303 80438656 80260408 80090600 79924360 79757472 79586584 79408680 
3021.678 79220992 79020864 78804976 78570144 78313568 78032832 77726952 
3025.053 77395992 77040344 76661792 76262240 75844272 75410272 74962920 
3028.429 74504392 74035880 73557960 73070208 72572424 72064144 71546152 
3031.804 71019832 70487376 69950616 69410960 68869008 68324944 67779008 
3035.179 67232200 66686972 66146368 65614260 65094188 64588240 64097592 
3038.554 63621952 63160516 62712200 62276128 61851608 61438116 61034780 
3041.930 60640696 60254656 59875424 59502380 59134664 58771844 58413540 
3045.305 58058596 57706256 57355408 57005336 56655916 56307464 55960348 
3048.680 55614784 55270060 54925048 54578204 54228256 53874584 53517632 
3052.055 53158312 52797312 52435492 52072324 51707032 51338284 50965232 
3055.431 50588032 50207656 49826092 49445760 49068760 48696684 48330556 
3058.806 47970844 47617972 47271996 46933648 46603308 46281508 45968752 
3062.181 45665572 45372424 45089988 44819116 44560644 44315720 44084944 
3065.556 43868544 43666728 43478924 43304452 43142272 42991124 42849720 
3068.932 42717064 42592196 42474968 42365584 42264848 42173704 42092944 
3072.307 42023076 41963948 41915452 41876772 41847584 41827444 41816204 
3075.682 41813688 41819196 41831928 41850612 41873524 41899212 41926216 
3079.057 41953112 41978984 42003184 42024972 42044248 42061440 42076664 
3082.433 42090572 42103604 42115432 42125104 42131608 42133760 42130512 
3085.808 42122404 42110356 42096520 42082684 42070712 42061440 42055128 
3089.183 42051184 42048812 42047240 42046180 42044796 42042896 42039428 
3092.558 42033440 42024172 42010668 41992784 41971140 41946836 41921180 
3095.934 41895816 41872064 41850720 41832332 41816972 41804164 41793476 
3099.309 41784100 41775640 41768124 41762360 41759732 41762108 41771112 
3102.684 41787896 41812776 41844808 41882904 41925668 41972744 42024280 
3106.059 42081736 42146756 42220916 42305172 42400000 42504676 42618476 
3109.435 42740608 42870272 43006744 43149956 43299216 43454060 43613824 
3112.810 43777868 43945088 44114540 44284824 44453932 44619724 44779812 
3116.185 44932136 45075320 45208292 45331008 45443384 45545040 45635904 
3119.560 45715228 45782564 45837900 45882276 45917228 45944740 45967168 
3122.936 45986544 46004300 46021172 46037636 46053588 46068952 46083508 
3126.311 46097100 46109592 46120900 46131108 46140320 46148832 46156900 
3129.686 46164200 46170684 46175772 46178756 46179344 46177096 46172088 
3133.061 46164276 46153368 46138512 46118728 46092788 46059744 46019440 
3136.437 45972512 45920396 45864600 45806680 45747220 45686260 45622840 
3139.812 45555716 45484368 45408104 45327072 45242412 45155164 45066532 
3143.187 44977772 44889620 44802880 44718104 44636176 44557416 44482156 
3146.562 44410548 44342248 44276720 44212988 44150156 44087620 44025060 
3149.938 43962800 43901724 43842888 43787324 43735540 43687648 43642768 
3153.313 43599688 43557268 43514156 43469876 43424652 43379028 43333772 
3156.688 43289404 43246064 43203460 43160968 43118080 43074612 43030636 
3160.063 42986768 42943532 42901396 42860508 42820828 42781888 42743464 
3163.438 42705072 42666656 42628092 42589384 42550572 42511652 42472300 
3166.814 42432620 42392180 42351048 42309044 42266308 42222852 42179184 
3170.189 42135624 42092724 42050416 42009024 41968148 41927420 41886732 
3173.564 41845756 41804968 41764696 41724860 41685580 41645936 41605204 
3176.939 41562360 41517036 41469316 41420400 41371488 41324472 41280312 
3180.315 41239828 41202920 41169008 41137460 41107844 41079364 41051720 
3183.690 41024700 40998080 40972224 40947468 40924676 40905160 40889796 
3187.065 40879168 40873448 40871556 40872396 40874360 40876364 40877780 
3190.440 40878764 40880112 40882444 40887104 40895148 40907196 40924128 
3193.816 40946120 40973064 41003684 41036388 41069384 41101288 41131592 
3197.191 41161612 41193196 41229188 41271528 41321012 41376552 41435600 
3200.566 41494948 41552188 41605968 41656512 41705568 41755028 41806644 
3203.941 41861228 41918768 41978404 42039284 42100500 42161472 42221540 
3207.317 42279604 42334464 42384800 42429516 42468280 42502116 42532480 
3210.692 42561352 42590372 42620124 42650388 42680472 42709532 42736956 
3214.067 42763204 42789204 42816044 42844860 42876016 42909040 42942876 
3217.442 42975648 43005684 43031804 43052988 43069596 43082480 43093856 
3220.818 43105676 43120460 43139852 43164668 43194604 43228788 43265536 
3224.193 43303316 43341060 43378292 43415096 43451680 43488448 43525216 
3227.568 43562140 43599212 43636944 43676072 43718100 43764384 43816388 
3230.943 43875036 43940212 44011456 44087252 44165672 44244764 44322804 
3234.319 44398216 44470524 44539756 44606688 44672640 44739080 44806736 
3237.694 44876432 44948264 45021804 45096604 45172260 45248112 45323284 
3241.069 45396812 45467148 45532864 45593032 45646800 45694872 45738900 
3244.444 45780352 45821516 45863900 45907576 45952436 45998000 46043532 
3247.820 46088956 46134536 46181004 46228468 46277380 46327068 46376912 
3251.195 46426800 46476764 46527508 46580656 46637352 46698672 46765160 
3254.570 46836756 46912828 46992640 47075388 47160332 47246952 47334848 
3257.945 47423348 47512384 47601668 47691184 47780724 47869796 47957852 
3261.321 48044080 48127616 48208136 48285524 48360740 48434264 48507540 
3264.696 48580908 48654360 48727004 48798068 48866476 48931520 48992828 
3268.071 49050508 49104820 49155948 49204036 49249016 49290656 49328816 
3271.446 49363080 49393000 49418136 49438144 49453072 49463544 49470636 
3274.822 49475832 49480812 49486568 49493660 49501680 49509888 49517348 
3278.197 49523664 49528604 49532428 49535660 49538072 49539336 49538888 
3281.572 49535584 49528900 49519172 49506840 49493324 49480476 49469412 
3284.947 49461240 49456488 49454932 49455784 49457900 49460016 49460868 
3288.323 49459868 49456712 49451808 49446240 49440856 49436180 49432468 
3291.698 49429016 49424484 49418208 49409264 49397828 49384608 49370468 
3295.073 49356060 49341848 49326996 49311256 49294000 49275512 49256404 
3298.448 49237844 49220736 49205040 49190272 49175096 49157728 49137356 
3301.823 49113648 49087532 49060560 49034408 49010556 48989864 48972392 
3305.199 48957520 48944648 48933152 48922248 48911904 48902040 48892804 
3308.574 48884944 48879308 48876416 48877044 48881716 48890504 48903300 
3311.949 48920172 48940868 48965528 48994644 49028104 49066052 49108308 
3315.324 49154464 49204000 49256584 49312820 49373176 49438816 49510184 
3318.700 49587576 49670524 49758204 49849172 49942276 50036708 50131564 
3322.075 50226776 50321932 50416592 50510528 50603144 50693768 50782064 
3325.450 50867768 50950588 51030928 51109264 51186012 51262144 51338212 
3328.825 51414032 51489124 51562544 51632432 51697332 51756116 51808008 
3332.201 51852880 51890556 51920540 51942088 51954000 51955044 51945076 
3335.576 51925060 51896940 51863224 51826520 51787584 51746152 51700280 
3338.951 51647244 51584892 51511692 51427460 51333440 51231348 51123168 
3342.326 51010504 50894852 50777000 50657684 50537480 50416332 50293956 
3345.702 50169684 50042320 49910720 49774552 49634048 49490204 49344592 
3349.077 49198212 49051992 48905896 48759180 48611108 48460900 48308372 
3352.452 48153308 47996488 47838540 47679944 47521664 47364736 47209900 
3355.827 47058292 46910540 46766784 46626620 46489152 46352988 46217156 
3359.203 46080704 45943452 45805428 45667340 45529440 45392360 45256536 
3362.578 45122076 44989204 44858100 44728424 44599788 44471880 44344344 
3365.953 44217504 44091804 43968776 43849412 43734700 43624928 43519356 
3369.328 43416852 43315724 43214660 43112740 43009888 42905604 42799988 
3372.704 42692496 42582440 42469196 42352548 42232676 42110980 41988988 
3376.079 41868344 41750104 41635068 41522872 41413072 41304684 41197056 
3379.454 41090072 40983620 40877964 40772952 40668800 40565148 40461664 
3382.829 40358348 40254804 40151324 40048376 39946252 39845528 39746828 
3386.205 39650728 39557372 39467296 39380148 39295664 39213660 39133268 
3389.580 39053688 38973944 38893232 38810872 38727364 38643512 38561236 
3392.955 38483100 38410516 38344208 38283516 38225224 38165524 38100700 
3396.330 38027964 37946812 37858632 37766776 37674476 37584940 37499392 
3399.706 37417944 37339688 37263468 37188312 37114032 37040376 36966916 
3403.081 36892528 36815740 36735068 36649872 36560112 36467164 36372760 
3406.456 36278444 36184264 36089596 35992932 35892440 35787292 35677528 
3409.831 35564272 35449104 35333680 35219252 35106148 34994980 34885740 
3413.207 34778864 34674632 34573152 34473672 34375252 34276460 34175644 
3416.582 34072632 33967460 33860416 33752392 33643612 33533494 33421512 
3419.957 33307302 33191192 33074718 32960098 32849408 32743956 32643788 
3423.332 32547816 32453972 32360114 32264956 32168570 32071706 31975932 
3426.708 31882570 31793184 31708274 31627868 31551610 31478680 31407796 
3430.083 31337630 31266730 31193884 31118878 31042284 30965844 30892230 
3433.458 30823822 30762110 30707590 30659300 30614608 30570698 30524734 
3436.833 30474334 30418216 30356168 30288378 30215696 30138586 30057156 
3440.208 29971412 29880504 29783438 29679688 29568586 29450140 29324986 
3443.584 29193458 29055520 28911178 28759596 28599958 28432916 28260246 
3446.959 28085100 27911932 27745048 27587232 27438792 27297916 27160860 
3450.334 27023674 26882792 26736494 26584682 26428552 26269244 26108444 
3453.709 25946720 25784810 25623134 25463276 25306428 25154200 25007220 
3457.085 24865658 24728352 24593894 24461228 24329342 24198334 24068348 
3460.460 23939206 23810488 23681350 23550888 23419418 23287950 23158132 
3463.835 23031950 22910414 22793034 22678514 22564826 22450088 22334016 
3467.210 22217770 22103226 21992406 21886808 21786356 21689622 21594648 
3470.586 21500288 21405390 21310338 21215242 21120476 21025730 20930034 
3473.961 20832342 20732550 20630940 20529702 20431024 20337436 20250360 
3477.336 20170416 20096840 20027994 19961866 19896372 19829672 19760660 
3480.711 19688782 19614386 19539168 19465178 19394804 19329706 19270472 
3484.087 19215334 19162106 19106460 19045078 18975394 18896412 18808552 
3487.462 18713618 18612930 18507424 18397484 18282562 18161832 18035538 
3490.837 17904482 17770118 17634588 17500132 17368032 17239246 17113876 
3494.212 16990540 16867964 16744113 16617542 16486811 16351575 16212463 
3497.588 16070712 15928047 15785668 15644435 15504414 15364989 15225333 
3500.963 15085346 14945129 14806055 14669560 14537529 14411498 14292625 
3504.338 14181248 14077258 13980068 13888271 13799537 13711164 13620210 
3507.713 13523430 13419393 13307760 13190454 13070924 12952828 12839269 
3511.089 12731778 12630489 12534133 12441481 12351612 12264180 12179764 
3514.464 12098942 12021849 11948004 11875874 11803689 11730188 11654453 
3517.839 11576281 11496218 11415320 11334163 11253431 11173767 11095036 
3521.214 11017066 10939451 10861306 10782258 10701763 10619552 10536033 
3524.590 10451885 10367787 10284451 10202183 10121186 10041052 9961814 
3527.965 9883743 9807481 9733233 9661166 9590499 9521063 9451536 9381987 
3531.822 9312958 9245359 9180311 9118114 9057820 8997704 8935872 8870361 
3535.680 8801007 8728857 8656653 8587264 8522719 8463589 8409129 8357413 
3539.537 8306276 8254065 8200036 8144293 8086734 8028203 7968466 7907320 
3543.395 7843888 7777497 7707102 7631829 7550939 7465041 7375858 7287131 
3547.252 7203407 7129805 7069787 7023785 6988833 6958967 6927016 6886382 
3551.109 6833669 6769148 6697200 6623919 6555191 6494143 6440871 6392885 
3554.967 6346048 6297803 6246539 6192860 6138684 6085725 6034553 5984697 
3558.824 5934611 5883087 5829420 5774148 5718984 5666210 5617437 5573435 
3562.682 5534504 5498833 5464003 5426324 5381201 5323671 5249850 5157834 
3566.539 5049412 4930862 4812379 4703976 4614688 4548521 4504593 4477844 
3570.396 4461708 4448720 4432986 4411095 4381707 4345795 4305101 4262169 
3574.254 4219341 4178190 4139653 4103593 4069878 4036701 4002624 3966342 
3578.111 3926385 3882521 3835385 3786416 3737452 3690733 3648028 3610306 
3581.969 3578801 3553044 3532767 3516065 3500532 3482162 3456945 3420141 
3585.826 3368246 3299999 3217107 3124820 3031185 2944875 2872758 2818495 
3589.684 2782145 2759970 2746432 2734795 2719124 2694118 2657212 2607842 
3593.541 2548512 2483459 2417948 2357145 2304812 2262210 2228937 2203094 
3597.398 2181314 2159869 2135462 2105162 2067374 2022265 1971670 1919083 
3601.256 1868798 1824942 1789839 1763955 1745558 1731220 1717681 1701514 
3605.113 1680159 1651953 1616001 1571571 1518667 1457923 1391537 1323532 
3608.971 1259293 1202806 1156225 1118719 1086198 1052983 1014123 967331 
3612.828 913903 859618 810817 774004 752130 743169 741808 740348 730457 
3617.168 705433 661096 597088 516900 427407 337700 256897 192120 147405 
3621.507 122911 116050 121718 134644 150719 167259 183535 200043 216054 
3625.847 228353 230906 213568 165337 79661 -41813 -184384 -324658 -438076 
3630.187 -510990 -542992 -544613 -530383 -514631 -506953 -512148 -528795 
3634.044 -552456 -577275 -598915 -615790 -629454 -642788 -659396 -681032 
3637.901 -708324 -739915 -774016 -808347 -841054 -870915 -896906 -918431 
3641.759 -934764 -945576 -950304 -949345 -943394 -933078 -920349 -907586 
3645.616 -897666 -893996 -900609 -920878 -957511 -1011992 -1083522 -1168588 
3649.474 -1261500 -1353832 -1435906 -1498582 -1535992 -1545798 -1531138 
3652.849 -1498846 -1459121 -1422894 -1399940 -1398223 -1420384 -1462225 
3656.224 -1514233 -1564154 -1601922 -1621927 -1625690 -1618428 -1607501 
3659.599 -1599149 -1597993 -1605586 -1621366 -1642723 -1665861 -1687646 
3662.975 -1705006 -1715865 -1719033 -1714313 -1701772 -1682596 -1658105 
3666.350 -1629816 -1600436 -1572672 -1549661 -1534242 -1526978 -1524436 
3669.725 -1517733 -1492770 -1435476 -1335202 -1189637 -1003463 -788999 
3673.100 -564005 -348297 -167758 -48406 -10205 -60564 -188988 -372035 
3676.958 -584488 -808347 -1034107 -1256082 -1469193 -1665829 -1836805 
3680.333 -1974732 -2076772 -2146280 -2190788 -2219270 -2238324 -2250652 
3683.708 -2254443 -2246762 -2226061 -2193788 -2155742 -2120627 -2097480 
3687.083 -2093622 -2111923 -2149840 -2200051 -2253948 -2304049 -2346365 
3690.459 -2380111 -2406241 -2425254 -2437544 -2443771 -2444562 -2442288 
3693.834 -2439916 -2440081 -2444265 -2452272 -2461760 -2468844 -2469997 
3697.209 -2463045 -2448483 -2429307 -2410064 -2395961 -2391842 -2399454 
3700.584 -2418137 -2444825 -2473226 -2497078 -2511112 -2512199 -2500109 
3703.960 -2476948 -2446044 -2410986 -2374937 -2339675 -2306553 -2276230 
3707.335 -2248938 -2225600 -2207535 -2196722 -2195304 -2205919 -2229918 
3710.710 -2267529 -2316606 -2372268 -2427362 -2474774 -2507719 -2522510 
3714.085 -2519315 -2501031 -2472633 -2440015 -2409141 -2383669 -2365941 
3717.461 -2356120 -2352561 -2353385 -2356878 -2362118 -2369236 -2377870 
3720.836 -2387459 -2396158 -2401826 -2402287 -2397443 -2388810 -2379649 
3724.211 -2374344 -2376651 -2387986 -2407032 -2429570 -2449405 -2459553 
3727.586 -2455830 -2436489 -2403539 -2361887 -2318155 -2279724 -2251971 
3730.962 -2238653 -2239445 -2250982 -2267364 -2283943 -2298907 -2313936 
3734.337 -2334238 -2364227 -2405648 -2454182 -2502151 -2539672 -2560161 
3737.712 -2562072 -2547973 -2522708 -2490588 -2453556 -2411514 -2363041 
3741.087 -2309091 -2253619 -2206282 -2180798 -2190491 -2243070 -2332590 
3744.463 -2436522 -2522708 -2566189 -2558975 -2510387 -2438697 -2363172 
3747.838 -2300489 -2261826 -2250982 -2265881 -2300094 -2344981 -2393226 
3751.213 -2440245 -2482286 -2515131 -2534599 -2537004 -2521522 -2491247 
3754.588 -2452272 -2411349 -2374377 -2344817 -2323197 -2308168 -2298083 
3757.964 -2292315 -2292183 -2300192 -2316705 -2339741 -2362711 -2377277 
3761.339 -2376815 -2358427 -2324845 -2283152 -2242741 -2211589 -2194711 
3764.714 -2191974 -2198733 -2207996 -2213798 -2213304 -2207535 -2200612 
3768.089 -2196854 -2199392 -2208985 -2223688 -2239873 -2253685 -2261925 
3771.465 -2263969 -2260475 -2253058 -2243829 -2234995 -2227907 -2223820 
3774.840 -2222402 -2222765 -2223655 -2223655 -2222468 -2221017 -2221743 
3778.215 -2227116 -2238851 -2256882 -2278208 -2298182 -2312486 -2317759 
3781.590 -2313409 -2301511 -2285394 -2268814 -2254542 -2244455 -2238522 
3784.966 -2236379 -2236873 -2239115 -2241950 -2244752 -2246532 -2246565 
3788.341 -2244356 -2240137 -2234632 -2228698 -2222633 -2215578 -2205557 
3791.716 -2190359 -2168534 -2141235 -2111758 -2086302 -2071528 -2072485 
3795.091 -2091083 -2124189 -2163523 -2198106 -2218512 -2218743 -2199788 
3798.467 -2167809 -2132992 -2106812 -2099129 -2115154 -2152610 -2201337 
3801.842 -2245543 -2270363 -2267990 -2239675 -2194381 -2144532 -2104042 
3805.217 -2083894 -2090786 -2124057 -2175029 -2230083 -2274022 -2297490 
3808.592 -2298676 -2281603 -2252894 -2218347 -2181425 -2142191 -2099458 
3811.968 -2052039 -2001349 -1951610 -1910409 -1886261 -1886591 -1914302 
3815.343 -1964903 -2025458 -2078750 -2109944 -2111395 -2084916 -2040134 
3818.718 -1991026 -1952105 -1935776 -1949268 -1990993 -2049368 -2106548 
3822.093 -2145917 -2157753 -2142554 -2108065 -2065428 -2025821 -1996995 
3825.469 -1982153 -1979943 -1985089 -1990993 -1992213 -1986738 -1975985 
3828.844 -1963253 -1952335 -1945936 -1944584 -1947058 -1950917 -1953523 
3832.219 -1952731 -1947618 -1937492 -1922581 -1903877 -1882731 -1862441 
3835.594 -1847132 -1841193 -1848914 -1871514 -1906648 -1948113 -1988156 
3838.969 -2019522 -2038122 -2043531 -2038815 -2028195 -2016751 -2008242 
3842.345 -2005604 -2009825 -2020511 -2035550 -2052138 -2066021 -2073012 
3845.720 -2070143 -2055666 -2029679 -1994225 -1951775 -1905164 -1855743 
3849.095 -1804074 -1750748 -1696986 -1647014 -1608524 -1593240 -1613938 
3852.470 -1679559 -1788664 -1923670 -2056623 -2160094 -2218150 -2229786 
3855.846 -2204897 -2156830 -2097447 -2036638 -1980867 -1933566 -1896652 
3859.221 -1870161 -1853137 -1843404 -1838356 -1835155 -1832219 -1829447 
3862.596 -1829381 -1835683 -1851454 -1876297 -1905329 -1929278 -1937888 
3865.971 -1923934 -1886393 -1831856 -1772891 -1723785 -1697745 -1702069 
3869.347 -1734577 -1782625 -1827798 -1854853 -1856304 -1835155 -1801533 
3872.722 -1767941 -1744511 -1735897 -1740814 -1752497 -1762661 -1763915 
3876.097 -1753454 -1733323 -1709099 -1687811 -1676391 -1680153 -1700386 
3879.472 -1734610 -1775563 -1813445 -1837828 -1841655 -1822881 -1786024 
3882.848 -1740121 -1696359 -1666555 -1659590 -1678239 -1717086 -1763585 
3886.223 -1802259 -1819813 -1810937 -1778401 -1732003 -1683421 -1644109 
3889.598 -1623016 -1624006 -1645298 -1679427 -1717185 -1748537 -1767149 
3892.973 -1770515 -1760087 -1738801 -1710386 -1678140 -1644736 -1612552 
3896.349 -1583864 -1560655 -1545005 -1538303 -1540581 -1550915 -1566532 
3899.724 -1584524 -1601658 -1615886 -1626581 -1634735 -1642360 -1651272 
3903.099 -1662792 -1676556 -1691210 -1704247 -1713983 -1718934 -1719099 
3906.474 -1715535 -1709198 -1701112 -1691705 -1680682 -1668205 -1654012 
3909.850 -1638531 -1622653 -1607171 -1592381 -1578021 -1563032 -1546326 
3913.225 -1527704 -1507926 -1489204 -1475104 -1468467 -1471042 -1482864 
3916.600 -1501157 -1521761 -1539954 -1552335 -1557089 -1554118 -1544411 
3919.975 -1529289 -1509775 -1487091 -1462622 -1438746 -1418468 -1405918 
3923.351 -1403540 -1412424 -1430622 -1453540 -1475203 -1489600 -1493266 
3926.726 -1485473 -1468731 -1446737 -1424182 -1405291 -1392047 -1385804 
3930.101 -1386762 -1394259 -1407569 -1425437 -1446077 -1466915 -1485176 
3933.476 -1498285 -1504624 -1504096 -1498318 -1489303 -1479595 -1470250 
3936.852 -1461499 -1452451 -1441255 -1426857 -1409221 -1389669 -1371139 
3940.227 -1356540 -1349009 -1350033 -1359381 -1374541 -1391716 -1406480 
3943.602 -1414934 -1414340 -1404729 -1387687 -1366746 -1345739 -1329058 
3946.977 -1319511 -1318652 -1326019 -1339496 -1356210 -1372890 -1387092 
3950.353 -1397001 -1402417 -1403441 -1400865 -1395713 -1388876 -1381345 
3953.728 -1374079 -1367671 -1362981 -1360438 -1359843 -1360933 -1362882 
3957.103 -1364732 -1365359 -1363873 -1359678 -1352675 -1343096 -1331997 
3960.478 -1320601 -1310592 -1303258 -1299856 -1300318 -1304415 -1310592 
3963.854 -1317562 -1324004 -1329025 -1332262 -1334145 -1334739 -1334376 
3967.229 -1332989 -1330346 -1326250 -1320766 -1314523 -1307949 -1302399 
3970.604 -1297907 -1294900 -1293348 -1292687 -1292786 -1293249 -1294074 
3973.979 -1294966 -1295561 -1295528 -1294008 -1290837 -1285750 -1279506 
3977.354 -1272700 -1266093 -1260212 -1255619 -1252415 -1250598 -1250267 
3980.730 -1251424 -1254133 -1257998 -1262326 -1265993 -1268273 -1268306 
3984.105 -1266192 -1262624 -1258824 -1255785 -1254364 -1254364 -1255355 
3987.480 -1256611 -1257205 -1257073 -1256247 -1255256 -1254364 -1253868 
3990.855 -1253571 -1253208 -1252580 -1251192 -1248946 -1245906 -1241875 
3994.231 -1236622 -1230278 -1223241 -1215872 -1209529 -1204936 -1202656 
3997.606 -1202292 -1203118 -1203680 -1202953 -1200541 -1196609 -1192313 
##END=
