
##TITLE=Z197_2_c
##JCAMP-DX=5.01  $$ Nicolet v. 1
##DATATYPE=INFRARED SPECTRUM
##ORIGIN=UniL
##OWNER=Nicolet
##LONGDATE=2011/09/08
##TIME=10:32:43
##SPECTROMETER/DATA SYSTEM=Nicolet iS5
##DATA PROCESSING=
Ratio against background
%Transmittance->Absorbance
Truncated
ElementMultiply or ElementDivide
##COMMENTS=
Number of sample scans: 32
Collection length: 51.14 sec
Sample gain: 2.0
Background collected on: Jeu Sep 08 10:26:36 2011 (GMT+02:00);
Number of background scans: 32
Background gain: 2.0
Sample spacing:  1.000
Number of scan points: 12415
Resolution points: 8192
Number of FFT points: 65536
Apodization: N-B fort;
Phase correction: Mertz;
Laser frequency: 15798.0 cm-1
Number of rejected sample scans: 0
Number of rejected background scans: 0
Bench serial number: ASB1000141;
##RESOLUTION=4.000
##XUNITS=1/CM
##YUNITS=ABSORBANCE
##FIRSTX=649.893372
##LASTX=4000.122314
##FIRSTY=0.104662
##MAXX=4000.122314
##MINX=649.893372
##MAXY=0.232585
##MINY=-0.002011
##XFACTOR=1.000000
##YFACTOR=1.000000E-009
##NPOINTS=6950
##DELTAX=0.482117
##ZPD=6100
##XYDATA=(X++(Y..Y))
649.893 104662328 104761848 104956728 105255136 105637576 106069832 
652.786 106520944 106981432 107463584 107992024 108582328 109230824 
655.679 109913536 110602672 111283768 111968568 112685104 113466032 
658.571 114321128 115227336 116132400 116975248 117717008 118352752 
661.464 118915488 119454048 120017040 120631576 121301528 122018904 
664.357 122776456 123575272 124414744 125274496 126087712 126720312 
667.250 127001688 126788496 126053872 124913952 123560520 122159312 
670.142 120785488 119435776 118059744 116602856 115034784 113365960 
673.035 111636560 109899456 108191760 106522640 104880200 103247728 
675.928 101622752 100024864 98489104 97050768 95730680 94528128 93424704 
679.302 92397608 91432192 90527680 89693288 88938760 88264376 87658176 
682.677 87100272 86571888 86065264 85586592 85151504 84775160 84462160 
686.052 84203128 83978176 83766200 83552552 83335128 83120976 82919928 
689.427 82736568 82567432 82402568 82234120 82060576 81889304 81731168 
692.802 81593808 81474280 81359696 81230808 81072232 80881232 80669488 
696.177 80458200 80267944 80110760 79985624 79882024 79786456 79691584 
699.551 79598608 79513840 79442104 79380128 79314056 79226368 79102632 
702.926 78940224 78750160 78552824 78368840 78207504 78065864 77929616 
706.301 77783976 77620168 77441528 77259952 77090048 76940496 76810768 
709.676 76693736 76583016 76479832 76396344 76351744 76364344 76444816 
713.051 76589536 76782696 76998760 77211024 77391512 77511512 77542600 
716.425 77455264 77228200 76860480 76382672 75861400 75382800 75036960 
719.800 74881456 74917480 75079456 75247200 75281872 75051016 74475008 
723.175 73538800 72290720 70820528 69234880 67639368 66112416 64706096 
726.550 63447020 62339960 61376060 60538148 59806672 59160972 58583272 
729.925 58061932 57590168 57165592 56786900 56450072 56146952 55866204 
733.300 55595688 55326700 55055804 54785156 54518580 54259340 54007124 
736.674 53759368 53512984 53267600 53027152 52798396 52587788 52398104 
740.049 52225880 52063396 51901832 51735328 51563288 51389940 51221356 
743.424 51062340 50913368 50772156 50635792 50504424 50381952 50275132 
746.799 50189952 50128256 50086124 50055040 50025440 49991240 49951572 
750.174 49909756 49869468 49831632 49792204 49743492 49678104 49593336 
753.548 49492544 49384428 49279560 49184372 49100776 49025692 48954996 
756.923 48886984 48824504 48773564 48740572 48728040 48733864 48752024 
760.298 48776976 48807264 48846196 48900520 48975916 49073656 49189492 
763.673 49316120 49448988 49590848 49753780 49956144 50215916 50545852 
767.048 50949656 51424068 51964532 52572868 53263036 54067352 55035944 
770.423 56238100 57769908 59743016 62280376 65497772 69460336 74140568 
773.797 79362344 84798480 89944608 94178976 96919288 97692312 96289192 
777.172 92812744 87662472 81436624 74769552 68279144 62425800 57475440 
780.547 53530300 50544028 48384148 46874548 45849984 45172004 44732904 
783.922 44462520 44314180 44256024 44267656 44333736 44441780 44583004 
787.297 44750576 44940364 45151156 45384452 45644188 45935456 46264112 
790.671 46635176 47052716 47520556 48042080 48620892 49260556 49964436 
794.046 50734988 51575416 52489216 53483488 54569184 55761004 57077728 
797.421 58541028 60173696 62002932 64063908 66398284 69063272 72127400 
800.796 75661544 79735696 84398496 89662368 95481552 101737200 108233208 
804.171 114669480 120677384 125848888 129760120 132077976 132608656 
807.063 131347168 128482016 124369112 119482104 114298320 109280936 
809.956 104816592 101158088 98441976 96667040 95714568 95356288 95292280 
813.331 95209632 94792576 93794688 92073672 89591872 86420936 82709384 
816.706 78662304 74489792 70384304 66510380 62976920 59845876 57136340 
820.081 54832408 52895920 51276608 49925252 48795620 47849120 47058104 
823.455 46400880 45861104 45425980 45083956 44824924 44641868 44529588 
826.830 44486564 44513252 44611168 44781872 45025332 45340536 45724208 
830.205 46171568 46673876 47219504 47792408 48373592 48945540 49493992 
833.580 50009936 50489836 50929464 51318112 51634112 51841120 51893768 
836.955 51750556 51380876 50779348 49967408 48993384 47919928 46812320 
840.329 45733416 44730116 43833544 43060708 42415488 41893048 41482332 
843.704 41169588 40939276 40776624 40669856 40610404 40592792 40613240 
847.079 40667780 40750132 40853208 40969604 41094624 41228024 41374292 
850.454 41540044 41731172 41949936 42194152 42458528 42737136 43027008 
853.829 43329344 43648888 43991944 44363352 44765888 45200128 45666308 
857.204 46166188 46703616 47285076 47917748 48608516 49365196 50197948 
860.578 51121080 52156940 53335444 54691380 56266612 58103252 60241180 
863.953 62715456 65545356 68722648 72192112 75842856 79491200 82878784 
867.328 85722480 87730432 88664200 88401136 86946752 84446136 81137016 
870.703 77329512 73340768 69437312 65837452 62676408 60012628 57847848 
874.078 56141188 54831056 53845064 53117760 52593696 52227708 51988508 
877.452 51853032 51803488 51826712 51910648 52045352 52224048 52442444 
880.827 52699628 52995784 53331700 53706828 54119968 54569600 55055732 
884.202 55579796 56145296 56755668 57413036 58117192 58866052 59657744 
887.577 60492364 61373276 62308024 63308196 64387904 65564700 66859348 
890.952 68292056 69879048 71622728 73501880 75459664 77399280 79199440 
894.327 80716480 81818376 82413336 82457528 81967408 81006024 79672280 
897.701 78074864 76316864 74495536 72688984 70961264 69366288 67941200 
901.076 66709072 65677352 64838836 64174860 63661428 63276492 63001552 
904.451 62823580 62733828 62724144 62786356 62913032 63098520 63341504 
907.826 63645044 64015568 64459196 64980304 65581268 66264108 67033732 
911.201 67900792 68879992 69988808 71243560 72655648 74231368 75973952 
914.575 77885056 79966936 82220064 84638800 87206296 89891096 92651200 
917.950 95432768 98176840 100822032 103290768 105487624 107296544 108575648 
921.325 109189200 109037464 108086824 106397656 104125960 101515200 98836464 
924.700 96365672 94348288 92954936 92293344 92405440 93277888 94853704 
928.075 97037728 99710312 102714736 105871488 108999688 111909224 114430304 
931.450 116425024 117777272 118406192 118265472 117346056 115686720 
934.342 113382608 110596688 107540352 104470448 101675216 99419952 97947896 
937.717 97455328 98063488 99826344 102712648 106608056 111288104 116417568 
941.092 121587536 126293824 130024744 132348016 132942688 131692904 
943.985 128696800 124258696 118810328 112828584 106787032 101050944 95873536 
947.359 91397960 87662432 84637632 82251736 80419600 79051744 78064600 
950.734 77389768 76967000 76747344 76693976 76777640 76976728 77276256 
954.109 77663032 78124920 78650784 79228584 79848216 80502024 81184624 
957.484 81892784 82623496 83372904 84135792 84906352 85678928 86450536 
960.859 87220472 87990040 88760728 89532656 90304248 91072608 91835520 
964.233 92592936 93348000 94105712 94871760 95649112 96438024 97236344 
967.608 98041352 98852320 99671592 100504736 101358808 102239640 103151336 
970.983 104096272 105076656 106096264 107162048 108282016 109464600 
973.876 110715912 112038168 113431048 114893384 116425416 118029568 
976.768 119709280 121466160 123296672 125190232 127131416 129100144 
979.661 131077352 133046296 134990592 136893936 138736240 140492784 
982.554 142138784 143653296 145024528 146253472 147352384 148341152 
985.447 149239888 150067120 150838784 151568528 152272224 152968208 
988.339 153673776 154403248 155162656 155948944 156751360 157557712 
991.232 158359536 159154352 159945632 160738224 161533952 162329536 
994.125 163116656 163885760 164630208 165347440 166037664 166699712 
997.017 167327248 167907808 168427296 168874144 169246688 169554576 
999.910 169818144 170062096 170308512 170575392 170875728 171220112 
1002.803 171621616 172095408 172656336 173315264 174074672 174928192 
1005.695 175864592 176874928 177958320 179125376 180394576 181787936 
1008.588 183325248 185019216 186877808 188904608 191099360 193450736 
1011.481 195924160 198452336 200917952 203163808 205019424 206317440 
1014.374 206946944 206877312 206169712 204961280 203437744 201808400 
1017.266 200253856 198917344 197894688 197226064 196911328 196917472 
1020.159 197195520 197687424 198338528 199108736 199971296 200915344 
1023.052 201940816 203050368 204243424 205512768 206844768 208223920 
1025.945 209638512 211080464 212546480 214032800 215531696 217030592 
1028.838 218513536 219965376 221376272 222741328 224056880 225316160 
1031.731 226503728 227595968 228568336 229400912 230087392 230636848 
1034.624 231070896 231415600 231693104 231919920 232105504 232256224 
1037.517 232378624 232477568 232551664 232585376 232546128 232384208 
1040.410 232036416 231443184 230553024 229329424 227753632 225819712 
1043.303 223533344 220911296 217986576 214812720 211458832 208012288 
1046.196 204564800 201196512 197976976 194955440 192162000 189616016 
1049.089 187326304 185294544 183513440 181965888 180623920 179450448 
1051.982 178407248 177459360 176578976 175748464 174955456 174187680 
1054.875 173430448 172662992 171860912 171001504 170063472 169028592 
1057.768 167880640 166600368 165166144 163557040 161756672 159760736 
1060.661 157579808 155240144 152776880 150228224 147632144 145019936 
1063.554 142418976 139854752 137349744 134925664 132600784 130386424 
1066.448 128288000 126304776 124434160 122673600 121024040 119488824 
1069.341 118072312 116776368 115598168 114530136 113560744 112678448 
1072.234 111871928 111132504 110452320 109822864 109234192 108674960 
1075.127 108134296 107605208 107086312 106582480 106103296 105661448 
1078.020 105270120 104940400 104682864 104506816 104419280 104425224 
1080.913 104523384 104704832 104950104 105230520 105511832 105755944 
1083.806 105928360 106002416 105959480 105793112 105508152 105122920 
1086.699 104666800 104180168 103712880 103314344 103032816 102909928 
1089.592 102975648 103252392 103756720 104502224 105504520 106782120 
1092.485 108353784 110236936 112441520 114964016 117779496 120835640 
1095.378 124049664 127293872 130405936 133197696 135457616 136998032 
1098.271 137677984 137428992 136275216 134328624 131774304 128820968 
1101.164 125687720 122572048 119619672 116936344 114581520 112574528 
1104.057 110908736 109559000 108492480 107672416 107065120 106642872 
1106.950 106382000 106263192 106269112 106379032 106569648 106813984 
1109.844 107081864 107345792 107582752 107775976 107917120 108003752 
1112.737 108036640 108014928 107930976 107763496 107476904 107016360 
1115.630 106314568 105307528 103943408 102204504 100117400 97757704 95237608 
1119.005 92682128 90218024 87940656 85906376 84133504 82607104 81293048 
1122.380 80150688 79146920 78259520 77478992 76807096 76254384 75838912 
1125.755 75582520 75511192 75649168 76010696 76591872 77359280 78248568 
1129.131 79154832 79946272 80482408 80617896 80235664 79261352 77670640 
1132.506 75499288 72835896 69818336 66600680 63342044 60188996 57248680 
1135.881 54594548 52263732 50262260 48576236 47180420 46047252 45148472 
1139.256 44458484 43954880 43615916 43421464 43354204 43398396 43541736 
1142.632 43774132 44085640 44465348 44900752 45376432 45877820 46391844 
1146.007 46908584 47422572 47931544 48435192 48935008 49432912 49932988 
1149.382 50440484 50962512 51506616 52078000 52678568 53305776 53953584 
1152.757 54614124 55279844 55945796 56608168 57264364 57910880 58541980 
1156.133 59150116 59726824 60262804 60749444 61177504 61535500 61810696 
1159.508 61987224 62048528 61980424 61771844 61416668 60913460 60264592 
1162.883 59474524 58549976 57500140 56337264 55076344 53735964 52335420 
1166.258 50893436 49427936 47954192 46485428 45034776 43614412 42236840 
1169.634 40914480 39657408 38472892 37364568 36332480 35374220 34486260 
1173.009 33665880 32911238 32221596 31596008 31032744 30528396 30078924 
1176.384 29679334 29325944 29015382 28745150 28512486 28313930 28145618 
1179.759 28004656 27890554 27806932 27760764 27762002 27820850 27945498 
1183.135 28140952 28410028 28753542 29172762 29669400 30246530 30906924 
1186.510 31653848 32490752 33425056 34469724 35644476 36976512 38493816 
1189.885 40217368 42153512 44285340 46569444 48932784 51286528 53530676 
1193.260 55565524 57313552 58724164 59785756 60526412 61013544 61345416 
1196.635 61629272 61979848 62498416 63256444 64294220 65608784 67155536 
1200.011 68844120 70550864 72133344 73432032 74302848 74630872 74337328 
1203.386 73395296 71824952 69690560 67084388 64122668 60936180 57648736 
1206.761 54380848 51236788 48291560 45597336 43178612 41035736 39151832 
1210.136 37498920 36046604 34765008 33629972 32624640 31736788 30958942 
1213.512 30286104 29714386 29241194 28864682 28584104 28398638 28306822 
1216.887 28305088 28388168 28549072 28780908 29078546 29439252 29862402 
1220.262 30348032 30895930 31503584 32166750 32879356 33635268 34428404 
1223.637 35251772 36097228 36955516 37815252 38666148 39501700 40320608 
1227.013 41128388 41936140 42759368 43613384 44513216 45472264 46501400 
1230.388 47610684 48808856 50102036 51493260 52981672 54563436 56233124 
1233.763 57987024 59825072 61751564 63773736 65899840 68137560 70491736 
1237.138 72965144 75557600 78263648 81068320 83938296 86819952 89631944 
1240.514 92265232 94602440 96520616 97912144 98707144 98879152 98458640 
1243.889 97527448 96222608 94717032 93189880 91826552 90785624 90184584 
1247.264 90108776 90603488 91686120 93357088 95609256 98432448 101810960 
1250.639 105717824 110099736 114858544 119853264 124881304 129679576 
1253.532 133961576 137408112 139707568 140612208 139948272 137663200 
1256.426 133831320 128649560 122401120 115399744 107982632 100453656 
1259.319 93065432 86033272 79509064 73589008 68323000 63713564 59728228 
1262.694 56308596 53384900 50881552 48724820 46853288 45214912 43769256 
1266.069 42489144 41355816 40359152 39496548 38772032 38196348 37784416 
1269.444 37555024 37525292 37706420 38099360 38689476 39445816 40316684 
1272.820 41236148 42126384 42899204 43473172 43777612 43763360 43414436 
1276.195 42748836 41818032 40691324 39450716 38174824 36923804 35741816 
1279.570 34652384 33662696 32770508 31968656 31249852 30606854 30033402 
1282.945 29523332 29070186 28667842 28311490 27997480 27724314 27490464 
1286.321 27294282 27133244 27004420 26904930 26833516 26789424 26772438 
1289.696 26780720 26809548 26851702 26899184 26944730 26984428 27018982 
1293.071 27053118 27093320 27146118 27216278 27306844 27419238 27555280 
1296.446 27716474 27904830 28120872 28363940 28631456 28920176 29228188 
1299.822 29555500 29904604 30278644 30680030 31108840 31562406 32036890 
1303.197 32528852 33037710 33565176 34114068 34686440 35282032 35896972 
1306.572 36525764 37162108 37801404 38440524 39077252 39708740 40330172 
1309.947 40934944 41516492 42069724 42592416 43085916 43553532 43999976 
1313.323 44429412 44846120 45254772 45659428 46062504 46460608 46841180 
1316.698 47177692 47431848 47559668 47516968 47273288 46818632 46166632 
1320.073 45350572 44416308 43414764 42389988 41378048 40406604 39493896 
1323.448 38654272 37899052 37235884 36669448 36200252 35825288 35538884 
1326.823 35335364 35209548 35157092 35172796 35250584 35382168 35558088 
1330.199 35769628 36009344 36271532 36550740 36839724 37128212 37403100 
1333.574 37649904 37856752 38015304 38123088 38181404 38193672 38162920 
1336.949 38090356 37976644 37823020 37633712 37417220 37185240 36949236 
1340.324 36718772 36498664 36289648 36090244 35899492 35718540 35551292 
1343.700 35402624 35277036 35178364 35109096 35072492 35073460 35118828 
1347.075 35216664 35374620 35597432 35887040 36243072 36664940 37152468 
1350.450 37705912 38324376 39002252 39728636 40488360 41263036 42036292 
1353.825 42794868 43528040 44224988 44871912 45447688 45927940 46287664 
1357.201 46507480 46580288 46513532 46330204 46062320 45749980 45435916 
1360.576 45158988 44958516 44870736 44927060 45155272 45573636 46188780 
1363.951 46995964 47979980 49116360 50369040 51689608 53013340 54253860 
1367.326 55319660 56123048 56599224 56726328 56527660 56066872 55424372 
1370.702 54687284 53932312 53214080 52572120 52029404 51596088 51270088 
1374.077 51034316 50856444 50685092 50459984 50123868 49628064 48947504 
1377.452 48084312 47070252 45959544 44820220 43724108 42728800 41876916 
1380.827 41197164 40706316 40416968 40339116 40480612 40850516 41463776 
1384.203 42346956 43545140 45116084 47112316 49552780 52386928 55479940 
1387.578 58608564 61515000 63961968 65761648 66813984 67097844 66659936 
1390.953 65594876 64029924 62113016 59983756 57784596 55657720 53731804 
1394.328 52126116 50926820 50169536 49836612 49868944 50191664 50725160 
1397.704 51401424 52168936 52985676 53821544 54655492 55471432 56257300 
1401.079 57000948 57687980 58303596 58834556 59272504 59618940 59885772 
1404.454 60093444 60263752 60416696 60566944 60723532 60893328 61081308 
1407.829 61289320 61511676 61731356 61920080 62039776 62053880 61938040 
1411.205 61686288 61313096 60846024 60318612 59758608 59185348 58610916 
1414.580 58041288 57480580 56931404 56392648 55857612 55314280 54749712 
1417.955 54159712 53560660 52992224 52509968 52161464 51966100 51911616 
1421.330 51961956 52075424 52214592 52359528 52509112 52679128 52891952 
1424.706 53164344 53498816 53881932 54289828 54695776 55079840 55429080 
1428.081 55738744 56010740 56252736 56479432 56712624 56984704 57335784 
1431.456 57803936 58421616 59206536 60162928 61287376 62580420 64055732 
1434.831 65739760 67662552 69834288 72220480 74733688 77258248 79691584 
1438.207 81972888 84077928 85995064 87706104 89167304 90311920 91072480 
1441.582 91389256 91232048 90606336 89549144 88120704 86389200 84429112 
1444.957 82305880 80067088 77746488 75364120 72942024 70523152 68178568 
1448.332 66002584 64096092 62534228 61357628 60568124 60136140 60007188 
1451.708 60105428 60344768 60624960 60841412 60897636 60695068 60139600 
1455.083 59149924 57683396 55783876 53613552 51445292 49551628 48095380 
1458.458 47100388 46495976 46186384 46088812 46148280 46328764 46600944 
1461.833 46937300 47305840 47670552 47998784 48264232 48455972 48581724 
1465.208 48668216 48752136 48867884 49044760 49301312 49646376 50080840 
1468.584 50598120 51184932 51817412 52461588 53070020 53574188 53895812 
1471.959 53960264 53720892 53181084 52390480 51422908 50346564 49216212 
1475.334 48075428 46962476 45921572 44999016 44231996 43644856 43242840 
1478.709 43015780 42946828 43020208 43228020 43571624 44060296 44705912 
1482.085 45517556 46497008 47638784 48933188 50374100 51963896 53717628 
1485.460 55663408 57835848 60267448 62979676 65979248 69262240 72822424 
1488.835 76659144 80776816 85166656 89798352 94603968 99487312 104342800 
1492.210 109079120 113630984 117935872 121934352 125547720 128656568 
1495.104 131128696 132846264 133757832 133910480 133452848 132594304 
1497.997 131529688 130420328 129380208 128482640 127786664 127340552 
1500.890 127176400 127307904 127717168 128355008 129129992 129908728 
1503.783 130511704 130671936 130039096 128199008 124762632 119586248 
1506.676 112940168 105459400 97833736 90514056 83634056 77123832 70853752 
1510.051 64734176 58748592 52973396 47546064 42601776 38253300 34545704 
1513.426 31455420 28914296 26831682 25118950 23692792 22487562 21458338 
1516.802 20576636 19833418 19229326 18762848 18422236 18181144 17998410 
1520.177 17832046 17650426 17451600 17265482 17139794 17110982 17184916 
1523.552 17340376 17542050 17759244 17973752 18187432 18417674 18687710 
1526.927 19012260 19390474 19808828 20250326 20704018 21169524 21656326 
1530.302 22177144 22741532 23351650 24001182 24678336 25372076 26076460 
1533.678 26792808 27523296 28267602 29017190 29757462 30468112 31128098 
1537.053 31720214 32228448 32641072 32949268 33145130 33220236 33167764 
1540.428 32992344 32713446 32363042 31973794 31564440 31134540 30665878 
1543.803 30135424 29528828 28854342 28142438 27436390 26771488 26158520 
1547.179 25582786 25011608 24411386 23762082 23071258 22370226 21703972 
1550.554 21106910 20589594 20138138 19726678 19331404 18942962 18570012 
1553.929 18233318 17953790 17738672 17577516 17444010 17304996 17121354 
1557.304 16851842 16458934 15922099 15263495 14556100 13894634 13347052 
1560.680 12932414 12634172 12419251 12252694 12102486 11946165 11773558 
1564.055 11589178 11410761 11260741 11157040 11103669 11090549 11098299 
1567.430 11108735 11110230 11103534 11099795 11115941 11166594 11256831 
1570.805 11384297 11543070 11729200 11941533 12180378 12444687 12729594 
1574.181 13026776 13329183 13634433 13950471 14293515 14682481 15126651 
1577.556 15623550 16163867 16738877 17345306 17985804 18666680 19391202 
1580.931 20154278 20940324 21722712 22468232 23145444 23724706 24182954 
1584.306 24503296 24674128 24690436 24554166 24276220 23876120 23381406 
1587.682 22826978 22246818 21669664 21113656 20583096 20071716 19567694 
1591.057 19061246 18547846 18028424 17507034 16987404 16471736 15961869 
1594.432 15463382 14988582 14554592 14181111 13882045 13661034 13510782 
1597.807 13417888 13369842 13360856 13393523 13475988 13616893 13818897 
1601.183 14078422 14388173 14744006 15149295 15616818 16164245 16809580 
1604.558 17565096 18435892 19422142 20522478 21737064 23063814 24494076 
1607.933 26007644 27567672 29126060 30632170 32038960 33315636 34450820 
1611.308 35451836 36339324 37138136 37868716 38539728 39146032 39668192 
1614.684 40078536 40343372 40430712 40319156 40002996 39491468 38802248 
1618.059 37950212 36944440 35788408 34483428 33030990 31432762 29698918 
1621.434 27848654 25917174 23966726 22077114 20333408 18804434 17523176 
1624.809 16484814 15654704 14987347 14436571 13965799 13553989 13193630 
1628.185 12887187 12641268 12460611 12344044 12284835 12271916 12292571 
1631.560 12334396 12384407 12429548 12456110 12448438 12392214 12278120 
1634.935 12109300 11905263 11698463 11522110 11395453 11319404 11280941 
1638.310 11262238 11245474 11217898 11173835 11114581 11046295 10977203 
1641.686 10913730 10857772 10805627 10749242 10678127 10581763 10451206 
1645.061 10281703 10074216 9838425 9592159 9359033 9163153 9020505 8936852 
1648.918 8907631 8920449 8957045 8992935 8999396 8940674 8781971 8508088 
1652.776 8147467 7776114 7475188 7285884 7198085 7177233 7187372 7203407 
1656.633 7211459 7205193 7184172 7150082 7105386 7051534 6988732 6916075 
1660.490 6832120 6735428 6625669 6504603 6377451 6252992 6141776 6053502 
1664.348 5994137 5964003 5957890 5966086 5977272 5978415 5958797 5911401 
1668.205 5834827 5734562 5621498 5510511 5414715 5343227 5299990 5283086 
1672.063 5286172 5298481 5306900 5297441 5257798 5184022 5084041 4977883 
1675.920 4888572 4832917 4814523 4825479 4851278 4878385 4898993 4912297 
1679.778 4924093 4942525 4972855 5013009 5052429 5072911 5055111 4985759 
1683.635 4868567 4728629 4604340 4527058 4505262 4528933 4579828 4641479 
1687.492 4701129 4751709 4789597 4814255 4827355 4833051 4837976 4849703 
1691.350 4874934 4916888 4973559 5037344 5095037 5131949 5135739 5103083 
1695.207 5044618 4985189 4952914 4963170 5013378 5084443 5150927 5185497 
1699.065 5167055 5090176 4972520 4852584 4768123 4738712 4758643 4808693 
1702.922 4865753 4911023 4931734 4921647 4883177 4825512 4762897 4707493 
1706.780 4666697 4641043 4626710 4617936 4609899 4600522 4590744 4583612 
1710.637 4582038 4588166 4601360 4619410 4638766 4656617 4671487 4683209 
1714.494 4692487 4698148 4697042 4683879 4653569 4605411 4545976 4489025 
1718.352 4450594 4441255 4463248 4510385 4572361 4638532 4700760 4755360 
1722.209 4802160 4844443 4886595 4932873 4985692 5046093 5113610 5187509 
1726.067 5266518 5348158 5429142 5505007 5571186 5625325 5667955 5703272 
1729.924 5736510 5772033 5808735 5839260 5848965 5819111 5733857 5589108 
1733.781 5402034 5207863 5047903 4947116 4906365 4908979 4931331 4952579 
1737.639 4955662 4931667 4879960 4808157 4729265 4656449 4599116 4559369 
1741.496 4534056 4516847 4501948 4485242 4465357 4443564 4422609 4405371 
1745.354 4394158 4389573 4391179 4397472 4406409 4416116 4424919 4430944 
1749.211 4432284 4426660 4412601 4390510 4363768 4338801 4323139 4322536 
1753.069 4338232 4367248 4402024 4432518 4449556 4446778 4424216 4387933 
1756.926 4348841 4317516 4299847 4295263 4297605 4298642 4290009 4267288 
1760.783 4230014 4182740 4132795 4087806 4054293 4035899 4033156 4044862 
1764.641 4068039 4098041 4128881 4153970 4168054 4168622 4157784 4141425 
1768.498 4126205 4116070 4109246 4098275 4073323 4025130 3951195 3858651 
1772.356 3763554 3684183 3632424 3610206 3610039 3620730 3632257 3639073 
1776.213 3640878 3640209 3640042 3641579 3642649 3639541 3629083 3610573 
1780.071 3587120 3564636 3549469 3544358 3548601 3557520 3565237 3566841 
1783.928 3559558 3544325 3524215 3502904 3483832 3469303 3461053 3460318 
1787.785 3467967 3484400 3507781 3533836 3556618 3568044 3561963 3535239 
1791.643 3490412 3435537 3380602 3334622 3302669 3284307 3276128 3273757 
1795.500 3273657 3273457 3271721 3268082 3261839 3252725 3240374 3225285 
1799.358 3208262 3190738 3173815 3158528 3144911 3132930 3122517 3113841 
1803.215 3107600 3103962 3102861 3103495 3105030 3106599 3108201 3110336 
1807.073 3113974 3119314 3125154 3128892 3127657 3118980 3102160 3078834 
1810.930 3052807 3028182 3007896 2993449 2984108 2978236 2974166 2971063 
1814.787 2969662 2971130 2976935 2987678 3003692 3023844 3047301 3073228 
1818.645 3100559 3128758 3156893 3184229 3210131 3234465 3257633 3279299 
1822.502 3298630 3313420 3321200 3319898 3309848 3294991 3281703 3276428 
1826.360 3283005 3300533 3323504 3343003 3349982 3338963 3310315 3270920 
1830.217 3230994 3200384 3183862 3179956 3182126 3183094 3177353 3162600 
1834.074 3140172 3113340 3085942 3060515 3037625 3016704 2997553 2980605 
1837.932 2967961 2961989 2964725 2977302 2998954 3027915 3061649 3097054 
1841.789 3130260 3156860 3172547 3174449 3163401 3144644 3127824 3122451 
1845.647 3134966 3166539 3213168 3267782 3323069 3374224 3420274 3463625 
1849.504 3508516 3558155 3613079 3670850 3727225 3778193 3822248 3860456 
1853.362 3895927 3931635 3969385 4009044 4049142 4088843 4128446 4170094 
1857.219 4216932 4271170 4333714 4403229 4477944 4556155 4637695 4723772 
1861.076 4815227 4911459 5009590 5104659 5190929 5264304 5322732 5366474 
1864.934 5396767 5413306 5413910 5394150 5348225 5273024 5170274 5047769 
1868.791 4918496 4796230 4692454 4611640 4552203 4508544 4473793 4442091 
1872.649 4408852 4370796 4325548 4270668 4204720 4127777 4041450 3949556 
1876.506 3856478 3766161 3680274 3598746 3520073 3442650 3366477 3292620 
1880.364 3223383 3160698 3104930 3054542 3007162 2960955 2915954 2874192 
1884.221 2838772 2812725 2797318 2790915 2790615 2792282 2793216 2791582 
1888.078 2787380 2781545 2775709 2771941 2772207 2779477 2795617 2821529 
1891.936 2855348 2892471 2926128 2949512 2958086 2951747 2935168 2915787 
1895.793 2901377 2896673 2901343 2911584 2922025 2928729 2930931 2931532 
1899.651 2934401 2943141 2959053 2980938 3006027 3032853 3061415 3093584 
1903.508 3131128 3174883 3222548 3270452 3314489 3352152 3383874 3412861 
1907.365 3442517 3474914 3509752 3543456 3572286 3593668 3607399 3615852 
1911.223 3622534 3629885 3638639 3647360 3654811 3660425 3665370 3671285 
1915.080 3679405 3688494 3694709 3693506 3681811 3660057 3634162 3612912 
1918.938 3603323 3609137 3627580 3652071 3674426 3688995 3694542 3694208 
1922.795 3693373 3696447 3705269 3717333 3729632 3739591 3748247 3759042 
1926.653 3777324 3806404 3846516 3893754 3942066 3986104 4022588 4051918 
1930.510 4076200 4098342 4119883 4140857 4160593 4179027 4197059 4216966 
1934.367 4239516 4263975 4287366 4305068 4313869 4313769 4308782 4305804 
1938.225 4311192 4328158 4355401 4387565 4418024 4442058 4459298 4473492 
1942.082 4490934 4516545 4551467 4592452 4634446 4672492 4705081 4734055 
1945.940 4763031 4796197 4835262 4879625 4927444 4977380 5029065 5083706 
1949.797 5143249 5207997 5276881 5346179 5412736 5474572 5531786 5585483 
1953.655 5637912 5689172 5737349 5779991 5814645 5841544 5863642 5885909 
1957.512 5913316 5949223 5994103 6046111 6103131 6163553 6226875 6293567 
1961.369 6363195 6432867 6498751 6556099 6603094 6639833 6670282 6697638 
1965.227 6724794 6750874 6772480 6786312 6791428 6790452 6790283 6798866 
1969.084 6820945 6857163 6902979 6952671 7000483 7045338 7089320 7137720 
1972.942 7194447 7261422 7337709 7421728 7513045 7615610 7734321 7872263 
1976.799 8028001 8192203 8349475 8483591 8583209 8643977 8669565 8668449 
1980.656 8649689 8620385 8583750 8541406 8494505 8446426 8402069 8366229 
1984.514 8341976 8329142 8324649 8324413 8326575 8332553 8346806 8375315 
1988.371 8420886 8482780 8555599 8632215 8706918 8778083 8848550 8923425 
1992.229 9008698 9105594 9212157 9322470 9431287 9534339 9630404 9721746 
1996.086 9811278 9902522 9997040 10095886 10199334 10306709 10416417 
1999.461 10525814 10630316 10723906 10801619 10861306 10904726 10938126 
2002.837 10969762 11008197 11058496 11121652 11195934 11277949 11365283 
2006.212 11457196 11555048 11659728 11769337 11881187 11989625 12091788 
2009.587 12187397 12280847 12378304 12487038 12610568 12748736 12898178 
2012.962 13054227 13213578 13375003 13538846 13705897 13874963 14042691 
2016.338 14205213 14359266 14504571 14642795 14778183 14912619 15045657 
2019.713 15172970 15288205 15384521 15456721 15503041 15523747 15521068 
2023.088 15496859 15453424 15392246 15316418 15228182 15131077 15027820 
2026.463 14919855 14807185 14688068 14561410 14426911 14285673 14141094 
2029.839 13997519 13859193 13730554 13615048 13515534 13434942 13375857 
2033.214 13338784 13322725 13323443 13334273 13347770 13358532 13364547 
2036.589 13367246 13370560 13377599 13389559 13404390 13417684 13425612 
2039.964 13425954 13420486 13412386 13405927 13402955 13402238 13399914 
2043.340 13389730 13367827 13331540 13281249 13219761 13151039 13079120 
2046.715 13008236 12942553 12885584 12838859 12800057 12761976 12714105 
2050.090 12643076 12538192 12395146 12217318 12015512 11803587 11596699 
2053.465 11403889 11228201 11065634 10908022 10748054 10581593 10409562 
2056.841 10237260 10070689 9913640 9767288 9629387 9496644 9367530 9242652 
2060.698 9124509 9016952 8922512 8841584 8773079 8714828 8665407 8624374 
2064.555 8591016 8563405 8537182 8506094 8463657 8405515 8331337 8244677 
2068.413 8152700 8061586 7975688 7894970 7816595 7736007 7649837 7557109 
2072.270 7459547 7360254 7261692 7165375 7071336 6979304 6889783 6804150 
2076.128 6723986 6650061 6580690 6512137 6439660 6359496 6271279 6178442 
2079.985 6086699 6002535 5930614 5871635 5823443 5781871 5743056 5704950 
2083.843 5667284 5631064 5596694 5563802 5530477 5494806 5455212 5411864 
2087.700 5365501 5316862 5265378 5208836 5144690 5070565 4986496 4895609 
2091.557 4803031 4715129 4636857 4571222 4518789 4478781 4449523 4429806 
2095.415 4418325 4413103 4411329 4409120 4402627 4389372 4369390 4344959 
2099.272 4319156 4294928 4272508 4250826 4226936 4198999 4167250 4134802 
2103.130 4106035 4085130 4073792 4071383 4074661 4080447 4086535 4092856 
2106.987 4100717 4111153 4123429 4135103 4142228 4141693 4132929 4117909 
2110.844 4100817 4086669 4078307 4075932 4077170 4078842 4078273 4074594 
2114.702 4068540 4061718 4054962 4048306 4040347 4029745 4016168 4000182 
2118.559 3983697 3967813 3952766 3936984 3918160 3894155 3864635 3831039 
2122.417 3796343 3763454 3734110 3708277 3684517 3661494 3639274 3619260 
2126.274 3604058 3595205 3592532 3593000 3592031 3584347 3566741 3538880 
2130.132 3502937 3463424 3426119 3396230 3378565 3376828 3394427 3432798 
2133.989 3490913 3564302 3644620 3722112 3788221 3837858 3871856 3895492 
2137.846 3916422 3940830 3970923 4004730 4037704 4064460 4081819 4089645 
2141.704 4089144 4082020 4068273 4045999 4013258 3969920 3919464 3867878 
2145.561 3822849 3789658 3769336 3758875 3751990 3743100 3729097 3710817 
2149.419 3689196 3665170 3635097 3592866 3531163 3445656 3337460 3214937 
2153.276 3090480 2976701 2883431 2815960 2775509 2764771 2788514 2855815 
2157.134 2977502 3158562 3393458 3663165 3939626 4192810 4400183 4550529 
2160.991 4645698 4695401 4712282 4708766 4694999 4678788 4666530 4663650 
2164.848 4672759 4693793 4721661 4748225 4764907 4764137 4743468 4705282 
2168.706 4654942 4597509 4537773 4477476 4416551 4355501 4296200 4242896 
2172.563 4200572 4174109 4165478 4174042 4197092 4230884 4272575 4319290 
2176.421 4368319 4414944 4454042 4479685 4488121 4480690 4463449 4446845 
2180.278 4441957 4457390 4496658 4556690 4629925 4708732 4786046 4857845 
2184.135 4922786 4979793 5028294 5066642 5093293 5107374 5109788 5102379 
2187.993 5087192 5064564 5034260 4995110 4946748 4891922 4835128 4782930 
2191.850 4740554 4710474 4691013 4677516 4664052 4646938 4625404 4600824 
2195.708 4576111 4553543 4532717 4511959 4489059 4463784 4438376 4417120 
2199.565 4404601 4403898 4413907 4431446 4451398 4468771 4480957 4487887 
2203.423 4490432 4489896 4487485 4484004 4480857 4481426 4489695 4510419 
2207.280 4545540 4594026 4650186 4706354 4755025 4791574 4816030 4831040 
2211.137 4841930 4852987 4865987 4880295 4894704 4907605 4919301 4931432 
2214.995 4945306 4960790 4976274 4988306 4993367 4990049 4978486 4960254 
2218.852 4936794 4908141 4872521 4827355 4771440 4707124 4639871 4577484 
2222.710 4528230 4496993 4484171 4485410 4494650 4505062 4512628 4515976 
2226.567 4515373 4512829 4508778 4503086 4495788 4487218 4478881 4472923 
2230.425 4471483 4475199 4483200 4493344 4503756 4513800 4524346 4537973 
2234.282 4556322 4579594 4605646 4631499 4653904 4671688 4686324 4701196 
2238.139 4719886 4744741 4775158 4808693 4841896 4871616 4896614 4917190 
2241.997 4934549 4949495 4962801 4973894 4983011 4990753 4998697 5008685 
2245.854 5021489 5036037 5049479 5058697 5060977 5056585 5047870 5038819 
2249.712 5033054 5032182 5034964 5038216 5038785 5034629 5026886 5018338 
2253.569 5013009 5013311 5019746 5030003 5040964 5049580 5054239 5055245 
2257.427 5053702 5050853 5046730 5040596 5031076 5017802 5001143 4982542 
2261.284 4964208 4947250 4931968 4917592 4903249 4888572 4874163 4861899 
2265.141 4853590 4850675 4853389 4860760 4871181 4883244 4895843 4908007 
2268.999 4918865 4927009 4930494 4927746 4917759 4901707 4881903 4862134 
2272.856 4846185 4836301 4833654 4837708 4847424 4861396 4878888 4899228 
2276.714 4922015 4946379 4971280 4995513 5018774 5040830 5062720 5085013 
2280.571 5107978 5130340 5150625 5166719 5177349 5182815 5183954 5182680 
2284.428 5180098 5176611 5171347 5163299 5151363 5135437 5116494 5096009 
2288.286 5075190 5055278 5036540 5019311 5004462 4993133 4986698 4986664 
2292.143 4993267 5005534 5021087 5037411 5052462 5065871 5077839 5089941 
2296.001 5102748 5117064 5131648 5145663 5158371 5170039 5182144 5196730 
2299.858 5215442 5239118 5266853 5297475 5329407 5361710 5394620 5429008 
2303.716 5465949 5506148 5549371 5595284 5643249 5693200 5745541 5801213 
2307.573 5860619 5923829 5990038 6057870 6126385 6194507 6261934 6328396 
2311.430 6393188 6455433 6513415 6565956 6612615 6654098 6692927 6731961 
2315.288 6774331 6822729 6878067 6940752 7010181 7085279 7164870 7248013 
2319.145 7333194 7419200 7504583 7588129 7668048 7742719 7809308 7864671 
2323.003 7905228 7927701 7930907 7916734 7890247 7860116 7835926 7826817 
2326.860 7839468 7876345 7935429 8010821 8095713 8182715 8266256 8343328 
2330.718 8412440 8473590 8527214 8573780 8613964 8648405 8678015 8703368 
2334.575 8724970 8742684 8755802 8763815 8766351 8764153 8758845 8752151 
2338.432 8745964 8741096 8737174 8732745 8726390 8716485 8701982 8681936 
2342.290 8654827 8617816 8565838 8492680 8392544 8261021 8099191 7913731 
2346.147 7718300 7530643 7370264 7255729 7200274 7211324 7289793 7430492 
2350.005 7622489 7850467 8098481 8350387 8592875 8817338 9019659 9199296 
2353.862 9357069 9494951 9614448 9717240 9805889 9883336 9952626 10015790 
2357.719 10073131 10122407 10160496 10184545 10192855 10186919 10169892 
2361.095 10145674 10117659 10087272 10054446 10018266 9977985 9933336 
2364.470 9885403 9834595 9781183 9724457 9662927 9595478 9521876 9443172 
2368.327 9361741 9279411 9197164 9114291 9029165 8939829 8845135 8745660 
2372.185 8643200 8540122 8437845 8336640 8235120 8131127 8022669 7908906 
2376.042 7790383 7669093 7547264 7427188 7310515 7198219 7090904 6989069 
2379.900 6893115 6803544 6720453 6643837 6573525 6509312 6451532 6400753 
2383.757 6357513 6322076 6293903 6271716 6253698 6238539 6225900 6216623 
2387.615 6212556 6215581 6226572 6245395 6270102 6298341 6327892 6357042 
2391.472 6385555 6413767 6442082 6470432 6498213 6524313 6548094 6569690 
2395.329 6590177 6611505 6635392 6662813 6693566 6726342 6759355 6790822 
2399.187 6819532 6845012 6867195 6886248 6902239 6915065 6924525 6930720 
2403.044 6933952 6934625 6932908 6928935 6922505 6913348 6901935 6888975 
2406.902 6876149 6865310 6858174 6855884 6858645 6865781 6875913 6887696 
2410.759 6899781 6911126 6921697 6931831 6943109 6957486 6977048 7004087 
2414.616 7039680 7083966 7135497 7191886 7250371 7308696 7365815 7421357 
2418.474 7476368 7531520 7587353 7643497 7699379 7753817 7806035 7855696 
2422.331 7902494 7945789 7985070 8018955 8046194 8065941 8078295 8084506 
2426.189 8086430 8085991 8084810 8083628 8082413 8080792 8078666 8076370 
2430.046 8074514 8074345 8076674 8082109 8090717 8102465 8117184 8134873 
2433.904 8155468 8178393 8203210 8228637 8254166 8279022 8303709 8328804 
2437.761 8355318 8384233 8415380 8448150 8481734 8515184 8548165 8580776 
2441.618 8613761 8647662 8682342 8717567 8752557 8786975 8820822 8854569 
2445.476 8888725 8923492 8958500 8992563 9024091 9051764 9075447 9095172 
2449.333 9111921 9126303 9138891 9149177 9156487 9160344 9160649 9158348 
2453.191 9154693 9151410 9149482 9149651 9151749 9155843 9161834 9169955 
2457.048 9180581 9193949 9209890 9227962 9247560 9268411 9291191 9316850 
2460.906 9346710 9381615 9422009 9466877 9514899 9564857 9615939 9668348 
2464.763 9723135 9781454 9844288 9912319 9985208 10062551 10143843 10228813 
2468.620 10317091 10409120 10504531 10603187 10704684 10808956 10916142 
2471.996 11026752 11141232 11260197 11384263 11513706 11649449 11792931 
2475.371 11946710 12113831 12297548 12500508 12724238 12968975 13233799 
2478.746 13517756 13819171 14137705 14472710 14824465 15192632 15576324 
2482.121 15973695 16381510 16795424 17209460 17616264 18008046 18375776 
2485.497 18710782 19005440 19253258 19449446 19591472 19678034 19710070 
2488.872 19689856 19621492 19510160 19362514 19185620 18986436 18771946 
2492.247 18548434 18321340 18095362 17875064 17664022 17465880 17283550 
2495.622 17119080 16974140 16850120 16748004 16669253 16615992 16590655 
2498.998 16596060 16634893 16709436 16822014 16974208 17167992 17406244 
2502.373 17690700 18023588 18405780 18837098 19314846 19835602 20394418 
2505.748 20985320 21600986 22233114 22870318 23499052 24102916 24662310 
2509.123 25156728 25565636 25868394 26048384 26093032 25995472 25757208 
2512.499 25386690 24901062 24321702 23674458 22986008 22279708 21575948 
2515.874 20890050 20231232 19604922 19012812 18454284 17927132 17428696 
2519.249 16956016 16506186 16076798 15666520 15274717 14902161 14550069 
2522.624 14220037 13913553 13631390 13373738 13140419 12930435 12743277 
2526.000 12577516 12431799 12304058 12192066 12093491 12006247 11929170 
2529.375 11861879 11804710 11758273 11722699 11697509 11681784 11673887 
2532.750 11672118 11675215 11681648 11690191 11700335 11711125 11722120 
2536.125 11733626 11746085 11760077 11776146 11794394 11814006 11833617 
2539.500 11851834 11867498 11880676 11892186 11903117 11914968 11928591 
2542.876 11944223 11961866 11981552 12003829 12029751 12060649 12097409 
2546.251 12140442 12188829 12240867 12294446 12348169 12401079 12453415 
2549.626 12505930 12559985 12616844 12677531 12742799 12812888 12887665 
2553.001 12966688 13048559 13131710 13214261 13294847 13373226 13450458 
2556.377 13528728 13610876 13699913 13797553 13904795 14021132 14145578 
2559.752 14276497 14412593 14552673 14696122 14842704 14992114 15144972 
2563.127 15302312 15465442 15636122 15815424 16003534 16199393 16400503 
2566.502 16604254 16807136 17006632 17200774 17388552 17568994 17741572 
2569.878 17905104 18058264 18199594 18327180 18439590 18535398 18613588 
2573.253 18673734 18716040 18741570 18752158 18750460 18739286 18721228 
2576.628 18698502 18672318 18643712 18613484 18583014 18554070 18529070 
2580.003 18510570 18501200 18503032 18517486 18545980 18589274 18648278 
2583.379 18723548 18815542 18923788 19047708 19186174 19338540 19504476 
2586.754 19684344 19878820 20088788 20314380 20554888 20809188 21075708 
2590.129 21353250 21640514 21936538 22239984 22548458 22858478 23165226 
2593.504 23463096 23746578 24010390 24249906 24461684 24642390 24789142 
2596.880 24899378 24970684 25001464 24990864 24939102 24847554 24718496 
2600.255 24555360 24362108 24143336 23904160 23649614 23384658 23113994 
2603.630 22841610 22571074 22305414 22047236 21799144 21563552 21343192 
2607.005 21140200 20957016 20795286 20656792 20542902 20455196 20395044 
2610.381 20363442 20361014 20387090 20440470 20518690 20618952 20738180 
2613.756 20873154 21020862 21177910 21341000 21506206 21670048 21829386 
2617.131 21981950 22126514 22263350 22393250 22517712 22638126 22755812 
2620.506 22871856 22987370 23103476 23221080 23341092 23463796 23588496 
2623.882 23713580 23836458 23953840 24061448 24154510 24228218 24277060 
2627.257 24295982 24280354 24226048 24130552 23992882 23813566 23594862 
2630.632 23340428 23055114 22743800 22412160 22066132 21711078 21352450 
2634.007 20995648 20644664 20303688 19975742 19662572 19365356 19084060 
2637.383 18818760 18568630 18332606 18110218 17900476 17702710 17516140 
2640.758 17339720 17173092 17014834 16864416 16720731 16583117 16451053 
2644.133 16324362 16202729 16086185 15974967 15868966 15768040 15672497 
2647.508 15582301 15497924 15419367 15347241 15282096 15223652 15172181 
2650.884 15127372 15089325 15057903 15033342 15015266 15003501 14997190 
2654.259 14995544 14997396 15002095 15009127 15018421 15030392 15045417 
2657.634 15063837 15085723 15111076 15139757 15171494 15206357 15244242 
2661.009 15284945 15328191 15373467 15420671 15469288 15519214 15570899 
2664.385 15624924 15681705 15741825 15805459 15872780 15943823 16018728 
2667.760 16097566 16180133 16266190 16355120 16445719 16537199 16628696 
2671.135 16720144 16812026 16904858 16999740 17097400 17198222 17302168 
2674.510 17408658 17517452 17628168 17740986 17856110 17974130 18095362 
2677.885 18220500 18349610 18482806 18620020 18761222 18906102 19054770 
2681.261 19207230 19364004 19525860 19693670 19868380 20050584 20240674 
2684.636 20438350 20643240 20855042 21073726 21299866 21534686 21779808 
2688.011 22037024 22307856 22593726 22895432 23213810 23549036 23901744 
2691.386 24272048 24659714 25064540 25485272 25920762 26368766 26826960 
2694.762 27291742 27758858 28223188 28677894 29115606 29527658 29904428 
2698.137 30236262 30513680 30727362 30870494 30938268 30929124 30845520 
2701.512 30693260 30481440 30220490 29922530 29599232 29261182 28918192 
2704.887 28578586 28249108 27935146 27640548 27367252 27115856 26885154 
2708.263 26673316 26478030 26297122 26129240 25973804 25830592 25699762 
2711.638 25581240 25474062 25377450 25289780 25209748 25136014 25068226 
2715.013 25006026 24949874 24900536 24858676 24825170 24800614 24785002 
2718.388 24778196 24779388 24787422 24801034 24819172 24840606 24865062 
2721.764 24891622 24919940 24949488 24979352 25008834 25037370 25064540 
2725.139 25090796 25117266 25145422 25177162 25214524 25259262 25312960 
2728.514 25376712 25451120 25536258 25631746 25736958 25850706 25971904 
2731.889 26099436 26232460 26370596 26513460 26661268 26813778 26971560 
2735.265 27134442 27302432 27475392 27652624 27833320 28016566 28200984 
2738.640 28385870 28570304 28753930 28936360 29117058 29294502 29466734 
2742.015 29630732 29783296 29921358 30042422 30145120 30228874 30293636 
2745.390 30339682 30367220 30376744 30368962 30345402 30308664 30262088 
2748.766 30209480 30155170 30102610 30054954 30014478 29982916 29961188 
2752.141 29950006 29949756 29960160 29980748 30010856 30049558 30095826 
2755.516 30148672 30206994 30268768 30332080 30393978 30451764 30503016 
2758.891 30546170 30580832 30607638 30628010 30643440 30655246 30664242 
2762.267 30670822 30675550 30679674 30684582 30692298 30704744 30723450 
2765.642 30749162 30782134 30822576 30870920 30927986 30995342 31074918 
2769.017 31168180 31276308 31400028 31539426 31694266 31864490 32049980 
2772.392 32250576 32465826 32694728 32935974 33187974 33449318 33718840 
2775.768 33996128 34281048 34573764 34873676 35180268 35491816 35806832 
2779.143 36123260 36439416 36753892 37065128 37371900 37672416 37964928 
2782.518 38247112 38517024 38772976 39013668 39239372 39450644 39649276 
2785.893 39837392 40017384 40191448 40361876 40530404 40699040 40869808 
2789.269 41045020 41226892 41417772 41619020 41831420 42054212 42285012 
2792.644 42520496 42756224 42986660 43207484 43413848 43602544 43771968 
2796.019 43922180 44055676 44176380 44290512 44405080 44527200 44664524 
2799.394 44823708 45010480 45229068 45482676 45772804 46099676 46462272 
2802.770 46858380 47285484 47740372 48220540 48723188 49246048 49786744 
2806.145 50342172 50909084 51482928 52058876 52631996 53197264 53749876 
2809.520 54285136 54798460 55284548 55738252 56154044 56526980 56853028 
2812.895 57128972 57353140 57524008 57640832 57703116 57710796 57664364 
2816.271 57565504 57417160 57223540 56989804 56721952 56426492 56109892 
2819.646 55778976 55440448 55100604 54765724 54441276 54131940 53841460 
2823.021 53572616 53327764 53107840 52913620 52745120 52601592 52482040 
2826.396 52385172 52310488 52257344 52226028 52217244 52231484 52269116 
2829.771 52329624 52412536 52516588 52640264 52782832 52943040 53120196 
2833.147 53313004 53520780 53742380 53977184 54225440 54488156 54767112 
2836.522 55064456 55381948 55721376 56083876 56471392 56886112 57332116 
2839.897 57814916 58340848 58917240 59551020 60248832 61017124 61862460 
2843.272 62792404 63815876 64942212 66181056 67539168 69017824 70609880 
2846.648 72296312 74046536 75813656 77540464 79162152 80608488 81816968 
2850.023 82737328 83336896 83607064 83561720 83236304 82678328 81946280 
2853.398 81102424 80203336 79303320 78448896 77674808 77008264 76465448 
2856.773 76052736 75768368 75604408 75549008 75588040 75707304 75893952 
2860.149 76135640 76421160 76740464 77082840 77438552 77797696 78149904 
2863.524 78486016 78796680 79073928 79311872 79507720 79662368 79781040 
2866.899 79872752 79948824 80020920 80099880 80194440 80309800 80448544 
2870.274 80611320 80796776 81002760 81226528 81465448 81716936 81979256 
2873.650 82250976 82531528 82820240 83116168 83416792 83719184 84019224 
2877.025 84312744 84597088 84871424 85137952 85400728 85666336 85941992 
2880.400 86235448 86553888 86904216 87291808 87721184 88194672 88713128 
2883.775 89274936 89876760 90513856 91180416 91870352 92577144 93293624 
2887.151 94012976 94728072 95431648 96118664 96785696 97431656 98057552 
2890.526 98666184 99260928 99844776 100420632 100990656 101557024 102122752 
2893.901 102691192 103265632 103850592 104449792 105067704 105709160 
2896.794 106378952 107082248 107823888 108607392 109434672 110305144 
2899.687 111216224 112163240 113139968 114139192 115152256 116169120 
2902.580 117179120 118170296 119131696 120054384 120932368 121763016 
2905.473 122546960 123287040 123986760 124650040 125281256 125884784 
2908.366 126466648 127034320 127595592 128159032 128732104 129319384 
2911.260 129922744 130540248 131165800 131788168 132391024 132953808 
2914.153 133451136 133855952 134143936 134295024 134298144 134151968 
2917.046 133865688 133455424 132941392 132345808 131687864 130981816 
2919.939 130237120 129456240 128637312 127774880 126863880 125901968 
2922.832 124893456 123849424 122789208 121737840 120720344 119760832 
2925.725 118877888 118082576 117379704 116768400 116244320 115800656 
2928.618 115429088 115120600 114864848 114652224 114473984 114323152 
2931.511 114195904 114090536 114006440 113943032 113897936 113866408 
2934.404 113842728 113819768 113791528 113753544 113702016 113634216 
2937.297 113547360 113438408 113304624 113144312 112957368 112746096 
2940.190 112513896 112264832 112002096 111727224 111440408 111140592 
2943.083 110826152 110495264 110146184 109777000 109385096 108968344 
2945.976 108524680 108053592 107556736 107038448 106505536 105966416 
2948.869 105431480 104912176 104420552 103970768 103577600 103255800 
2951.762 103019840 102881624 102849128 102926512 103112800 103402712 
2954.656 103785200 104245192 104761888 105308120 105854536 106368744 
2957.549 106819752 107183544 107444952 107600416 107657304 107632720 
2960.442 107549480 107431288 107301376 107179688 107079744 107011024 
2963.335 106976344 106973040 106992832 107023016 107048288 107051712 
2966.228 107018608 106937048 106799584 106604376 106354104 106056384 
2969.121 105721544 105362848 104994832 104630584 104281680 103956456 
2972.014 103658896 103389088 103144192 102919584 102709872 102509576 
2974.907 102313896 102118144 101917952 101709728 101489920 101256888 
2977.800 101010304 100751488 100483056 100207864 99929224 99650336 99374792 
2981.175 99107256 98853064 98618824 98410848 98234696 98093472 97987792 
2984.551 97915720 97873128 97854864 97855528 97868856 97888320 97907080 
2987.926 97916752 97908288 97872584 97800032 97682104 97511608 97283176 
2991.301 96994016 96644728 96240064 95788056 95300864 94792168 94274920 
2994.676 93760352 93255880 92764456 92285808 91817424 91356416 90900432 
2998.052 90448392 90000496 89557984 89122640 88696096 88280696 87878832 
3001.427 87492656 87124408 86775608 86446696 86136936 85845288 85569848 
3004.802 85309264 85062744 84829568 84608880 84399416 84198664 84003704 
3008.177 83810680 83615816 83415224 83206336 82986752 82755088 82510648 
3011.552 82253584 81984856 81706016 81419200 81126784 80830936 80533976 
3014.928 80238208 79946192 79661368 79387200 79127160 78884080 78659088 
3018.303 78450880 78256704 78072216 77892352 77712168 77527792 77335688 
3021.678 77133336 76918304 76688200 76440712 76173704 75885152 75573768 
3025.053 75238768 74879608 74496680 74090976 73664144 73218704 72757736 
3028.429 72284656 71801768 71311104 70813192 70308096 69795184 69274136 
3031.804 68744776 68207768 67663640 67113000 66556564 65995140 65430200 
3035.179 64864264 64300792 63743920 63197612 62665196 62148072 61646612 
3038.554 61159648 60686036 60224204 59773628 59333768 58904488 58485372 
3041.930 58075944 57675412 57283076 56898612 56521772 56152156 55789036 
3045.305 55430396 55074424 54718176 54359520 53997556 53632444 53265208 
3048.680 52897604 52530348 52164004 51797964 51431080 51062564 50692092 
3052.055 50319664 49946068 49571424 49195576 48817868 48436896 48051740 
3055.431 47662084 47268780 46873888 46479564 46088292 45702016 45321664 
3058.806 44947676 44580288 44219412 43865872 43519944 43182744 42854948 
3062.181 42537052 42229644 41933332 41648380 41375968 41116988 40872468 
3065.556 40643004 40428896 40229688 40044232 39871424 39709540 39557228 
3068.932 39413636 39278072 39150564 39031356 38921244 38820940 38730916 
3072.307 38651664 38583216 38525680 38478716 38441976 38415112 38397304 
3075.682 38387820 38385612 38389416 38397884 38409828 38423980 38439260 
3079.057 38454644 38468944 38481432 38490848 38496932 38499680 38499428 
3082.433 38497148 38493380 38488492 38482192 38473652 38462104 38446496 
3085.808 38426952 38404112 38379424 38354340 38330380 38308524 38289016 
3089.183 38271716 38256232 38241904 38228332 38214980 38201268 38186180 
3092.558 38169140 38149392 38126168 38099396 38069520 38036932 38002464 
3095.934 37966920 37931228 37896484 37863544 37833468 37806792 37783948 
3099.309 37764900 37749536 37737468 37728576 37723152 37721564 37724384 
3102.684 37732080 37744692 37762260 37784596 37811960 37845144 37884984 
3106.059 37933112 37990352 38057476 38134484 38220952 38316520 38420688 
3109.435 38533460 38654740 38784132 38921352 39065144 39214384 39367888 
3112.810 39524524 39683364 39843532 40003612 40161828 40315664 40462680 
3116.185 40600760 40728772 40846440 40954348 41053032 41142560 41222668 
3119.560 41292040 41349544 41394704 41427800 41450692 41465528 41475188 
3122.936 41481932 41487652 41493052 41498552 41504348 41510220 41516200 
3126.311 41522324 41528484 41534428 41540008 41544860 41548612 41550984 
3129.686 41551564 41549524 41544456 41535596 41522796 41506392 41487036 
3133.061 41465196 41441540 41415624 41386284 41352028 41311284 41263072 
3136.437 41207440 41145400 41078528 41008496 40936252 40862128 40785688 
3139.812 40706136 40623100 40536048 40445444 40352024 40256912 40160920 
3143.187 40064616 39968228 39872224 39776748 39682312 39589420 39498652 
3146.562 39410404 39325152 39242964 39163836 39087476 39013668 38941756 
3149.938 38871308 38801956 38733380 38665464 38598424 38532592 38468292 
3153.313 38405700 38344968 38285580 38227428 38170228 38113648 38057656 
3156.688 38002104 37946996 37892328 37837876 37783512 37729296 37675524 
3160.063 37622296 37569908 37518320 37467568 37417436 37367492 37317372 
3163.438 37266576 37214880 37161996 37107568 37051632 36994192 36935312 
3166.814 36875648 36815308 36754648 36693784 36632384 36570168 36507060 
3170.189 36442768 36378304 36313964 36251072 36190456 36132624 36077572 
3173.564 36024684 35973532 35922992 35872284 35820648 35767396 35711956 
3176.939 35654256 35594264 35533024 35471612 35410960 35352584 35296764 
3180.315 35243436 35191944 35141032 35090128 35039012 34987976 34937984 
3183.690 34890264 34845636 34804748 34767556 34733996 34703916 34677324 
3187.065 34654356 34635124 34619584 34607312 34597088 34587724 34577744 
3190.440 34565908 34551592 34534980 34516864 34499212 34483824 34473204 
3193.816 34468972 34472236 34482316 34497632 34515788 34534188 34551232 
3197.191 34566984 34583020 34601784 34625968 34657516 34696380 34740852 
3200.566 34787696 34834112 34877484 34916800 34952744 34986968 35021344 
3203.941 35057256 35095120 35134496 35174480 35214040 35252420 35288788 
3207.317 35322784 35354092 35382096 35406828 35428180 35446728 35463412 
3210.692 35479052 35494620 35510188 35525508 35540288 35554060 35566468 
3214.067 35578264 35589700 35601676 35614228 35626920 35639368 35650340 
3217.442 35659188 35665516 35669440 35671416 35672172 35672676 35673464 
3220.818 35675120 35678464 35683684 35691164 35701020 35713252 35727428 
3224.193 35743148 35759516 35776208 35792688 35808632 35824100 35839284 
3227.568 35854760 35871820 35891648 35915796 35945636 35981880 36024932 
3230.943 36074220 36128480 36186384 36245992 36305824 36364292 36420752 
3234.319 36474192 36524716 36572296 36617964 36662744 36707920 36754612 
3237.694 36803512 36855124 36908976 36964500 37021180 37078156 37134456 
3241.069 37188816 37239856 37285816 37325172 37356840 37380996 37398944 
3244.444 37412924 37426000 37440660 37458356 37479600 37503364 37528216 
3247.820 37552604 37575724 37597620 37618896 37640796 37663852 37688712 
3251.195 37715312 37743248 37772088 37801840 37832420 37864452 37898184 
3254.570 37934228 37973104 38014836 38059536 38107320 38158108 38211688 
3257.945 38267992 38326400 38386516 38447476 38508840 38569492 38629064 
3261.321 38686904 38742904 38797428 38850724 38903668 38956364 39009424 
3264.696 39062096 39113904 39163692 39210612 39254244 39294428 39331644 
3268.071 39366328 39398724 39428908 39456668 39481380 39502428 39519628 
3271.446 39532980 39542348 39548080 39550476 39549568 39545684 39539404 
3274.822 39531132 39521984 39512768 39504348 39497092 39491536 39487296 
3278.197 39484464 39482468 39480904 39479200 39476336 39471544 39463668 
3281.572 39452640 39437872 39420384 39400900 39380728 39361212 39342928 
3284.947 39326496 39311840 39298708 39286848 39275752 39264944 39253988 
3288.323 39242600 39230704 39218520 39206224 39194404 39183124 39172536 
3291.698 39162312 39151724 39140448 39128008 39114884 39101868 39089688 
3295.073 39078920 39069420 39060180 39050100 39037628 39022152 39003628 
3298.448 38982968 38961112 38939184 38917152 38894936 38871308 38845436 
3301.823 38816812 38785940 38754172 38723200 38695052 38671108 38651988 
3305.199 38637576 38627144 38619468 38613668 38608892 38604688 38601068 
3308.574 38598316 38597084 38597700 38600308 38604872 38610920 38617908 
3311.949 38625404 38633264 38642248 38653040 38667020 38685380 38709108 
3315.324 38738700 38774240 38815144 38861632 38913164 38969484 39030344 
3318.700 39095088 39162712 39232336 39302552 39372348 39441100 39508628 
3322.075 39575120 39640780 39706344 39771664 39836852 39901428 39964776 
3325.450 40026392 40085584 40142276 40196576 40248808 40299740 40350096 
3328.825 40400312 40450392 40499780 40547432 40592248 40632924 40668472 
3332.201 40698344 40722000 40739068 40749004 40751336 40745584 40731900 
3335.576 40710976 40684264 40653192 40619204 40583152 40544668 40503124 
3338.951 40457188 40405764 40348388 40285164 40216712 40143400 40065924 
3342.326 39984284 39898592 39808960 39715676 39619220 39520100 39418716 
3345.702 39315396 39210000 39102160 38992212 38880220 38766996 38653292 
3349.077 38539580 38425828 38311816 38196856 38080588 37963084 37844748 
3352.452 37726296 37608424 37491372 37375148 37259136 37142976 37026268 
3355.827 36909520 36793272 36678460 36565768 36455416 36346892 36239544 
3359.203 36132300 36024252 35914932 35804132 35692244 35579700 35467152 
3362.578 35355532 35245372 35137368 35031504 34927720 34825496 34724520 
3365.953 34624464 34525008 34426932 34330532 34236516 34145536 34057476 
3369.328 33972012 33888644 33806728 33725644 33645116 33564672 33483926 
3372.704 33402116 33318464 33232394 33143446 33051800 32958244 32863632 
3376.079 32769256 32675616 32583494 32492928 32403774 32315888 32229162 
3379.454 32143738 32059756 31977180 31895726 31815254 31735220 31655204 
3382.829 31575020 31494498 31413350 31331826 31249924 31167574 31085384 
3386.205 31003742 30923468 30845272 30769542 30696600 30626410 30558362 
3389.580 30491890 30426282 30360896 30295696 30231148 30167744 30106728 
3392.955 30049310 29995838 29946100 29899172 29852356 29803204 29749018 
3396.330 29688026 29619948 29546312 29469640 29392592 29317614 29245624 
3399.706 29176624 29109440 29042942 28976276 28909834 28844214 28780482 
3403.081 28719024 28659452 28600206 28539376 28474910 28405928 28332178 
3406.456 28254660 28174396 28092664 28010170 27926984 27843212 27758152 
3409.831 27672012 27585148 27497914 27411474 27326320 27243018 27161672 
3413.207 27082282 27004174 26926998 26849870 26772334 26693576 26613320 
3416.582 26531740 26449224 26366126 26283148 26200574 26118084 26035366 
3419.957 25951890 25866882 25780554 25693118 25605348 25518124 25432464 
3423.332 25349034 25267972 25189066 25112176 25036598 24962228 24888990 
3426.708 24817242 24747818 24681388 24618686 24559706 24503926 24449908 
3430.083 24396070 24340940 24283472 24223630 24162394 24101516 24042958 
3433.458 23988260 23938226 23892748 23851090 23811956 23773842 23735554 
3436.833 23695384 23652588 23606162 23555262 23499402 23438196 23371406 
3440.208 23299382 23221848 23139190 23051586 22959598 22863962 22765834 
3443.584 22665528 22562698 22456334 22344238 22224534 22095940 21959784 
3446.959 21818620 21677256 21540432 21411760 21292174 21180136 21072126 
3450.334 20963936 20852190 20735782 20614992 20491456 20367194 20243104 
3453.709 20119572 19995900 19871604 19746998 19622740 19500872 19382574 
3457.085 19268914 19159336 19053004 18948568 18844710 18740948 18637244 
3460.460 18533322 18429220 18324172 18217838 18110044 18001622 17894090 
3463.835 17788966 17687316 17589142 17492854 17396588 17298652 17197980 
3467.210 17095816 16994088 16895692 16803346 16717976 16639300 16565492 
3470.586 16494244 16423145 16350716 16275788 16198086 16117683 16035093 
3473.961 15950870 15866250 15782334 15700942 15623275 15550567 15482610 
3477.336 15419058 15358707 15300184 15242217 15184121 15125210 15065380 
3480.711 15004736 14943414 14882203 14821619 14762448 14705479 14650745 
3484.087 14597765 14545512 14492443 14436913 14377726 14313754 14244346 
3487.462 14169369 14088450 14001318 13908354 13809970 13707163 13601679 
3490.837 13495538 13390413 13287467 13187277 13089330 12992873 12896472 
3494.212 12798829 12698513 12594366 12485947 12372952 12256511 12138125 
3497.588 12020350 11905467 11795109 11689817 11588361 11488801 11388379 
3500.963 11284648 11176793 11065226 10951888 10839699 10732295 10632149 
3504.338 10541057 10459318 10386282 10319636 10256156 10192109 10123967 
3507.713 10048308 9963916 9871337 9773389 9673905 9577153 9485943 9401219 
3511.571 9322064 9245969 9170665 9094395 9017088 8939897 8864782 8793636 
3515.428 8727100 8664325 8604129 8544312 8483152 8419839 8354407 8287904 
3519.286 8221883 8157696 8096422 8039038 7985003 7933573 7883465 7833396 
3523.143 7781646 7727676 7670712 7610821 7547905 7482031 7413268 7341315 
3527.000 7266409 7188719 7110000 7032103 6956846 6885979 6819902 6758682 
3530.858 6701272 6646629 6594247 6543587 6494513 6446824 6399812 6352166 
3534.715 6302812 6250707 6195851 6139054 6081995 6026523 5973678 5923594 
3538.573 5875866 5829353 5783180 5737450 5692596 5649560 5609146 5571622 
3542.430 5536686 5503027 5468801 5431960 5390526 5342187 5285501 5220204 
3546.288 5147775 5071402 4996082 4927276 4869070 4822966 4787654 4758509 
3550.145 4729600 4695267 4652296 4600757 4543833 4486314 4432651 4384820 
3554.002 4342281 4302558 4262336 4219441 4173707 4126907 4081384 4039377 
3557.860 4001754 3967445 3934343 3900474 3864535 3826727 3788789 3753294 
3561.717 3722246 3697149 3678402 3664468 3653040 3640143 3621131 3590895 
3565.575 3544793 3479857 3396864 3300299 3198748 3101460 3017004 2949979 
3569.432 2901010 2866954 2842540 2822463 2802120 2778743 2751800 2721824 
3573.290 2690550 2659379 2629876 2602809 2578543 2556811 2536880 2517450 
3577.147 2496788 2473462 2445837 2413417 2376268 2335359 2292221 2249287 
3581.004 2208522 2172324 2142754 2121677 2110123 2107859 2113320 2122542 
3584.862 2130201 2129601 2114352 2080291 2026360 1956192 1877184 1799056 
3588.719 1730388 1676800 1639947 1617730 1605325 1596612 1586236 1569376 
3592.577 1543705 1509024 1467564 1423083 1379803 1341513 1310105 1285579 
3596.434 1266272 1249889 1233807 1216063 1195131 1170212 1141143 1107657 
3600.292 1070686 1031194 991175 953218 919946 893350 874491 863203 857925 
3604.631 856231 854638 849924 838603 817788 785788 742505 690034 632027 
3608.971 574261 521212 475800 437821 404821 372254 336142 294661 248907 
3613.310 204054 166199 141273 132456 138290 153835 171336 182209 178761 
3617.650 156387 114194 55635 -12425 -81468 -143281 -192234 -225517 -243301 
3621.990 -248169 -242738 -230054 -211443 -187564 -157987 -122379 -82197 
3625.847 -41614 -7256 10106 -1292 -50692 -139968 -259494 -389680 -506919 
3630.187 -594349 -646824 -668957 -671207 -665881 -662903 -668163 -683381 
3634.044 -706737 -733961 -760885 -784964 -805668 -823725 -841153 -858812 
3637.901 -877330 -896244 -914629 -931921 -947989 -962867 -977083 -990571 
3641.759 -1002604 -1012257 -1017942 -1018339 -1012620 -1000323 -982405 
3645.134 -960387 -937079 -915389 -899485 -893500 -901866 -928119 -974504 
3648.991 -1039891 -1120042 -1207249 -1290606 -1359612 -1406182 -1426493 
3652.367 -1422332 -1399577 -1367671 -1336853 -1316934 -1315646 -1335433 
3655.742 -1373617 -1421507 -1467839 -1503139 -1521794 -1524337 -1515191 
3659.117 -1500761 -1486728 -1477647 -1475665 -1480685 -1491317 -1504889 
3662.492 -1519285 -1532228 -1541605 -1546095 -1544213 -1534770 -1517271 
3665.868 -1491780 -1459220 -1422266 -1384450 -1350132 -1323971 -1308081 
3669.243 -1300781 -1294438 -1275607 -1230477 -1147571 -1022736 -858614 
3672.618 -664756 -455652 -248533 -66329 66306 128247 108693 13055 -140233 
3676.958 -328002 -532501 -742561 -950899 -1151173 -1335268 -1494322 -1621068 
3680.815 -1712960 -1773749 -1810607 -1832648 -1846538 -1854787 -1855578 
3684.190 -1845482 -1821694 -1784935 -1740253 -1695435 -1660085 -1642195 
3687.566 -1645232 -1667512 -1702300 -1740913 -1776487 -1805657 -1829018 
3690.941 -1848782 -1866400 -1881873 -1894145 -1901964 -1905065 -1904273 
3694.316 -1902030 -1899918 -1898995 -1898500 -1895927 -1888570 -1874450 
3697.691 -1853929 -1830107 -1807373 -1791238 -1785760 -1792888 -1810772 
3701.067 -1835452 -1860692 -1880619 -1891209 -1891242 -1881510 -1864189 
3704.442 -1841754 -1816249 -1788796 -1760186 -1731178 -1702696 -1676127 
3707.817 -1653352 -1636220 -1626581 -1626053 -1636781 -1659854 -1696161 
3711.192 -1744148 -1800213 -1857426 -1908463 -1945837 -1965002 -1965661 
3714.568 -1950686 -1925254 -1895696 -1867489 -1844295 -1827270 -1815556 
3717.943 -1806944 -1799157 -1790875 -1782361 -1774376 -1767809 -1762991 
3721.318 -1758635 -1752728 -1743322 -1730122 -1714313 -1698405 -1686391 
3724.693 -1681044 -1683817 -1693620 -1707284 -1719858 -1726360 -1723422 
3728.069 -1709759 -1686721 -1657511 -1626383 -1598257 -1576370 -1562570 
3731.444 -1556528 -1555637 -1556462 -1557716 -1560358 -1568644 -1589113 
3734.819 -1626515 -1681705 -1749428 -1819648 -1880487 -1923505 -1945309 
3738.194 -1947421 -1934226 -1909485 -1875275 -1832285 -1780051 -1720650 
3741.570 -1659491 -1607072 -1577690 -1585581 -1638795 -1731574 -1842051 
3744.945 -1937327 -1991289 -1995148 -1956590 -1892628 -1821496 -1759427 
3748.320 -1716987 -1699197 -1705468 -1731508 -1771538 -1819747 -1871811 
3751.695 -1923043 -1967377 -1998513 -2010782 -2002206 -1975524 -1936601 
3755.071 -1893156 -1851487 -1816447 -1789621 -1771076 -1760087 -1757051 
3758.446 -1763354 -1780678 -1808726 -1843239 -1876000 -1897114 -1898995 
3761.821 -1878508 -1839016 -1789027 -1739824 -1701013 -1679328 -1675103 
3765.196 -1683883 -1697184 -1707383 -1710023 -1705468 -1697481 -1690979 
3768.572 -1690517 -1697910 -1711970 -1729363 -1745765 -1757513 -1763387 
3771.947 -1763288 -1758899 -1752365 -1745501 -1740187 -1737349 -1736722 
3775.322 -1737646 -1738834 -1739362 -1738801 -1738240 -1739626 -1745435 
3778.697 -1757117 -1774574 -1795725 -1816348 -1832516 -1841028 -1841259 
3782.073 -1834166 -1822122 -1807835 -1793416 -1780414 -1769459 -1760747 
3785.448 -1754378 -1750385 -1748603 -1748273 -1748537 -1748339 -1746953 
3788.823 -1744577 -1741837 -1739989 -1739263 -1738834 -1736326 -1728901 
3792.198 -1714412 -1693323 -1668667 -1646651 -1633678 -1635230 -1652889 
3795.573 -1682794 -1716558 -1742860 -1752365 -1740649 -1709957 -1668238 
3798.949 -1627076 -1598984 -1593570 -1615391 -1660415 -1716657 -1766753 
3802.324 -1794933 -1793416 -1763849 -1715633 -1661604 -1615688 -1589476 
3805.699 -1590070 -1617800 -1665201 -1719264 -1764674 -1791502 -1796484 
3809.074 -1782790 -1756259 -1723125 -1687283 -1649622 -1609350 -1565442 
3812.450 -1518856 -1472892 -1434254 -1410674 -1409584 -1433627 -1479331 
3815.825 -1534704 -1583303 -1611000 -1610109 -1582180 -1535992 -1484911 
3819.200 -1442510 -1420714 -1426824 -1460013 -1510667 -1563032 -1602384 
3822.575 -1619550 -1614499 -1593306 -1565673 -1540845 -1525426 -1521893 
3825.951 -1528662 -1540680 -1551477 -1555802 -1551609 -1539822 -1523874 
3829.326 -1507299 -1493332 -1483128 -1476095 -1470712 -1464801 -1456347 
3832.701 -1444162 -1427748 -1407371 -1383823 -1359050 -1336292 -1320106 
3836.076 -1315018 -1325358 -1352345 -1393632 -1441949 -1488412 -1524337 
3839.452 -1544312 -1547085 -1536091 -1516544 -1495016 -1477217 -1467905 
3842.827 -1468830 -1480321 -1499936 -1523874 -1547184 -1564980 -1573068 
3846.202 -1569272 -1552797 -1524403 -1485902 -1439472 -1386465 -1328397 
3849.577 -1266720 -1203746 -1144662 -1097568 -1073936 -1085637 -1141820 
3852.953 -1241479 -1368332 -1496535 -1599479 -1661339 -1680219 -1664277 
3856.328 -1625492 -1575247 -1522521 -1473519 -1431678 -1398487 -1373980 
3859.703 -1357267 -1346631 -1340024 -1335268 -1331667 -1329553 -1331436 
3863.078 -1340586 -1359414 -1386762 -1417543 -1442081 -1450568 -1436005 
3866.454 -1397298 -1340982 -1279638 -1227371 -1197964 -1199087 -1229188 
3869.829 -1276202 -1321790 -1349868 -1352147 -1330874 -1296024 -1260311 
3873.204 -1235069 -1225785 -1232426 -1248648 -1265630 -1275178 -1273229 
3876.579 -1260113 -1240190 -1219837 -1205530 -1202953 -1214518 -1239496 
3879.955 -1272898 -1306661 -1331700 -1340421 -1329751 -1301871 -1263780 
3883.330 -1225487 -1198162 -1191190 -1208339 -1245873 -1292059 -1331766 
3886.705 -1350892 -1342601 -1309006 -1258725 -1203647 -1156130 -1126189 
3890.080 -1119017 -1133889 -1164556 -1201664 -1235234 -1257932 -1266291 
3893.456 -1260972 -1244221 -1218978 -1188447 -1155105 -1121496 -1090099 
3896.831 -1063393 -1043594 -1032256 -1029611 -1034735 -1045147 -1058336 
3900.206 -1071491 -1083522 -1094230 -1105004 -1117365 -1132964 -1151933 
3903.581 -1173082 -1194197 -1212469 -1226082 -1233847 -1236259 -1234904 
3906.957 -1231137 -1226446 -1220763 -1214121 -1205795 -1195155 -1182004 
3910.332 -1167167 -1151338 -1135409 -1119777 -1103616 -1086331 -1067161 
3913.707 -1046073 -1024454 -1004918 -989976 -982207 -982604 -990571 -1003530 
3917.564 -1018042 -1030834 -1039561 -1042734 -1039726 -1030504 -1015364 
3920.940 -994934 -971033 -946601 -925011 -910628 -906561 -913703 -930268 
3924.797 -951924 -972851 -987199 -991959 -986438 -972884 -954866 -936219 
3928.655 -920150 -908214 -901039 -898824 -901568 -909239 -921804 -938699 
3932.512 -957974 -976917 -992819 -1003001 -1006736 -1004984 -999497 -992720 
3936.369 -986174 -980322 -974504 -966603 -955164 -939228 -919787 -899220 
3940.227 -880769 -867774 -862847 -866782 -878256 -893996 -909768 -921076 
3944.084 -924217 -918299 -903883 -884076 -862913 -845486 -835432 -835432 
3947.942 -845651 -864236 -887548 -911223 -931623 -946072 -953511 -954238 
3951.799 -949444 -940980 -930367 -919225 -908743 -899783 -893434 -890293 
3955.656 -890789 -895087 -902362 -911950 -922101 -931061 -936980 -938732 
3959.514 -935591 -928020 -917208 -904742 -892574 -882059 -873660 -867609 
3963.371 -863178 -859705 -856762 -854414 -853025 -853092 -854943 -858581 
3967.229 -863475 -869196 -875049 -880406 -885333 -888904 -890326 -888672 
3971.086 -883018 -873131 -859639 -844560 -830604 -820683 -816714 -818930 
3974.944 -826173 -835532 -844031 -849123 -849421 -845122 -837648 -828454 
3978.801 -819360 -811390 -805238 -800906 -798623 -798094 -799450 -801997 
3982.658 -804709 -807057 -808082 -807256 -805040 -802030 -799285 -797400 
3986.516 -796606 -796242 -795680 -793927 -790983 -786882 -782847 -779341 
3990.373 -777489 -777291 -778779 -781557 -785229 -789363 -793828 -798326 
3994.231 -802361 -805602 -807652 -808082 -807355 -805437 -802824 -799384 
3998.088 -795118 -789528 -782384 -773917 -764888 -756288 
##END=
