
##TITLE=Z235b_3_b
##JCAMP-DX=5.01  $$ Nicolet v. 1
##DATATYPE=INFRARED SPECTRUM
##ORIGIN=UniL
##OWNER=Nicolet
##LONGDATE=2011/09/22
##TIME=11:31:59
##SPECTROMETER/DATA SYSTEM=Nicolet iS5
##DATA PROCESSING=
Ratio against background
%Transmittance->Absorbance
Truncated
ElementMultiply or ElementDivide
##COMMENTS=
Number of sample scans: 32
Collection length: 51.16 sec
Sample gain: 2.0
Background collected on: Jeu Sep 22 11:28:50 2011 (GMT+02:00);
Number of background scans: 32
Background gain: 2.0
Sample spacing:  1.000
Number of scan points: 12415
Resolution points: 8192
Number of FFT points: 65536
Apodization: N-B fort;
Phase correction: Mertz;
Laser frequency: 15798.0 cm-1
Number of rejected sample scans: 0
Number of rejected background scans: 0
Bench serial number: ASB1000141;
##RESOLUTION=4.000
##XUNITS=1/CM
##YUNITS=ABSORBANCE
##FIRSTX=649.893372
##LASTX=4000.122314
##FIRSTY=0.120587
##MAXX=4000.122314
##MINX=649.893372
##MAXY=0.259674
##MINY=-0.000999
##XFACTOR=1.000000
##YFACTOR=1.000000E-009
##NPOINTS=6950
##DELTAX=0.482117
##ZPD=6100
##XYDATA=(X++(Y..Y))
649.893 120587360 119262848 118165504 117301600 116638520 116125560 
652.786 115714488 115380512 115126688 114974552 114944584 115041520 
655.679 115248288 115534000 115867144 116229648 116621840 117054160 
658.571 117534808 118058176 118603944 119144072 119660008 120150064 
661.464 120631928 121132544 121676360 122272624 122914504 123584872 
664.357 124266720 124950224 125626968 126281992 126880032 127356112 
667.250 127633408 127668304 127497672 127231328 126997608 126877072 
670.142 126878528 126963080 127067568 127135144 127125784 127030016 
673.035 126864376 126658888 126437872 126208040 125957552 125667408 
675.928 125324936 124931448 124502024 124054472 123599584 123133904 
678.820 122645080 122120200 121557016 120967784 120371912 119785368 
681.713 119210080 118630592 118023088 117365504 116651912 115895272 
684.606 115123320 114365360 113639592 112949368 112285688 111638056 
687.498 111002640 110387424 109807200 109276632 108800128 108370712 
690.391 107973072 107594048 107228928 106885640 106578328 106320616 
693.284 106117720 105963504 105845824 105755064 105692376 105672352 
696.177 105718504 105851656 106082696 106406336 106804192 107252600 
699.069 107733096 108238056 108771144 109339960 109948840 110592584 
701.962 111257448 111925816 112582592 113222048 113845176 114456392 
704.855 115056200 115637600 116187256 116692744 117147832 117557096 
707.747 117934480 118296888 118656808 119018072 119379280 119740968 
710.640 120112880 120520840 121000800 121589376 122311752 123165848 
713.533 124117744 125099928 126028136 126811536 127368584 127647592 
716.425 127630520 127340200 126835496 126210960 125583648 125068384 
719.318 124773632 124775392 125105320 125748576 126642016 127687512 
722.211 128751848 129692984 130375952 130682680 130543560 129947912 
725.104 128955152 127682176 126286192 124933344 123750936 122816016 
727.996 122143328 121698720 121420144 121243888 121126064 121043568 
730.889 120990376 120965376 120962136 120966168 120961920 120938632 
733.782 120898584 120855032 120826016 120823560 120847288 120884928 
736.674 120920248 120941688 120949752 120955480 120974920 121019096 
739.567 121087400 121167712 121242568 121299432 121335968 121361208 
742.460 121388680 121428736 121482376 121541288 121593544 121631944 
745.352 121659040 121686488 121728368 121793056 121878328 121973224 
748.245 122063320 122139600 122203696 122265864 122339896 122432736 
751.138 122541600 122653560 122753856 122832728 122890320 122935704 
754.031 122980168 123029776 123081464 123125456 123152112 123160168 
756.923 123159952 123169584 123206552 123280696 123388096 123516480 
759.816 123650712 123783368 123917112 124062096 124226856 124412312 
762.709 124608008 124798712 124973152 125134184 125300752 125504192 
765.601 125776024 126136032 126589256 127126440 127733576 128398952 
768.494 129118696 129895760 130740744 131674904 132738304 134006768 
771.387 135585952 137598512 140143280 143230416 146724000 150294912 
774.279 153477168 155702320 156444672 155394288 152521808 148117216 
777.172 142673072 136795664 131030064 125742648 121124968 117181592 
780.065 113800344 110812680 108064728 105450360 102913584 100444136 98056976 
783.440 95778640 93635904 91655720 89865144 88287400 86940928 85835272 
786.815 84970456 84340304 83939264 83768408 83838856 84170256 84783568 
790.189 85698064 86926720 88478680 90365120 92603960 95219408 98235984 
793.564 101663376 105479888 109612000 113933816 118259688 122341960 
796.457 125910920 128672600 130339680 130689040 129577312 126984480 
799.350 123021512 117926048 112027056 105674376 99231232 93011160 87245184 
802.724 82098520 77650552 73910720 70838464 68362600 66402724 64879232 
806.099 63730448 62911844 62391864 62147728 62152468 62365168 62729544 
809.474 63169292 63594260 63919664 64067824 63983620 63639984 63034000 
812.849 62185044 61126656 59905016 58572728 57182340 55788208 54437788 
816.224 53167640 52004420 50961692 50042992 49245748 48564936 47996152 
819.598 47536564 47184484 46938040 46793908 46748444 46799408 46948708 
822.973 47203952 47578708 48090196 48753804 49578668 50561936 51684676 
826.348 52905648 54162152 55372768 56433584 57236804 57684308 57699440 
829.723 57251248 56359596 55097596 53571416 51908180 50235556 48653764 
833.098 47236608 46024376 45025736 44226932 43598588 43105164 42706168 
836.473 42362884 42043992 41725592 41396816 41059548 40725856 40412968 
839.847 40136388 39906584 39725516 39588076 39485444 39409608 39355732 
843.222 39322540 39311076 39322832 39358420 39417408 39499376 39606116 
846.597 39740004 39904732 40102372 40332096 40590356 40871884 41172500 
849.972 41490972 41829744 42193676 42588324 43017644 43483648 43987620 
853.347 44531424 45119724 45760140 46461240 47231212 48076316 49000728 
856.721 50008448 51106504 52305440 53621384 55074012 56683364 58469796 
860.096 60452376 62648504 65075256 67745464 70660992 73803176 77123680 
863.471 80540952 83932504 87157536 90068040 92525112 94431344 95737368 
866.846 96453376 96644064 96424128 95941680 95343936 94772128 94336920 
870.221 94103944 94101600 94321688 94730432 95274200 95887336 96495992 
873.596 97009264 97327744 97349928 96976032 96135368 94798144 92986328 
876.970 90771208 88265304 85609672 82942304 80395880 78084032 76087632 
880.345 74462976 73237528 72410608 71956056 71823464 71947448 72246968 
883.720 72640064 73056216 73436656 73745448 73968272 74109208 74187584 
887.095 74231176 74274856 74350896 74486448 74699808 74995560 75366240 
890.470 75793688 76256944 76736200 77219024 77703256 78195888 78709848 
893.844 79258216 79852200 80495048 81179432 81881824 82557696 83142008 
897.219 83539744 83641248 83335568 82521352 81137448 79173792 76679232 
900.594 73751384 70527088 67166328 63818752 60622028 57687408 55087248 
903.969 52865644 51037184 49593636 48510136 47751688 47281344 47062720 
907.344 47067300 47276800 47681788 48280152 49073400 50062808 51247568 
910.719 52623656 54181860 55907168 57773584 59738228 61743276 63714528 
914.093 65567480 67228216 68640136 69779616 70660720 71335512 71886016 
917.468 72406144 73000152 73764144 74771752 76072672 77678256 79557936 
920.843 81633952 83793080 85903312 87827928 89466408 90772024 91768920 
924.218 92549872 93269592 94128640 95327064 97057904 99475024 102662872 
927.593 106624744 111254752 116341600 121535280 126374576 130355016 
930.485 132937120 133671952 132288112 128731344 123205488 116126344 
933.378 108083336 99695680 91533064 84073624 77618192 72319448 68200592 
936.753 65189512 63162284 61975796 61502976 61627708 62241596 63237012 
940.128 64475796 65785168 66974192 67829896 68163064 67844856 66819696 
943.502 65126792 62884576 60278712 57513644 54779556 52236756 49984804 
946.877 48069728 46493804 45229876 44235920 43466108 42881280 42446104 
950.252 42130256 41908444 41757108 41655676 41588796 41545476 41519992 
953.627 41511316 41520756 41551052 41604364 41682480 41786728 41918044 
957.002 42077248 42264996 42480924 42723572 42990208 43277800 43583200 
960.377 43905096 44243404 44599456 44975644 45373564 45793864 46235696 
963.751 46697416 47177100 47673472 48186332 48715884 49263008 49827804 
967.126 50410416 51010764 51629856 52269304 52932108 53621460 54340144 
970.501 55089508 55870012 56681816 57525216 58402324 59316332 60271520 
973.876 61271504 62318888 63414960 64560712 65757872 67009412 68320560 
977.251 69697256 71145776 72671552 74280400 75979280 77778632 79692696 
980.625 81740896 83943480 86320160 88886952 91653312 94621104 97782272 
984.000 101117976 104591712 108142032 111685312 115104880 118259208 
986.893 121006752 123207736 124755392 125593600 125722064 125200616 
989.786 124137720 122689336 121032312 119344608 117802432 116546992 
992.678 115680536 115265224 115318760 115824968 116742776 118022176 
995.571 119609464 121454064 123514672 125752864 128132192 130619872 
998.464 133180856 135779456 138380192 140939504 143404112 145709808 
1001.356 147774368 149509264 150831264 151668880 151981664 151764864 
1004.249 151054064 149918896 148460064 146807440 145098368 143478240 
1007.142 142090400 141051728 140457264 140370352 140819936 141809456 
1010.035 143322896 145335712 147817408 150736416 154061536 157754064 
1012.927 161769328 166059280 170569904 175248624 180045296 184901216 
1015.820 189746720 194488000 198995136 203118128 206692000 209558400 
1018.713 211604352 212775744 213098192 212673248 211681552 210364960 
1021.605 208981424 207807552 207091808 207020256 207721920 209248096 
1024.498 211582144 214648896 218335712 222512192 227026992 231728960 
1027.391 236463136 241061232 245364448 249225008 252520864 255179232 
1030.284 257177920 258546352 259348176 259674496 259627648 259304192 
1033.177 258798096 258186288 257514928 256792608 255976592 254978864 
1036.070 253665984 251889680 249516896 246441152 242610336 238025360 
1038.963 232735792 226828160 220418224 213649744 206673856 199650384 
1041.856 192736496 186059936 179722960 173793328 168302272 163258336 
1044.750 158654368 154476016 150707872 147335872 144347936 141734128 
1047.643 139488352 137609152 136101120 134972048 134228048 133867536 
1050.536 133874712 134217776 134847104 135706640 136739008 137890544 
1053.429 139119296 140386976 141651664 142863040 143951872 144830640 
1056.322 145407616 145588080 145292784 144472224 143110064 141232880 
1059.215 138907280 136246032 133393792 130511704 127776624 125349000 
1062.108 123362384 121923384 121096600 120911408 121365456 122430152 
1065.001 124053456 126159880 128660840 131447568 134397920 137393472 
1067.894 140316896 143066208 145564784 147752816 149588176 151041680 
1070.787 152089712 152716080 152913184 152684608 152047072 151030224 
1073.680 149679840 148054400 146227216 144292352 142352896 140521632 
1076.573 138913632 137624080 136729472 136278128 136287728 136750128 
1079.466 137633264 138888448 140444384 142208608 144075680 145920016 
1082.359 147617664 149068528 150206448 151023344 151568528 151948336 
1085.252 152300544 152773504 153516704 154648752 156255520 158381296 
1088.146 161021568 164117632 167548992 171149600 174699296 177946704 
1091.039 180656160 182611856 183657728 183718128 182792464 180954160 
1093.932 178327648 175082736 171402288 167458288 163408688 159369552 
1096.825 155412240 151569376 147837232 144189088 140585248 136986944 
1099.718 133360240 129681048 125939872 122142536 118314504 114497408 
1102.611 110752816 107155176 103778552 100697464 97974304 95652248 93760680 
1105.986 92312440 91308168 90740128 90595152 90855624 91497880 92493088 
1109.361 93804960 95386032 97182136 99127984 101144496 103146080 105034624 
1112.737 106702816 108051424 108988744 109445760 109387360 108810512 
1115.630 107744560 106240592 104369016 102208232 99835432 97329896 94762120 
1119.005 92190296 89663552 87216224 84870904 82643656 80545384 78585944 
1122.380 76774944 75120304 73627200 72295808 71122432 70100896 69227192 
1125.755 68503208 67939768 67556480 67376512 67423368 67713200 68249600 
1129.131 69021160 70001728 71154088 72428144 73767600 75111400 76390976 
1132.506 77540976 78503280 79233400 79712648 79950016 79985104 79877088 
1135.881 79700144 79531112 79432912 79451928 79608600 79895880 80279816 
1139.256 80703472 81097872 81382832 81481840 81332568 80886816 80118016 
1142.632 79020152 77603648 75892888 73921792 71735432 69382968 66918412 
1146.007 64399316 61877516 59400780 57009376 54731972 52588800 50591564 
1149.382 48744836 47049648 45504200 44105808 42851476 41737884 40761776 
1152.757 39919916 39209852 38629676 38179016 37857544 37665152 37600832 
1156.133 37662512 37848036 38155720 38585608 39139940 39822648 40638088 
1159.508 41589304 42676888 43898460 45247784 46714500 48284340 49935436 
1162.883 51637880 53355224 55041212 56645348 58118328 59410468 60479836 
1166.258 61293596 61827124 62068140 62016576 61685372 61097824 60286744 
1169.634 59291228 58149696 56900088 55578064 54213580 52835256 51469684 
1173.009 50140264 48869928 47678756 46582540 45593620 44720200 43966136 
1176.384 43333224 42821600 42430356 42158256 42003260 41962856 42033372 
1179.759 42211496 42494116 42879016 43364824 43950184 44633384 45412004 
1183.135 46283720 47247840 48306448 49465212 50732532 52117600 53627984 
1186.510 55266412 57028568 58900616 60857608 62864280 64869648 66812360 
1189.885 68624736 70233928 71578536 72615936 73328760 73729552 73856712 
1193.260 73769720 73532688 73209408 72853920 72501280 72170672 71864512 
1196.635 71573456 71280304 70965016 70609376 70196736 69713240 69147032 
1200.011 68485520 67715872 66825880 65806144 64654724 63380764 62006636 
1203.386 60565268 59097264 57646732 56251716 54943284 53742116 52657472 
1206.761 51690760 50837376 50089876 49439556 48877196 48394184 47981052 
1210.136 47629392 47332444 47085544 46887988 46742096 46653252 46627948 
1213.512 46672916 46794460 46997920 47287812 47667812 48139760 48703392 
1216.887 49355060 50088724 50895972 51767688 52696412 53676084 54702696 
1220.262 55773176 56884712 58035116 59223436 60452376 61728796 63064300 
1223.637 64474800 65976784 67584352 69307912 71150768 73108472 75166664 
1227.013 77301040 79474688 81634920 83719744 85655112 87360520 88762712 
1230.388 89794200 90403304 90561688 90265992 89544424 88454872 87090840 
1233.763 85571864 84027144 82599488 81421360 80605216 80249808 80427896 
1237.138 81191496 82577568 84606712 87285240 90601400 94523560 98992296 
1240.514 103912720 109164912 114592080 120005200 125207024 129978880 
1243.407 134104624 137402208 139724880 140993232 141201824 140419792 
1246.300 138777600 136442496 133618040 130511120 127316696 124218424 
1249.193 121353408 118804448 116589200 114655504 112888776 111127288 
1252.086 109207688 106983248 104358480 101310024 97884256 94188440 90357656 
1255.461 86544672 82887768 79487896 76411672 73681376 71282136 69169048 
1258.836 67279008 65542588 63887188 62251844 60590940 58875196 57094580 
1262.212 55255308 53376168 51482256 49602620 47766780 45999916 44324052 
1265.587 42756808 41309788 39990096 38799496 37734936 36789412 35953984 
1268.962 35219684 34578392 34023540 33549604 33150706 32819998 32549494 
1272.337 32330486 32155580 32018912 31915806 31842564 31794574 31765412 
1275.713 31748124 31735648 31722922 31708096 31692802 31680864 31676624 
1279.088 31683788 31704568 31739640 31788550 31849194 31917766 31986632 
1282.463 32044630 32078770 32075166 32024798 31925790 31786270 31622630 
1285.838 31457412 31316228 31221226 31191248 31240666 31378732 31613294 
1289.214 31950112 32393314 32944050 33599400 34352444 35190184 36094528 
1292.589 37043008 38005252 38945488 39824792 40601016 41237824 41710456 
1295.964 42008844 42141060 42130548 42013004 41826820 41609944 41395944 
1299.339 41209476 41069312 40987264 40968800 41012684 41110688 41248972 
1302.715 41407388 41564036 41698528 41792312 41831784 41807704 41714428 
1306.090 41550032 41317040 41022948 40680224 40306104 39921224 39545140 
1309.465 39194476 38882000 38615048 38398428 38235932 38131300 38088836 
1312.840 38111480 38199572 38349960 38556456 38812284 39111260 39449772 
1316.216 39826824 40242084 40695400 41184888 41708560 42264668 42853376 
1319.591 43476576 44135704 44829476 45550192 46283388 47006524 47691000 
1322.966 48308152 48830552 49237956 49522660 49692444 49773516 49807256 
1326.341 49850104 49962392 50195048 50583896 51136024 51828800 52610980 
1329.717 53415776 54175216 54829436 55342884 55705628 55933848 56062200 
1333.092 56138056 56214492 56339492 56555552 56894612 57374276 57998576 
1336.467 58756480 59626960 60579972 61582192 62602692 63611672 64583704 
1339.842 65498000 66336944 67088096 67743448 68297600 68745552 69079392 
1343.218 69284392 69340280 69221896 68902400 68361088 67585976 66576348 
1346.593 65343076 63907496 62300336 60557000 58720788 56840600 54967316 
1349.968 53158312 51471700 49960680 48675520 47653948 46919248 46481924 
1353.343 46338868 46477168 46874032 47498600 48308892 49247640 50249800 
1356.719 51241784 52147972 52905648 53464448 53793528 53883432 53744364 
1360.094 53406704 52915080 52333888 51741596 51220760 50857228 50720208 
1363.469 50849556 51254760 51914156 52786648 53818656 54954864 56139864 
1366.844 57312684 58413500 59380264 60152920 60684932 60945100 60921656 
1370.219 60622676 60073544 59315348 58398380 57387700 56358012 55385260 
1373.595 54547736 53908644 53504400 53342564 53402732 53649468 54044044 
1376.970 54558328 55179228 55909240 56762616 57762644 58938792 60320668 
1380.345 61935632 63798024 65896332 68175088 70521360 72779200 74747624 
1383.720 76216824 77010120 76990104 76093792 74345152 71877416 68924304 
1387.096 65778272 62755196 60100824 57952832 56343640 55220880 54490448 
1390.471 54043556 53785616 53637356 53533748 53426792 53277080 53057028 
1393.846 52754288 52374216 51938612 51476512 51015460 50571724 50148596 
1397.221 49741708 49346296 48965416 48612704 48310520 48081608 47942092 
1400.597 47895768 47935504 48048000 48220764 48445932 48722556 49056444 
1403.972 49457196 49934920 50495416 51138932 51859340 52646772 53489896 
1407.347 54377848 55302084 56254772 57228300 58215192 59207452 60198212 
1410.722 61183224 62159656 63124992 64073244 64991548 65861128 66659464 
1414.098 67366104 67970144 68472952 68887680 69233136 69529344 69793120 
1417.473 70037856 70279392 70541472 70853680 71247768 71742392 72333416 
1420.848 72995600 73691272 74383728 75043496 75659032 76237872 76804560 
1424.223 77390600 78023944 78719976 79478072 80286672 81129704 81994104 
1427.599 82868632 83741288 84596768 85411992 86158952 86812224 87355776 
1430.974 87790448 88134464 88421080 88689184 88974016 89305544 89707176 
1434.349 90202360 90825320 91625200 92664168 94005936 95684464 97688664 
1437.724 99964712 102430416 104989720 107531864 109939616 112068400 
1440.617 113757208 114862256 115263672 114896184 113755832 111891216 
1443.510 109388896 106350840 102893552 99126904 95145408 91039504 86894496 
1446.886 82806528 78901888 75320920 72197432 69629032 67649432 66236592 
1450.261 65334024 64881688 64831136 65147816 65804676 66764252 67971920 
1453.636 69367224 70881336 72453672 74041232 75611104 77144336 78628712 
1457.011 80061872 81441864 82762904 84020512 85207456 86318704 87353632 
1460.387 88319192 89226184 90083208 90891736 91636944 92285192 92795304 
1463.762 93129024 93274936 93259080 93144048 93003608 92890136 92823696 
1467.137 92789608 92753464 92671800 92502848 92205416 91726472 90995208 
1470.512 89921128 88406224 86387944 83882784 81016008 77986552 75000328 
1473.888 72198296 69630040 67283728 65131568 63166076 61415792 59934340 
1477.263 58769912 57949688 57468668 57299864 57413716 57794700 58449136 
1480.638 59400476 60674952 62286796 64230136 66481956 69013200 71799584 
1484.013 74832016 78111240 81634040 85381616 89294632 93256904 97105840 
1487.389 100621512 103547944 105634144 106647704 106432288 104955128 
1490.282 102332856 98817952 94724616 90368832 85983232 81693704 77550448 
1493.657 73543992 69648360 65860936 62214256 58783188 55668412 52958684 
1497.032 50702000 48892436 47489356 46435872 45681804 45194464 44953520 
1500.407 44945728 45157332 45570064 46159556 46899244 47753796 48680672 
1503.783 49626580 50509448 51217964 51610676 51530420 50864716 49605480 
1507.158 47867136 45827224 43643868 41409316 39156872 36895812 34639608 
1510.533 32414556 30269124 28260776 26434400 24819242 23419278 22218710 
1513.908 21192384 20313372 19557884 18904338 18334990 17837502 17405244 
1517.284 17039506 16745662 16526734 16378276 16285248 16222885 16166445 
1520.659 16100110 16028801 15978198 15982013 16062599 16219273 16432229 
1524.034 16673282 16920016 17161062 17401864 17659812 17956070 18304300 
1527.409 18705246 19149468 19624402 20122174 20641746 21189320 21772734 
1530.785 22396880 23062034 23762958 24492006 25242758 26012114 26799540 
1534.160 27602662 28414876 29223226 30011354 30759334 31447224 32058898 
1537.535 32579280 32998458 33310880 33516888 33618444 33618480 33524796 
1540.910 33351202 33117272 32843296 32541386 32211070 31839818 31411712 
1544.286 30917596 30365054 29779144 29194272 28638852 28121332 27630096 
1547.661 27139064 26622516 26067066 25482180 24896886 24349878 23869188 
1551.036 23461244 23111094 22793560 22486794 22182618 21890118 21629646 
1554.411 21420810 21269486 21162568 21069136 20950722 20762300 20459920 
1557.787 20011098 19411608 18706526 17984320 17339858 16827422 16449986 
1561.162 16177898 15970943 15791954 15609605 15403231 15164598 14900446 
1564.537 14629806 14377281 14163207 13994645 13863948 13753193 13643357 
1567.912 13520695 13382759 13238992 13106780 13003491 12938354 12911320 
1571.288 12915825 12943884 12988298 13042379 13099199 13148034 13176826 
1574.663 13175801 13143560 13093701 13053373 13054467 13117025 13243637 
1578.038 13422468 13637852 13878589 14141642 14432666 14762620 15142330 
1581.413 15577423 16066449 16600261 17165544 17745092 18318298 18862844 
1584.789 19351774 19757956 20058668 20239600 20300806 20258102 20144976 
1588.164 20005512 19890056 19850654 19929740 20159658 20559092 21129902 
1591.539 21854262 22690140 23575376 24423932 25136892 25623346 25804922 
1594.914 25637124 25117056 24284698 23214472 21995404 20722506 19474638 
1598.290 18308654 17263896 16360177 15603766 14990777 14509812 14145578 
1601.665 13882079 13707744 13616757 13609167 13688594 13857927 14116072 
1605.040 14456507 14865471 15322597 15802814 16272245 16691083 17017934 
1608.415 17210390 17235212 17074138 16727446 16216040 15578522 14868625 
1611.791 14139827 13438324 12795621 12223759 11719942 11272201 10867013 
1615.166 10493362 10147369 9833985 9563807 9348605 9195439 9103767 9066380 
1619.023 9071455 9104071 9148534 9190938 9219671 9229451 9222717 9209483 
1622.881 9203764 9216963 9254194 9312653 9384188 9460443 9536338 9610722 
1626.738 9684916 9760749 9839171 9919709 10002024 10087578 10180101 10283976 
1630.595 10402299 10534471 10674969 10814119 10940131 11042250 11112100 
1633.971 11146400 11148065 11126853 11097347 11075254 11072942 11095648 
1637.346 11141947 11205284 11276996 11346918 11405454 11446207 11467061 
1640.721 11471926 11468831 11467402 11474342 11490230 11508977 11519899 
1644.096 11510814 11471654 11398311 11295292 11175909 11059007 10963713 
1647.472 10904930 10889335 10916039 10978427 11066484 11165676 11256525 
1650.847 11315220 11312772 11224766 11046635 10814358 10598331 10463119 
1654.222 10433048 10487524 10587908 10697552 10793127 10864023 10908667 
1657.597 10931398 10937854 10932179 10915020 10883966 10835418 10766598 
1660.973 10676837 10568861 10447574 10320247 10195229 10080693 9983478 
1664.348 9907573 9853203 9815548 9785860 9752412 9701450 9621596 9506331 
1668.205 9357644 9186402 9009375 8844695 8705193 8595612 8513291 8451291 
1672.063 8400211 8349441 8288477 8206350 8095106 7953381 7791091 7628120 
1675.920 7486312 7381452 7315974 7280257 7258390 7234806 7199971 7152609 
1679.778 7099290 7049648 7010787 6981223 6949574 6896583 6802332 6655310 
1683.635 6464311 6259749 6082902 5962861 5903172 5887050 5890644 5894910 
1687.492 5887689 5864582 5826935 5778345 5723281 5665874 5610724 5562762 
1691.350 5526517 5504806 5495913 5492826 5483095 5452024 5387306 5286205 
1695.207 5160818 5036573 4941385 4889309 4875034 4877313 4869907 4827355 
1699.065 4734926 4596169 4436869 4296869 4207330 4177320 4193479 4233929 
1702.922 4277460 4309853 4323607 4316278 4291347 4255008 4215995 4181836 
1706.780 4157583 4145071 4143064 4148617 4158017 4168622 4179127 4190200 
1710.637 4204352 4223556 4249220 4280773 4315575 4350280 4382377 4410425 
1714.494 4434392 4453941 4467433 4470814 4459632 4431681 4390610 4346766 
1718.352 4314003 4302792 4316780 4351585 4397907 4445271 4484807 4512026 
1722.209 4526723 4532014 4532014 4530540 4529034 4527159 4524213 4520094 
1726.067 4515608 4511959 4509514 4506669 4501145 4490565 4474965 4457021 
1729.924 4440886 4430007 4423313 4414442 4391213 4338633 4246309 4115100 
1733.781 3963132 3820142 3715763 3663465 3657284 3679070 3708411 3729699 
1737.639 3732940 3715395 3680507 3636100 3590728 3551741 3523046 3505142 
1741.496 3497025 3497192 3504607 3517835 3535139 3554581 3574825 3595438 
1745.354 3617122 3641145 3668645 3698987 3730300 3759310 3782705 3798449 
1749.211 3805802 3805869 3800655 3793134 3786182 3782973 3785747 3795708 
1753.069 3811819 3830504 3845647 3849625 3835786 3799986 3743869 3674793 
1756.926 3603925 3542053 3494119 3458615 3427822 3392390 3344305 3279833 
1760.783 3201619 3117945 3038959 2974299 2928930 2903378 2894339 2896907 
1764.641 2906480 2917955 2926828 2928830 2921357 2904679 2882097 2859917 
1768.498 2844442 2839072 2841974 2846709 2845075 2830467 2801820 2765572 
1772.356 2734461 2721191 2731860 2764571 2810891 2861051 2907781 2948912 
1776.213 2986477 3024478 3065453 3108801 3150051 3183828 3205357 3214370 
1780.071 3214370 3212167 3213903 3222281 3235767 3249321 3257900 3258134 
1783.928 3250456 3238304 3226654 3219577 3218743 3223750 3233230 3246082 
1787.785 3261773 3279967 3299097 3315190 3322635 3315390 3288948 3243746 
1791.643 3185597 3124653 3070692 3030517 3004192 2987911 2974900 2959921 
1795.500 2940272 2915520 2886800 2855047 2820362 2782245 2740163 2694751 
1799.358 2648544 2604908 2567677 2539013 2519350 2506886 2500088 2497288 
1803.215 2498021 2502254 2509885 2519717 2530248 2539647 2546946 2552878 
1807.073 2558944 2566510 2576009 2585675 2593175 2596008 2593642 2588009 
1810.930 2583309 2584009 2592642 2609042 2629842 2650944 2668780 2682849 
1814.787 2694518 2707587 2725459 2750233 2781245 2816227 2851679 2885166 
1818.645 2915153 2941606 2964858 2984808 3000856 3012200 3017872 3017305 
1822.502 3010398 2997119 2977669 2952815 2924560 2896507 2873659 2860684 
1826.360 2860050 2870390 2886934 2901577 2906347 2895973 2870590 2836570 
1830.217 2803621 2781978 2777743 2790849 2817061 2850278 2885766 2921558 
1834.074 2958086 2997119 3039960 3085842 3132830 3178521 3222348 3266112 
1837.932 3314155 3370918 3439845 3521242 3612611 3709112 3805434 3897432 
1841.789 3982326 4059310 4129182 4194784 4260864 4333045 4417354 4517751 
1845.647 4634513 4764002 4899697 5033255 5156560 5264573 5355001 5428504 
1849.504 5487524 5533598 5566621 5584443 5583940 5562997 5522222 5464573 
1853.362 5394687 5316694 5232746 5142511 5044585 4937934 4824172 4707024 
1857.219 4591883 4482731 4381674 4287131 4196356 4106771 4018308 3932704 
1861.076 3853837 3784276 3724084 3670416 3619260 3567375 3514628 3463925 
1864.934 3420007 3386980 3366243 3355257 3348746 3341500 3330749 3317627 
1868.791 3306242 3301701 3306309 3319597 3337660 3355892 3371486 3383039 
1872.649 3391388 3398033 3403410 3406916 3407718 3405146 3399836 3394193 
1876.506 3390686 3390620 3392824 3393892 3389451 3376027 3352753 3320966 
1880.364 3284207 3245181 3204490 3161532 3114107 3061282 3004326 2947477 
1884.221 2895739 2853580 2822863 2802254 2787947 2775809 2763104 2748999 
1888.078 2734828 2721791 2710922 2702253 2695451 2690917 2690650 2696918 
1891.936 2711522 2734361 2762104 2789781 2813092 2829567 2840906 2851479 
1895.793 2866855 2891036 2924560 2964658 3007095 3048169 3086743 3123752 
1899.651 3161132 3199817 3238672 3274826 3304673 3326709 3342335 3355391 
1903.508 3369449 3387147 3407918 3428356 3444587 3454440 3458080 3459249 
1907.365 3461821 3468200 3477987 3487473 3492249 3489042 3477753 3461053 
1911.223 3443151 3427221 3413829 3401673 3388382 3372654 3354823 3337026 
1915.080 3320565 3304873 3286644 3260537 3222481 3171812 3112405 3051739 
1918.938 2997286 2952715 2916754 2884265 2849144 2807723 2760970 2714256 
1922.795 2674581 2647210 2633276 2629242 2629576 2629743 2627342 2623942 
1926.653 2621842 2621342 2621409 2617709 2606609 2586875 2561544 2536280 
1930.510 2517917 2510752 2514251 2523916 2533414 2537713 2534914 2526449 
1934.367 2514318 2499754 2481426 2456534 2423213 2384131 2345186 2315838 
1938.225 2304545 2313639 2338890 2371204 2398924 2413417 2413117 2402056 
1942.082 2388495 2379667 2378634 2383465 2390628 2396691 2402755 2413217 
1945.940 2433176 2464831 2505653 2548312 2582976 2603442 2607375 2598008 
1949.797 2582109 2566277 2554611 2548179 2546412 2548445 2555844 2569743 
1953.655 2590909 2615475 2635910 2642710 2628009 2589975 2533514 2469529 
1957.512 2410152 2363142 2330029 2305311 2281395 2252751 2220212 2189440 
1961.369 2170026 2168494 2186077 2218114 2257380 2296917 2332560 2364575 
1965.227 2393926 2420014 2440473 2451102 2448603 2435208 2416483 2400356 
1969.084 2393193 2395125 2400190 2398424 2382998 2351582 2311307 2274734 
1972.942 2253084 2254183 2277465 2315671 2362009 2413251 2472029 2546512 
1976.799 2644144 2764238 2897341 3025346 3129359 3195511 3218976 3202754 
1980.656 3156159 3090147 3012634 2930965 2851746 2780577 2725492 2692984 
1984.514 2684383 2696151 2718757 2739763 2748666 2741664 2720791 2694318 
1988.371 2671180 2657845 2655912 2663812 2678281 2698185 2726592 2766539 
1992.229 2820395 2886067 2955717 3020041 3071893 3107400 3129226 3143910 
1996.086 3157928 3175050 3194976 3214103 3228256 3236301 3239105 3239606 
1999.944 3239239 3236702 3226621 3202754 3160998 3101827 3032086 2962256 
2003.801 2901977 2858249 2832302 2821429 2821463 2829600 2845475 2869289 
2007.658 2900876 2935702 2966993 2988245 2995284 2990080 2978603 2968161 
2011.516 2963424 2964091 2964558 2957619 2939338 2910983 2879996 2855881 
2015.373 2847677 2858583 2886533 2926761 2973232 3024712 3081470 3143109 
2019.231 3207861 3267949 3312953 3333921 3327477 3296560 3251490 3205191 
2023.088 3165971 3137169 3115042 3093317 3068723 3043097 3022510 3014569 
2026.946 3022443 3042062 3062483 3071426 3060748 3030651 2990714 2953082 
2030.803 2931298 2931765 2953616 2990747 3037891 3091048 3150986 3219177 
2034.660 3295191 3373623 3446291 3504474 3543724 3566473 3580204 3595104 
2038.518 3618091 3650902 3690165 3730701 3768835 3804532 3842305 3886566 
2042.375 3938589 3994498 4045296 4080815 4094964 4086769 4063022 4033859 
2046.233 4010282 3999012 4001988 4017405 4040313 4065430 4088207 4103359 
2050.090 4106236 4092756 4061350 4015030 3962229 3914048 3882621 3876102 
2053.948 3894757 3930698 3971357 4003159 4017238 4011820 3991889 3965205 
2057.805 3938455 3914282 3891949 3869315 3844945 3821245 3803630 3797412 
2061.662 3805902 3827329 3856813 3886800 3912544 3932471 3947985 3962898 
2065.520 3979483 3997608 4015030 4029210 4038942 4046400 4055497 4069377 
2069.377 4088575 4109948 4127342 4135170 4130654 4115200 4094061 4073457 
2073.235 4056668 4043858 4031785 4016201 3994732 3968649 3941398 3917792 
2077.092 3900908 3890077 3882086 3873427 3861560 3847586 3834649 3826426 
2080.949 3824721 3828098 3832610 3833713 3829903 3822281 3815128 3812855 
2084.807 3817301 3826560 3835752 3838427 3829568 3808777 3777859 3741262 
2088.664 3702329 3662697 3621098 3576529 3528725 3480391 3436372 3402675 
2092.522 3382806 3377496 3383908 3397599 3414564 3432631 3451267 3471006 
2096.379 3491046 3508783 3520507 3523080 3515798 3501768 3486871 3476751 
2100.237 3475849 3484567 3500532 3519038 3537210 3553278 3568210 3583846 
2104.094 3601319 3619628 3637603 3653040 3665537 3676865 3690031 3707575 
2107.951 3730066 3756034 3781603 3804432 3823551 3840065 3857247 3877205 
2111.809 3899270 3920902 3936784 3943270 3939927 3930397 3921002 3918628 
2115.666 3928057 3949289 3979517 4013860 4047938 4079611 4109112 4137210 
2119.524 4163839 4187658 4205657 4215460 4217601 4213988 4210006 4210542 
2123.381 4217434 4229445 4242394 4250324 4249019 4237141 4215694 4187290 
2127.239 4153669 4114197 4066333 4007272 3935747 3853202 3764089 3674359 
2131.096 3589425 3513059 3446792 3390954 3346676 3314355 3295358 3288981 
2134.953 3291886 3297061 3298396 3289315 3269017 3240274 3209396 3181392 
2138.811 3158796 3139204 3117912 3090714 3057245 3021008 2990213 2972064 
2142.668 2970263 2982506 3001490 3018339 3025613 3021008 3006395 2986977 
2146.526 2967127 2948778 2931699 2914486 2897241 2881230 2869022 2860784 
2150.383 2853113 2839405 2810824 2760370 2686450 2592609 2486558 2375402 
2154.240 2265008 2156140 2050495 1952764 1874688 1835989 1858949 1958056 
2158.098 2133930 2366107 2619509 2856949 3048836 3183261 3265244 3311317 
2161.955 3338662 3362303 3390553 3424750 3465462 3512624 3565170 3622568 
2165.813 3680908 3732706 3769503 3785446 3777425 3749885 3710549 3667843 
2169.670 3627580 3591830 3558088 3523714 3488608 3455943 3432664 3426453 
2173.528 3441047 3476216 3526754 3583979 3639307 3686188 3719907 3737686 
2177.385 3738321 3720709 3685620 3638004 3585282 3539147 3510453 3507180 
2181.242 3529927 3573823 3627680 3680641 3724351 3756134 3777023 3791429 
2185.100 3803897 3817501 3834248 3856010 3884460 3921236 3966442 4017371 
2188.957 4068306 4111888 4142228 4157649 4162333 4164340 4173272 4195988 
2192.815 4232791 4278230 4323373 4360287 4385389 4400116 4410091 4421806 
2196.672 4439480 4462913 4488657 4512795 4532181 4546545 4557661 4568142 
2200.530 4578120 4586893 4591816 4590343 4583779 4575643 4571088 4574973 
2204.387 4589372 4612377 4640106 4668071 4693257 4715498 4737003 4759480 
2208.244 4784304 4810603 4835731 4857108 4873191 4883981 4890448 4893933 
2212.102 4894403 4890817 4882507 4868701 4851546 4834424 4820687 4812546 
2215.959 4809698 4809598 4809598 4807923 4805578 4805511 4811139 4823737 
2219.817 4841628 4859621 4871549 4872488 4861229 4840355 4815427 4792445 
2223.674 4775627 4764974 4758676 4752446 4743334 4730538 4715264 4699052 
2227.531 4684549 4671889 4660904 4650655 4640307 4629690 4619711 4611305 
2231.389 4605144 4601594 4601225 4604842 4613817 4629423 4652162 4680999 
2235.246 4713087 4744674 4772244 4793885 4809598 4821358 4832045 4842868 
2239.104 4854595 4866456 4877615 4887801 4898155 4910253 4925467 4944301 
2242.961 4964912 4984720 5001914 5015925 5028428 5042741 5062217 5087997 
2246.819 5119377 5152335 5181540 5202867 5213463 5212961 5203470 5188012 
2250.676 5169972 5152335 5138689 5132050 5135370 5150961 5178791 5216884 
2254.533 5260448 5303210 5339872 5366239 5380898 5385193 5381435 5371640 
2258.391 5357383 5339302 5317097 5291404 5264371 5237676 5214269 5196462 
2262.248 5184591 5179260 5180098 5187274 5201425 5222988 5251594 5285300 
2266.106 5321222 5355571 5385260 5408878 5426424 5439375 5449038 5455916 
2269.963 5459070 5457594 5450146 5437966 5423338 5410287 5402637 5403443 
2273.821 5413071 5430685 5454071 5481518 5510980 5541787 5572797 5603071 
2277.678 5631098 5655535 5675207 5690918 5704279 5717641 5733420 5752894 
2281.535 5775794 5800877 5826297 5850409 5872474 5892256 5910058 5925878 
2285.393 5939918 5952750 5964877 5978079 5993868 6013219 6036501 6062070 
2289.250 6087775 6111565 6132232 6150346 6167989 6188222 6212993 6243446 
2293.108 6278675 6316428 6354957 6393053 6430614 6469120 6509413 6552063 
2296.965 6596131 6639732 6680612 6717592 6750504 6779749 6807078 6833365 
2300.823 6858510 6881973 6902609 6919441 6932504 6943244 6953243 6964927 
2304.680 6980180 6999642 7023482 7050860 7080025 7109225 7136441 7160187 
2308.537 7179355 7194480 7206540 7217793 7230460 7245756 7264354 7285446 
2312.395 7307416 7328813 7349066 7368679 7389035 7411987 7438581 7468851 
2316.252 7502123 7536745 7571641 7606842 7643126 7682145 7725619 7774292 
2320.110 7828302 7886332 7946261 8004611 8057873 8101350 8130620 8141795 
2323.967 8132949 8104186 8059021 8003430 7944573 7890078 7845743 7814807 
2327.824 7797568 7792272 7795612 7804315 7815954 7828875 7842167 7855191 
2331.682 7867910 7880226 7892777 7906611 7923213 7944033 7969647 7999413 
2335.539 8032254 8066413 8100608 8134333 8168197 8202771 8238328 8274057 
2339.397 8307931 8338261 8363696 8383658 8399401 8412305 8423048 8431123 
2343.254 8434027 8427879 8409197 8376362 8330965 8278920 8229447 8192506 
2347.112 8177988 8193453 8242482 8325392 8439264 8578038 8733963 8897383 
2350.969 9059343 9212191 9351416 9475715 9586942 9688879 9784233 9875438 
2354.826 9963102 10047325 10128546 10208222 10287878 10369211 10452801 
2358.202 10536949 10618737 10695107 10763100 10821253 10869765 10909380 
2361.577 10941014 10965955 10985088 11000244 11013362 11027059 11042862 
2364.952 11061181 11079740 11094729 11101868 11097721 11080725 11051665 
2368.327 11012955 10967281 10916447 10861102 10801211 10736880 10669095 
2371.703 10600504 10534539 10474829 10424224 10384482 10356351 10339995 
2375.078 10335957 10345357 10368974 10407526 10460777 10527410 10605529 
2378.453 10693138 10788881 10892155 11003269 11122128 11248331 11380794 
2381.828 11517619 11656393 11795076 11932167 12066202 12195508 12317966 
2385.204 12430503 12530109 12613876 12679475 12726319 12754708 12765967 
2388.579 12761566 12743379 12713252 12672892 12624178 12568443 12507055 
2391.954 12440527 12368384 12290049 12204845 12112741 12015411 11915854 
2395.329 11817240 11723516 11637742 11561785 11496932 11444200 11404570 
2398.705 11379331 11369501 11375284 11396134 11430252 11475464 11529868 
2402.080 11592854 11664663 11747243 11842164 11950831 12073833 12210502 
2405.455 12359793 12520287 12691314 12872067 13061671 13259488 13463855 
2408.830 13673309 13886868 14104160 14325088 14550378 14779520 15011596 
2412.206 15244207 15473957 15696958 15909314 16107263 16287208 16445961 
2415.581 16580433 16687950 16767461 16819122 16845194 16849396 16836240 
2418.956 16809236 16771214 16723210 16665053 16596543 16517855 16429890 
2422.331 16334752 16235095 16133329 16032068 15933821 15840717 15755741 
2425.707 15681705 15621489 15577869 15552524 15546240 15559462 15592191 
2429.082 15644435 15716162 15807452 15917219 16043998 16185740 16340394 
2432.457 16506566 16684335 16874542 17078928 17298754 17535252 17787792 
2435.832 18055778 18337756 18632506 18939742 19259424 19591992 19938658 
2439.208 20300908 20680422 21079570 21500948 21946016 22415650 22909296 
2442.583 23424734 23959618 24511990 25080652 25665840 26268540 26889206 
2445.958 27527074 28179842 28843754 29514784 30189056 30863840 31537074 
2449.333 32207392 32873280 33532352 34182456 34820580 35444356 36051500 
2452.708 36639524 37204588 37742672 38247328 38711752 39129136 39493172 
2456.084 39798320 40040348 40214820 40317736 40345404 40294140 40161428 
2459.459 39946252 39648768 39270744 38814852 38284240 37682748 37014432 
2462.834 36284352 35498432 34663364 33787564 32879356 31948008 31003172 
2466.209 30054778 29112558 28187088 27287508 26422778 25600466 24825450 
2469.585 24101200 23428616 22807700 22236984 21715466 21241718 20813952 
2472.960 20430260 20087296 19780808 19505516 19256306 19027284 18814158 
2476.335 18613104 18421094 18236532 18058506 17887044 17723624 17569202 
2479.710 17425386 17292308 17169402 17054632 16945474 16839546 16735330 
2483.086 16632896 16533963 16440488 16354948 16278746 16212050 16154444 
2486.461 16104650 16061533 16023988 15991742 15963966 15940489 15920965 
2489.836 15904915 15892748 15884878 15882093 15885152 15894225 15909212 
2493.211 15929352 15953792 15981670 16012507 16045853 16081475 16118508 
2496.587 16156610 16194716 16232377 16269837 16307402 16345726 16385328 
2499.962 16425656 16465748 16504431 16540365 16572824 16602119 16628593 
2503.337 16653381 16677206 16700758 16724760 16749587 16775968 16804690 
2506.712 16835586 16868102 16900240 16929764 16954054 16971452 16981616 
2510.088 16985234 16983856 16978654 16969972 16957256 16938652 16912538 
2513.463 16877436 16833242 16780272 16719664 16652554 16580191 16503675 
2516.838 16424349 16344454 16266054 16191551 16123116 16061291 16006043 
2520.213 15956473 15911995 15872093 15837176 15807692 15784224 15766598 
2523.589 15754435 15746430 15742134 15741516 15744779 15752716 15765533 
2526.964 15782436 15802229 15822915 15843259 15863020 15882781 15903952 
2530.339 15928185 15956197 15987616 16021959 16058611 16097188 16138729 
2533.714 16184261 16234614 16289856 16348995 16410343 16472150 16533481 
2537.090 16594132 16654827 16716667 16780204 16845194 16911022 16977034 
2540.465 17043434 17111394 17182536 17258690 17340926 17428524 17519416 
2543.840 17611294 17701052 17786652 17866812 17941326 18010498 18075224 
2547.215 18136402 18195206 18252842 18310382 18368622 18427492 18486022 
2550.591 18542590 18595222 18642502 18684078 18720468 18753438 18784608 
2553.966 18815680 18846926 18878450 18909460 18938948 18965804 18989032 
2557.341 19007170 19018836 19022506 19017486 19003260 18980758 18951268 
2560.716 18916208 18876858 18833152 18784608 18729912 18668650 18600930 
2564.092 18528550 18454110 18380200 18309484 18243338 18182456 18126696 
2567.467 18075984 18030254 17989500 17954206 17924648 17901098 17883974 
2570.842 17873442 17870058 17873890 17885042 17902688 17925684 17952410 
2574.217 17981210 18011430 18043516 18078644 18118198 18163214 18213796 
2577.593 18268806 18326660 18385282 18443602 18501098 18557908 18614626 
2580.968 18672282 18731260 18792254 18855646 18921988 18991594 19064880 
2584.343 19141536 19220736 19301232 19382158 19463100 19544228 19626242 
2587.718 19709896 19795304 19881490 19966930 20049750 20128664 20202872 
2591.094 20272752 20339172 20403170 20465476 20526784 20587268 20647618 
2594.469 20708778 20772032 20838320 20908128 20981216 21056752 21133764 
2597.844 21212180 21292696 21377128 21467388 21565118 21670744 21783850 
2601.219 21903256 22027612 22156046 22288742 22426118 22568562 22715870 
2604.594 22867210 23020804 23175188 23329030 23482052 23634816 23788262 
2607.970 23943092 24099554 24256948 24413768 24568402 24718846 24863518 
2611.345 25000868 25129378 25248128 25356268 25453158 25538296 25611360 
2614.720 25672028 25719696 25754008 25775104 25783190 25779604 25766034 
2618.095 25744692 25718148 25688408 25656948 25624682 25592556 25561172 
2621.471 25531688 25505194 25483092 25466228 25455196 25449994 25450382 
2624.846 25456320 25467810 25485026 25508496 25538928 25576354 25621306 
2628.221 25673856 25733970 25801652 25876694 25958362 26045992 26137932 
2631.596 26232848 26329404 26427108 26525892 26626884 26731314 26840212 
2634.972 26954532 27074698 27200086 27329990 27463180 27598318 27734170 
2638.347 27869602 28003772 28136426 28267672 28397932 28527522 28656868 
2641.722 28785298 28911710 29034760 29153060 29266004 29373696 29477692 
2645.097 29579902 29682350 29786774 29894488 30005318 30119444 30236510 
2648.473 30356418 30479060 30604722 30733658 30865974 31001928 31141730 
2651.848 31285814 31434652 31588882 31748872 31914272 32084622 32259032 
2655.223 32436728 32617352 32800808 32987590 33178136 33372846 33571760 
2658.598 33774384 33980504 34189268 34400284 34613124 34827688 35043288 
2661.974 35259572 35475528 35690588 35903848 36114836 36323620 36530232 
2665.349 36735176 36939280 37143156 37347740 37553756 37761680 37971912 
2668.724 38184520 38399620 38617292 38837392 39060356 39286160 39514800 
2672.099 39745812 39978256 40211116 40443260 40673676 40901264 41125476 
2675.475 41345464 41560168 41768196 41968512 42160156 42343448 42519584 
2678.850 42691256 42861788 43034984 43214256 43402316 43601884 43814776 
2682.225 44042844 44287688 44550808 44832892 45134316 45454532 45792540 
2685.600 46147248 46517588 46902824 47302256 47715480 48141536 48579240 
2688.976 49027136 49484004 49948860 50421656 50902340 51391580 51889620 
2692.351 52396648 52912796 53437808 53971740 54514712 55066940 55628492 
2695.726 56199072 56778100 57365012 57959004 58559952 59167884 59782904 
2699.101 60405080 61033940 61668152 62306000 62945396 63584396 64221308 
2702.477 64854376 65482056 66102496 66713752 67313208 67897768 68464256 
2705.852 69008184 69525344 70010768 70459120 70865616 71226304 71538144 
2709.227 71799656 72010640 72171616 72283712 72348288 72366256 72338816 
2712.602 72267048 72151616 71993240 71792000 71547752 71259760 70927872 
2715.978 70551688 70132280 69671192 69171232 68635328 68067520 67471440 
2719.353 66851200 66211192 65555608 64889156 64216660 63543236 62873660 
2722.728 62213072 61565964 60937016 60330296 59749292 59197044 58676108 
2726.103 58188224 57735016 57318052 56938464 56597408 56295624 56033020 
2729.479 55809008 55622016 55470076 55350824 55262684 55203872 55173812 
2732.854 55172084 55198416 55252300 55332756 55437816 55565676 55713920 
2736.229 55880184 56062084 56257376 56463772 56679020 56900500 57125308 
2739.604 57350304 57572160 57786828 57990660 58180304 58353392 58509144 
2742.979 58648344 58773512 58888208 58996292 59101440 59205932 59311244 
2746.355 59417916 59526088 59636080 59748304 59863444 59982044 60104056 
2749.730 60229536 60357976 60489316 60623780 60762860 60908580 61063344 
2753.105 61230032 61411744 61611136 61831136 62074292 62343100 62639132 
2756.480 62963396 63315280 63692464 64091904 64509160 64939172 65377040 
2759.856 65817328 66254616 66683420 67098112 67492920 67862552 68201720 
2763.231 68505496 68769696 68990048 69163224 69287344 69361352 69386152 
2766.606 69364576 69300832 69199792 69066448 68905744 68722104 68520088 
2769.981 68304704 68080432 67853024 67627864 67409056 67199984 67002380 
2773.357 66816992 66643632 66481956 66331924 66193292 66066236 65950052 
2776.732 65843232 65742492 65643744 65541276 65428392 65298556 65145352 
2780.107 64963488 64749636 64502432 64223112 63914708 63582176 63230804 
2783.482 62866272 62494056 62118864 61744956 61376172 61015560 60665500 
2786.858 60327860 60003196 59691620 59392424 59105124 58829284 58564996 
2790.233 58312768 58073368 57846980 57633488 57431756 57240512 57058120 
2793.608 56882900 56713568 56549136 56388536 56230480 56073392 55915344 
2796.983 55753888 55586724 55411616 55226524 55029928 54820416 54597288 
2800.359 54360420 54109760 53845664 53568756 53279176 52976992 52662072 
2803.734 52334072 51993288 51640456 51277432 50906812 50532156 50157260 
2807.109 49785996 49421772 49068168 48727412 48402148 48094304 47805652 
2810.484 47537560 47291356 47068080 46867976 46691364 46538204 46408104 
2813.860 46300344 46213728 46147508 46100340 46071052 46059412 46065268 
2817.235 46089324 46132252 46195264 46279444 46385356 46513644 46664580 
2820.610 46838084 47034104 47252196 47491720 47751320 48029536 48324408 
2823.985 48633900 48956000 49288472 49628996 49974656 50321676 50665692 
2827.361 51001524 51323816 51626908 51906016 52156940 52376236 52562172 
2830.736 52713468 52830240 52913472 52965084 52987696 52984740 52960148 
2834.111 52918900 52866092 52807380 52748036 52692672 52644976 52607128 
2837.486 52580120 52564604 52560528 52569316 52593288 52636224 52703032 
2840.862 52799108 52929564 53099636 53314540 53580076 53903464 54293960 
2844.237 54761852 55318684 55974592 56735280 57600080 58558096 59587656 
2847.612 60652736 61706492 62694744 63555628 64232288 64676216 64852336 
2850.987 64745864 64361692 63724624 62872476 61855012 60727152 59540456 
2854.363 58344788 57183056 56087192 55081684 54181332 53391868 52712312 
2857.738 52135568 51651092 51245588 50905136 50616916 50368480 50149340 
2861.113 49951536 49768200 49595380 49430796 49274512 49128080 48994496 
2864.488 48877748 48781904 48711028 48668552 48656988 48678300 48732600 
2867.864 48819352 48936600 49081188 49249240 49435772 49635532 49842928 
2871.239 50051800 50256124 50450312 50629648 50791004 50933860 51060404 
2874.614 51175164 51285000 51397584 51520608 51660380 51821744 52007144 
2877.989 52217244 52451456 52708456 52986500 53283712 53598668 53930024 
2881.365 54276048 54635616 55006084 55384736 55767788 56150308 56527168 
2884.740 56892988 57243008 57573260 57881388 58166476 58429044 58671404 
2888.115 58897128 59110896 59318840 59527724 59744464 59976756 60232504 
2891.490 60519596 60847396 61226220 61667880 62186652 62797464 63514552 
2894.865 64350784 65313956 66403888 67609208 68905624 70253600 71596752 
2898.241 72870504 74002768 74922408 75574520 75922760 75958080 75698856 
2901.616 75188968 74489360 73664960 72783552 71903184 71068536 70314720 
2904.991 69664888 69132576 68726304 68449016 68300712 68278528 68378888 
2908.366 68597568 68930864 69376272 69931592 70594672 71361712 72226312 
2911.742 73178232 74203816 75284080 76395592 77511672 78600320 79627376 
2915.117 80560464 81368648 82028800 82528000 82863664 83043792 83083112 
2918.492 83001424 82817112 82545672 82197800 81778808 81289648 80729216 
2921.867 80096496 79392648 78622752 77796192 76926888 76032680 75131960 
2925.243 74244184 73386360 72571488 71809160 71104752 70460288 69875152 
2928.618 69346576 68870752 68442616 68055976 67704416 67380456 67076460 
2931.993 66785536 66500300 66215016 65924676 65625472 65315232 64993432 
2935.368 64661108 64320504 63974828 63627512 63281320 62938652 62601848 
2938.744 62272916 61955044 61652260 61369496 61112240 60885780 60693848 
2942.119 60538260 60418140 60329196 60263832 60211532 60159160 60091504 
2945.494 59994596 59855652 59666488 59424904 59135460 58808568 58458576 
2948.869 58101704 57752920 57422112 57114760 56829912 56561628 56299920 
2952.245 56033396 55751060 55443236 55103688 54730204 54324108 53890072 
2955.620 53434844 52966508 52492320 52018608 51550156 51089844 50639852 
2958.995 50201484 49776004 49364416 48967756 48586240 48220024 47868908 
2962.370 47532976 47212704 46909580 46625292 46362608 46123960 45911444 
2965.746 45726676 45570432 45443088 45344212 45273228 45228332 45207300 
2969.121 45206968 45223368 45252600 45291216 45336340 45386144 45439924 
2972.496 45497540 45559248 45625860 45697520 45773984 45853332 45931256 
2975.871 46000764 46051712 46070904 46044600 45959836 45806272 45579084 
2979.247 45279188 44913836 44493976 44034740 43552068 43060928 42575020 
2982.622 42105468 41659940 41243472 40857980 40502580 40175096 39872188 
2985.997 39591852 39333496 39099256 38892976 38718960 38579412 38471984 
2989.372 38387312 38309536 38216972 38084276 37889432 37615864 37257116 
2992.748 36818840 36317748 35779452 35231792 34702160 34212572 33775384 
2996.123 33394926 33068068 32786726 32540850 32321066 32120510 31934276 
2999.498 31759318 31593908 31436182 31284500 31137316 30993494 30852776 
3002.873 30715698 30583712 30458018 30340216 30231290 30131838 30042386 
3006.249 29963034 29893850 29834824 29785602 29745468 29713252 29687706 
3009.624 29667628 29652124 29640560 29632648 29628462 29628108 29631726 
3012.999 29639352 29651272 29667628 29688772 29715026 29746994 29784962 
3016.374 29829324 29880218 29937368 30000204 30067382 30136952 30207064 
3019.750 30275482 30340286 30400090 30454002 30501488 30542190 30575498 
3023.125 30600740 30617558 30625876 30626838 30622358 30616028 30611228 
3026.500 30611834 30620438 30638500 30665702 30700976 30741446 30784624 
3029.875 30827698 30868394 30905324 30937628 30965204 30988404 31008224 
3033.250 31025448 31041358 31056626 31072394 31089724 31109694 31133650 
3036.626 31162840 31198226 31240452 31289768 31346072 31408898 31478040 
3040.001 31553396 31634890 31722248 31814932 31911812 32011208 32111556 
3043.376 32211140 32308928 32404880 32499392 32593102 32686796 32781012 
3046.751 32875496 32970216 33064920 33159614 33254250 33348948 33443414 
3050.127 33537074 33628716 33716764 33799848 33876608 33946324 34008668 
3053.502 34064572 34114820 34161308 34205904 34250464 34296500 34345308 
3056.877 34397272 34452436 34510476 34571000 34633724 34699108 34767056 
3060.252 34837884 34911056 34985860 35060996 35135176 35207572 35277972 
3063.628 35347156 35416424 35487324 35561468 35639832 35723000 35811040 
3067.003 35903596 36000204 36100360 36203276 36308560 36415600 36524176 
3070.378 36634332 36746212 36860140 36976004 37093712 37212564 37332360 
3073.753 37452580 37573812 37696628 37822228 37951260 38083808 38219360 
3077.129 38356728 38494652 38632108 38768552 38904028 39039008 39173772 
3080.504 39308176 39441864 39574100 39704676 39833108 39959876 40085004 
3083.879 40208788 40331044 40451772 40571112 40689612 40808656 40929956 
3087.254 41054668 41183796 41317260 41453972 41592696 41732268 41872464 
3090.630 42013516 42156400 42301736 42449864 42600168 42751396 42902240 
3094.005 43051960 43200348 43348272 43496940 43647568 43800956 43957408 
3097.380 44116448 44277084 44438404 44599416 44759464 44918576 45076936 
3100.755 45235356 45394972 45556816 45721448 45888828 46057860 46226960 
3104.131 46394388 46558968 46720512 46879828 47038500 47198080 47359600 
3107.506 47523108 47687892 47853148 48017948 48182404 48347408 48514028 
3110.881 48683380 48855908 49031364 49208972 49387620 49566412 49745236 
3114.256 49923880 50102448 50280748 50458236 50634416 50809180 50982744 
3117.632 51155856 51329784 51505424 51683072 51862480 52042624 52222332 
3121.007 52400796 52577464 52752452 52926384 53099976 53273896 53448600 
3124.382 53624420 53801444 53979472 54158252 54337140 54515424 54692512 
3127.757 54867972 55041736 55213956 55384772 55553964 55720924 55884820 
3131.133 56044744 56200652 56353296 56504600 56656940 56812688 56973408 
3134.508 57139592 57310112 57483572 57658384 57833236 58007436 58181136 
3137.883 58354188 58526360 58696776 58864572 59028672 59188804 59345164 
3141.258 59498312 59649424 59799596 59949748 60100444 60252296 60405612 
3144.634 60560812 60718236 60878004 61039396 61201496 61362816 61522020 
3148.009 61678040 61830140 61978624 62124676 62269592 62415164 62563352 
3151.384 62715456 62872208 63033460 63197920 63363664 63528628 63690780 
3154.759 63848688 64001860 64150780 64296372 64440132 64583092 64726056 
3158.135 64869532 65013984 65159552 65306908 65456472 65608516 65763116 
3161.510 65919624 66077428 66235744 66393772 66551164 66707796 66863568 
3164.885 67018808 67173488 67327520 67480536 67632232 67782176 67929376 
3168.260 68073448 68213656 68349760 68481760 68609912 68734488 68855848 
3171.635 68973664 69087312 69195984 69298928 69395792 69486696 69572552 
3175.011 69653768 69731064 69804216 69873168 69937776 69998856 70057792 
3178.386 70117056 70178704 70244760 70315696 70391080 70469216 70547936 
3181.761 70625944 70702168 70776376 70848960 70920424 70990848 71060456 
3185.136 71129728 71199056 71269640 71342584 71418928 71498840 71581824 
3188.512 71666696 71751816 71836176 71918432 71998752 72077216 72154168 
3191.887 72230304 72306528 72383480 72462320 72543528 72627176 72712248 
3195.262 72796520 72877872 72954056 73023984 73088560 73149920 73211096 
3198.637 73274400 73340768 73409936 73479656 73547592 73612280 73672776 
3202.013 73729904 73785272 73840648 73897480 73956520 74018560 74083744 
3205.388 74152488 74224568 74299224 74375032 74449320 74520048 74585112 
3208.763 74644368 74699056 74751640 74804416 74858944 74915512 74972808 
3212.138 75029120 75083200 75134600 75184040 75233240 75283648 75335704 
3215.514 75388824 75441608 75492384 75540256 75585048 75627360 75668576 
3218.889 75709824 75751840 75794720 75838752 75883456 75928800 75974504 
3222.264 76020320 76065480 76109904 76153128 76195416 76237200 76279184 
3225.639 76321800 76364944 76407640 76448336 76485920 76519544 76549384 
3229.015 76576256 76601512 76626376 76651480 76676936 76702584 76728056 
3232.390 76753272 76778264 76803144 76827656 76851464 76874200 76895792 
3235.765 76916288 76936344 76956592 76977208 76997664 77016728 77032792 
3239.140 77045176 77053840 77059896 77065072 77070696 77077344 77083792 
3242.516 77088104 77088304 77083440 77074096 77062464 77052216 77046712 
3245.891 77048336 77057792 77074368 77096136 77120712 77146400 77172000 
3249.266 77196656 77220056 77241896 77261968 77279984 77295888 77309512 
3252.641 77321040 77330296 77337552 77343200 77348040 77352864 77359040 
3256.017 77367000 77377216 77388704 77399912 77408616 77413608 77413848 
3259.392 77409888 77403040 77395240 77387952 77381896 77377144 77373224 
3262.767 77369416 77365576 77361384 77357064 77352152 77346216 77338136 
3266.142 77326776 77311096 77290824 77266320 77238064 77206912 77173304 
3269.518 77137608 77099776 77059968 77018312 76975424 76932264 76889672 
3272.893 76848816 76810808 76776288 76745728 76718960 76694960 76672424 
3276.268 76649384 76624280 76595704 76563928 76529776 76494928 76460704 
3279.643 76428312 76397328 76367112 76336216 76303320 76268480 76232384 
3283.019 76196016 76160672 76127152 76095568 76065960 76038368 76013104 
3286.394 75991120 75973112 75959504 75949640 75941776 75933888 75924144 
3289.769 75911312 75895448 75877968 75860888 75846248 75835984 75830936 
3293.144 75831608 75837808 75848968 75864312 75882632 75902912 75924184 
3296.520 75945928 75968456 75992736 76019888 76051080 76086136 76124344 
3299.895 76163944 76202648 76239016 76272432 76303280 76332944 76362648 
3303.270 76394168 76428264 76465760 76507216 76553016 76603760 76659416 
3306.645 76719192 76781664 76845024 76907272 76967512 77025632 77082328 
3310.021 77138680 77195352 77252312 77308880 77364392 77418440 77471664 
3313.396 77525248 77580152 77636608 77693712 77749224 77800432 77845376 
3316.771 77883152 77914592 77941192 77964864 77986872 78007608 78026528 
3320.146 78042744 78056064 78066056 78073200 78077408 78078752 78076608 
3323.521 78070504 78060864 78048336 78034808 78021560 78009352 77997376 
3326.897 77983224 77963840 77936720 77900120 77854176 77800464 77740824 
3330.272 77676864 77609080 77536824 77459352 77375552 77285128 77188424 
3333.647 77085416 76976496 76861744 76741096 76614912 76483944 76349376 
3337.022 76212792 76074768 75935032 75791952 75643288 75487096 75322104 
3340.398 75148824 74968400 74783360 74595576 74406336 74215528 74022448 
3343.773 73825568 73623944 73416368 73202152 72981576 72755224 72524456 
3347.148 72291544 72059104 71830152 71606984 71391072 71182000 70978480 
3350.523 70777936 70577872 70376904 70174184 69970352 69766000 69562208 
3353.899 69359248 69157552 68957352 68759136 68564080 68374120 68190824 
3357.274 68015672 67849736 67692872 67544936 67405176 67272928 67147496 
3360.649 67028084 66913888 66803856 66696784 66591524 66487788 66385396 
3364.024 66284412 66185376 66088996 65995836 65906860 65822840 65744376 
3367.400 65671684 65603852 65539696 65476544 65412328 65344764 65273256 
3370.775 65197744 65119328 65038652 64956108 64870572 64780092 64682520 
3374.150 64575440 64457776 64328648 64188228 64036496 63873180 63697912 
3377.525 63510256 63310260 63098556 62875772 62642724 62399480 62144976 
3380.901 61877592 61595444 61296992 60981932 60651404 60307460 59952712 
3384.276 59590128 59221616 58848900 58472864 58094580 57714544 57333024 
3387.651 56950400 56566836 56182436 55797704 55413196 55029816 54648504 
3391.026 54270080 53895140 53523700 53155992 52791736 52431224 52074412 
3394.402 51720768 51369464 51018888 50667256 50313748 49958300 49602880 
3397.777 49250684 48905264 48569380 48243868 47926960 47615344 47304436 
3401.152 46990204 46670300 46343916 46012364 45677536 45341820 45006696 
3404.527 44673408 44342800 44015120 43691096 43371300 43055988 42744780 
3407.903 42437224 42132264 41829196 41527976 41228860 40932572 40639620 
3411.278 40350168 40063456 39778928 39495676 39213372 38932264 38653584 
3414.653 38378372 38107644 37841892 37580528 37323296 37068848 36816388 
3418.028 36564976 36313964 36062520 35809996 35555928 35300144 35042500 
3421.404 34783640 34524000 34264412 34005548 33747632 33491120 33236224 
3424.779 32983192 32731992 32482896 32235194 31988558 31742420 31496246 
3428.154 31249960 31004026 30758696 30514426 30271538 30029638 29788370 
3431.529 29547270 29306660 29066890 28828884 28594014 28363408 28137452 
3434.905 27916596 27700864 27490430 27285566 27086372 26893330 26706084 
3438.280 26523496 26344262 26165802 25986608 25805168 25621552 25436294 
3441.655 25250904 25066892 24885308 24706464 24529904 24354258 24177772 
3445.030 23999010 23816892 23631702 23445122 23259600 23078840 22905874 
3448.406 22742858 22590166 22446178 22308308 22173204 22037896 21900574 
3451.781 21760890 21619826 21478320 21337866 21198958 21061692 20925688 
3455.156 20790732 20656966 20525048 20395566 20268864 20144942 20022894 
3458.531 19901574 19780046 19657232 19533380 19408698 19283600 19158642 
3461.906 19033930 18909562 18786062 18663462 18542970 18425278 18310728 
3465.282 18199940 18092634 17988740 17887736 17789414 17693254 17598562 
3468.657 17504204 17408452 17309858 17207184 17100400 16990196 16878918 
3472.032 16768666 16661713 16559538 16461963 16368367 16277680 16188903 
3475.407 16101247 16014293 15927806 15841197 15753988 15665594 15575535 
3478.783 15483880 15391627 15300012 15210098 15123460 15040580 14962242 
3482.158 14888478 14819596 14755764 14696534 14640841 14587314 14533383 
3485.533 14476786 14415847 14350465 14281702 14212265 14144825 14082221 
3488.908 14025786 13975893 13932029 13892684 13856833 13823617 13792628 
3492.284 13763659 13736607 13711164 13686714 13663017 13640006 13618227 
3495.659 13598569 13582534 13571253 13566057 13567253 13575151 13589098 
3499.034 13608175 13630775 13655564 13680696 13705487 13729425 13753091 
3502.409 13778127 13806686 13841610 13884884 13938529 14003029 14078080 
3505.785 14162557 14254481 14351800 14452773 14555619 14659964 14765568 
3509.160 14873631 14985426 15102190 15224510 15352047 15483708 15617952 
3512.535 15753781 15890170 16026841 16164416 16302550 16440282 16576542 
3515.910 16708540 16834276 16951778 17060492 17160372 17252106 17336582 
3519.286 17413488 17481954 17540394 17587142 17620026 17637624 17638692 
3522.661 17622474 17588178 17535562 17464880 17376480 17270966 17149170 
3526.036 17011696 16858490 16690085 16507529 16312115 16105888 15891889 
3529.411 15672224 15448824 15222314 14992526 14759295 14522146 14281531 
3532.787 14037764 13791568 13542879 13291704 13038008 12782688 12527244 
3536.162 12274166 12026617 11786768 11555149 11330728 11111488 10895144 
3539.537 10680436 10467939 10259719 10058549 9866286 9683290 9507854 9336689 
3543.395 9166029 8992664 8814870 8633161 8449400 8266391 8087645 7915823 
3547.252 7753277 7600874 7458671 7325275 7197647 7072751 6947116 6818253 
3551.109 6685322 6549944 6415112 6284389 6161100 6046782 5940994 5841946 
3554.967 5747388 5655468 5565279 5476351 5388883 5302405 5216515 5130072 
3558.824 5042406 4953685 4865283 4779547 4698348 4623528 4555418 4492942 
3562.682 4433823 4374980 4313200 4245138 4167920 4079143 3977878 3865504 
3566.539 3745740 3625107 3511756 3412627 3332218 3270853 3226053 3192406 
3570.396 3164102 3136167 3105264 3069624 3028749 2983107 2933700 2881163 
3574.254 2826832 2772041 2718223 2667046 2619609 2575743 2534614 2494689 
3578.111 2454534 2413484 2371571 2330195 2290689 2254083 2220745 2190339 
3581.969 2161668 2134063 2106560 2078926 2050329 2019203 1983186 1938785 
3585.826 1883673 1816723 1740002 1659105 1581846 1516572 1468362 1439306 
3589.684 1426806 1425543 1429067 1430928 1426241 1411947 1386717 1351418 
3593.541 1308211 1260257 1211013 1163468 1119915 1081415 1047801 1018009 
3597.398 991208 965737 941197 917057 893948 872367 853011 836578 823100 
3601.738 813074 806203 801954 800028 799464 799033 796908 790336 777290 
3606.078 754753 721197 676660 623201 565236 508142 457888 418087 389532 
3610.417 369767 354181 338032 317838 292506 263860 236575 214993 202595 
3614.757 199877 204949 213601 220563 222121 215424 199479 175645 146874 
3619.096 117343 90763 70614 59413 57922 64914 78534 94906 111145 124336 
3623.918 133318 137958 139616 138555 133550 121486 96497 52951 -11994 -94620 
3628.740 -183556 -262607 -316778 -339656 -333697 -308964 -277144 -248334 
3632.597 -229127 -221212 -222603 -228929 -235817 -240618 -243202 -245420 
3636.455 -249328 -256249 -266382 -277971 -289296 -299097 -307044 -313897 
3640.312 -320453 -326976 -332405 -335153 -333035 -324757 -309792 -289892 
3644.170 -267574 -246116 -229293 -220119 -221477 -235750 -264229 -306845 
3648.027 -362368 -427053 -495601 -560365 -614466 -650894 -665583 -657279 
3651.885 -628528 -584025 -530284 -475279 -426391 -390905 -373856 -377199 
3655.742 -399015 -432382 -468759 -500102 -520819 -529887 -529192 -522209 
3659.599 -512380 -502154 -492854 -484215 -475974 -467832 -459557 -451647 
3663.457 -443868 -436321 -428145 -418215 -405867 -391335 -375842 -362666 
3667.314 -356243 -361772 -384118 -425166 -482594 -548287 -608841 -650662 
3671.172 -664822 -649669 -611356 -562649 -518536 -493251 -498281 -536704 
3675.029 -602091 -676864 -740312 -777886 -785758 -770510 -743156 -714378 
3678.886 -690229 -672166 -657279 -641233 -620554 -594183 -563840 -532932 
3682.744 -504801 -480806 -460716 -443305 -427583 -414540 -407456 -410866 
3686.601 -429337 -465350 -517245 -578730 -640571 -693802 -732737 -755825 
3690.459 -765714 -765979 -759562 -748382 -733299 -714742 -694166 -674052 
3694.316 -656022 -642325 -633028 -627171 -622308 -615657 -605367 -591437 
3698.174 -575785 -561656 -552920 -553151 -564568 -586705 -617146 -651125 
3702.031 -682587 -706538 -718579 -717421 -703594 -679742 -649405 -616054 
3705.888 -582966 -552258 -525320 -502617 -485241 -473856 -469950 -475577 
3709.746 -492126 -520290 -558678 -604077 -650894 -693041 -725096 -743685 
3713.603 -747820 -739617 -722284 -699657 -675342 -652316 -632002 -614499 
3717.461 -599146 -584356 -569432 -554177 -539947 -528795 -523003 -523467 
3721.318 -529755 -539848 -550405 -558247 -561788 -561159 -558347 -556758 
3725.176 -558413 -564766 -574330 -583893 -589385 -587665 -577241 -559670 
3729.033 -538624 -519131 -506291 -504007 -513737 -533494 -559770 -587069 
3732.890 -611356 -631671 -650066 -670545 -696448 -728073 -762308 -792472 
3736.748 -811423 -814234 -800575 -772826 -735945 -694166 -651886 -610827 
3740.605 -573370 -542165 -522176 -520819 -546665 -605863 -697110 -806627 
3744.463 -910132 -979761 -999232 -969677 -906396 -830042 -759827 -711732 
3748.320 -694133 -707464 -744512 -793133 -839897 -875049 -895087 -900113 
3752.177 -892773 -874619 -846775 -810364 -767401 -721821 -678518 -642258 
3756.035 -617312 -605036 -605532 -616418 -634947 -658106 -683150 -707597 
3759.892 -727973 -740080 -740279 -726948 -701609 -668726 -635443 -609305 
3763.750 -595540 -596169 -608510 -626444 -642722 -651423 -650861 -643350 
3767.607 -633888 -627337 -627271 -634517 -646526 -658701 -666972 -668428 
3771.465 -662341 -649934 -633656 -615955 -599113 -584422 -572907 -564766 
3775.322 -559538 -557188 -557122 -559703 -565561 -575852 -591139 -610628 
3779.179 -632498 -652879 -667766 -673854 -670181 -658338 -641597 -624227 
3783.037 -609635 -599874 -594812 -592628 -590775 -587168 -581014 -572940 
3786.894 -564634 -557950 -553912 -553085 -555104 -559141 -564270 -569333 
3790.752 -573370 -575388 -574429 -570425 -563939 -557056 -553052 -554839 
3794.609 -565097 -583694 -607782 -632002 -649603 -655625 -648313 -630381 
3798.467 -607683 -588558 -581378 -591569 -620190 -661811 -705546 -737533 
3802.324 -747092 -730818 -692876 -643714 -594646 -558049 -542396 -551596 
3806.181 -582933 -627072 -670611 -700319 -708589 -695158 -665550 -627535 
3810.039 -588260 -552920 -523103 -498480 -477530 -460021 -447277 -443008 
3813.896 -451283 -475312 -514465 -563079 -610165 -643814 -655625 -643913 
3817.754 -614599 -578003 -546533 -531310 -539583 -573403 -627271 -688277 
3821.611 -740444 -771503 -775670 -755792 -719704 -677360 -638024 -607782 
3825.469 -589385 -581510 -580385 -580021 -576249 -566586 -551960 -535083 
3829.326 -519959 -509766 -506191 -508872 -515292 -522011 -525254 -522275 
3833.183 -512082 -495733 -475941 -456281 -441551 -436222 -443471 -464986 
3837.041 -498778 -540576 -582966 -618139 -640505 -647387 -639843 -622175 
3840.898 -599941 -578797 -563277 -556129 -557552 -565494 -576348 -585977 
3844.756 -590742 -588492 -578896 -563277 -543952 -522639 -500863 -478423 
3848.613 -454692 -429039 -401763 -375974 -357799 -355846 -379682 -436752 
3852.470 -527240 -640968 -756255 -848230 -899650 -905536 -873693 -817475 
3856.328 -750301 -681926 -618900 -564634 -519992 -485308 -459690 -442677 
3860.185 -433177 -429800 -431455 -436983 -446053 -459127 -477265 -500962 
3864.043 -528530 -555567 -576216 -584256 -576977 -555401 -525850 -497620 
3867.900 -480343 -481468 -503047 -540378 -581874 -614102 -627602 -620289 
3871.758 -597922 -569730 -545970 -533196 -533130 -541867 -552324 -556494 
3875.615 -549147 -529291 -500333 -468990 -442015 -425762 -424206 -438241 
3879.472 -464820 -497752 -529655 -553151 -563211 -559042 -543323 -522077 
3883.330 -502088 -490471 -491464 -505662 -528332 -551033 -564171 -560498 
3887.187 -538624 -502088 -459028 -418546 -388521 -374981 -379152 -398187 
3891.045 -425464 -452971 -473392 -482958 -480740 -469123 -451051 -429966 
3894.902 -408449 -388985 -373260 -363394 -360646 -365811 -378292 -396036 
3898.760 -415633 -432945 -444497 -449363 -448337 -444960 -443206 -446814 
3902.617 -457406 -474452 -493880 -511453 -522275 -523003 -512976 -493780 
3906.474 -468693 -441386 -415236 -392990 -375809 -363957 -356574 -352072 
3910.332 -348397 -343331 -335054 -322539 -305388 -284693 -262673 -242076 
3914.189 -226180 -217901 -218728 -228730 -246215 -267773 -289826 -309129 
3918.047 -323665 -333068 -338233 -340252 -340318 -338729 -335451 -330287 
3921.904 -322936 -314129 -305256 -297574 -292475 -290455 -291084 -292839 
3925.761 -294130 -293071 -289263 -282475 -273898 -264991 -257640 -253798 
3929.619 -254759 -261382 -273898 -290554 -309328 -326876 -339557 -344622 
3933.476 -340981 -329194 -311745 -292110 -273667 -258766 -248367 -242076 
3937.334 -237969 -234194 -229458 -223431 -217503 -213496 -213661 -219391 
3941.191 -231346 -248367 -268567 -288269 -304825 -315288 -318433 -314262 
3945.049 -304097 -290753 -276779 -265190 -257971 -255620 -257739 -262607 
3948.906 -267905 -271249 -271349 -267408 -259858 -249527 -237671 -225551 
3952.763 -214556 -205448 -198659 -194420 -191869 -190114 -187531 -182364 
3956.621 -173653 -161299 -146427 -130694 -116583 -106214 -100583 -99788 
3960.478 -103067 -108666 -114661 -119464 -121916 -121187 -117510 -111084 
3964.336 -102405 -92566 -82297 -72590 -64142 -56854 -50692 -44993 -39030 
3968.675 -32503 -25578 -18952 -13617 -10768 -11033 -14512 -20642 -28527 
3973.015 -36744 -44165 -49863 -52646 -51752 -46782 -36976 -22629 -3976 17760 
3977.837 41320 65113 87482 106870 122182 132589 137726 137793 133351 125529 
3982.658 115586 105014 95005 86223 78965 72967 67532 62528 57590 52818 48643 
3987.962 45462 43937 44501 47881 54442 64417 77142 91989 106936 119961 
3992.784 128943 132688 130733 123905 113631 101832 90067 79131 69156 60109 
3997.606 51625 43672 36680 31014 26640 23890 22034 
##END=
