
##TITLE=Z235b_3_e
##JCAMP-DX=5.01  $$ Nicolet v. 1
##DATATYPE=INFRARED SPECTRUM
##ORIGIN=UniL
##OWNER=Nicolet
##LONGDATE=2011/09/22
##TIME=11:38:02
##SPECTROMETER/DATA SYSTEM=Nicolet iS5
##DATA PROCESSING=
Ratio against background
%Transmittance->Absorbance
Truncated
ElementMultiply or ElementDivide
##COMMENTS=
Number of sample scans: 32
Collection length: 51.16 sec
Sample gain: 2.0
Background collected on: Jeu Sep 22 11:28:50 2011 (GMT+02:00);
Number of background scans: 32
Background gain: 2.0
Sample spacing:  1.000
Number of scan points: 12415
Resolution points: 8192
Number of FFT points: 65536
Apodization: N-B fort;
Phase correction: Mertz;
Laser frequency: 15798.0 cm-1
Number of rejected sample scans: 0
Number of rejected background scans: 0
Bench serial number: ASB1000141;
##RESOLUTION=4.000
##XUNITS=1/CM
##YUNITS=ABSORBANCE
##FIRSTX=649.893372
##LASTX=4000.122314
##FIRSTY=0.120226
##MAXX=4000.122314
##MINX=649.893372
##MAXY=0.264295
##MINY=-0.000788
##XFACTOR=1.000000
##YFACTOR=1.000000E-009
##NPOINTS=6950
##DELTAX=0.482117
##ZPD=6100
##XYDATA=(X++(Y..Y))
649.893 120226184 118838896 117665912 116719968 115978272 115398360 
652.786 114938360 114573712 114303280 114140224 114095536 114165824 
655.679 114329016 114554256 114814520 115100896 115424032 115803768 
658.571 116255192 116774032 117334896 117900272 118440792 118944600 
661.464 119424512 119906800 120418688 120972864 121561496 122161944 
664.357 122747400 123295440 123787944 124209168 124537912 124748720 
667.250 124825920 124789080 124705976 124662840 124723200 124899376 
670.142 125157384 125437544 125676080 125826656 125864256 125795144 
673.035 125648080 125460448 125259008 125048400 124813776 124533240 
675.928 124193904 123798080 123362960 122908840 122446360 121971688 
678.820 121469792 120924848 120332528 119703912 119059904 118419728 
681.713 117790664 117164320 116523024 115850400 115142576 114411368 
684.606 113679496 112968280 112287576 111632616 110988864 110343416 
687.498 109692576 109046880 108424768 107844696 107314144 106829240 
690.391 106377800 105950392 105546560 105178800 104864720 104620088 
693.284 104448864 104341416 104279608 104246080 104235424 104258000 
696.177 104336656 104495392 104751856 105108520 105554032 106069032 
699.069 106635296 107241864 107885312 108565184 109278128 110013536 
701.962 110755160 111486496 112196912 112886712 113564448 114241336 
704.855 114922136 115601104 116262120 116886248 117457984 117972352 
707.747 118434872 118856720 119248664 119616144 119961952 120292136 
710.640 120621208 120978640 121402264 121929440 122585360 123369568 
713.533 124251064 125167640 126041904 126789752 127335232 127629904 
716.425 127654704 127428624 127003864 126466024 125922872 125481456 
719.318 125243280 125280368 125623392 126259384 127130656 128146976 
722.211 129185664 130116208 130814000 131168840 131114576 130638496 
725.104 129792288 128681736 127451224 126254960 125211936 124395504 
727.996 123820472 123455536 123243376 123124224 123057616 123022344 
730.889 123013552 123031320 123071352 123121320 123168040 123202672 
733.782 123227800 123255656 123301912 123375504 123473944 123583952 
736.674 123689088 123778520 123852944 123922624 124002144 124100192 
739.567 124214592 124333824 124443376 124535704 124614016 124691536 
742.460 124782368 124893896 125020344 125146552 125255120 125337232 
745.352 125398528 125457432 125535248 125645024 125785816 125942264 
748.245 126092624 126219424 126317624 126395184 126468016 126548632 
751.138 126641672 126741736 126839488 126928152 127008528 127087952 
754.031 127175240 127273080 127374816 127467008 127538248 127585280 
756.923 127618520 127656608 127717432 127810104 127929392 128059712 
759.816 128183376 128290984 128386256 128483352 128597392 128736424 
762.709 128896264 129065128 129230992 129392448 129562168 129764184 
765.601 130024120 130358368 130770920 131253464 131795080 132386936 
768.494 133028072 133724376 134487664 135339312 136317632 137494288 
771.387 138969152 140858928 143257776 146176256 149486448 152876656 
774.279 155906032 158036688 158770640 157813664 155134528 151001616 
777.172 145872544 140310848 134820944 129739392 125238376 121316784 
780.065 117867152 114733816 111778264 108910136 106087256 103310144 
782.958 100602680 97998592 95530600 93230248 91128096 89248040 87608392 
786.332 86217424 85073624 84169984 83500352 83065328 82875496 82948888 
789.707 83304264 83958160 84920256 86196616 87795152 89730808 92025008 
793.082 94701376 97770568 101214472 104967568 108914432 112882976 116641688 
796.457 119936664 122490424 124030136 124344016 123294520 120860856 
799.350 117145224 112368944 106838896 100880960 94832968 88986336 83555456 
802.724 78694280 74477840 70917496 67979632 65602040 63713452 62241444 
806.099 61127496 60326988 59805680 59537376 59494132 59636956 59916272 
809.474 60265964 60608276 60869808 60981932 60894168 60579548 60031464 
812.849 59262972 58300676 57182940 55955296 54664924 53361372 52089392 
816.224 50885092 49776076 48778424 47897912 47133256 46479308 45929636 
819.598 45477932 45119984 44852364 44672380 44579260 44574564 44663312 
822.973 44854352 45160420 45595644 46171456 46894336 47760604 48753400 
826.348 49837020 50956216 52038820 52991512 53716576 54124208 54143648 
829.723 53744852 52943712 51803376 50417076 48897216 47357128 45886916 
833.098 44554920 43400372 42434740 41649656 41021676 40520328 40109788 
836.473 39754964 39427496 39106076 38781232 38454716 38136836 37841348 
839.847 37579624 37358468 37177664 37032188 36915252 36822196 36750864 
843.222 36701968 36676440 36674096 36692884 36730092 36784112 36856748 
846.597 36951800 37075236 37231556 37421736 37643180 37890700 38159336 
849.972 38446100 38751492 39078416 39430144 39809324 40216892 40653772 
853.347 41122016 41627084 42177756 42784120 43455448 44199268 45020260 
856.721 45922236 46911052 47995596 49189564 50510232 51975324 53603356 
860.096 55411836 57417272 59635816 62080520 64754324 67642264 70702792 
863.471 73863976 77016416 80032832 82778344 85124528 86979136 88293200 
866.846 89071824 89371800 89298176 88989880 88587760 88229944 88027576 
870.221 88049848 88330640 88867032 89629296 90564544 91603344 92663464 
873.596 93639720 94414088 94863848 94865704 94328152 93205320 91508760 
876.970 89307576 86718840 83894152 80985192 78140232 75489152 73126896 
880.345 71122784 69515432 68313040 67497912 67027584 66844240 66874116 
883.720 67041308 67278888 67528720 67751888 67928488 68054544 68140704 
887.095 68207224 68283256 68397928 68578472 68844976 69205344 69655440 
890.470 70180184 70760576 71378072 72021248 72688400 73387256 74131536 
893.844 74935088 75809432 76757472 77770632 78822576 79864856 80826064 
897.219 81601768 82070544 82106928 81593488 80454608 78668504 76276976 
900.594 73376936 70110240 66646836 63149364 59769744 56634480 53828184 
903.969 51405940 49390104 47777136 46543924 45655084 45071680 44754100 
907.344 44670364 44799684 45131084 45662220 46395236 47333256 48476420 
910.719 49821784 51359696 53073576 54934896 56896460 58896216 60854220 
914.093 62679968 64293756 65633372 66670560 67416640 67922600 68271232 
917.468 68559000 68894088 69377056 70086760 71079152 72372880 73945760 
920.843 75730536 77624448 79505120 81242864 82739656 83945856 84876944 
924.218 85612824 86293000 87101088 88222720 89839224 92096976 95079080 
927.593 98794368 103150200 107955232 112887624 117518960 121376632 123950080 
930.967 124808344 123682960 120505616 115451864 108900520 101399768 93532576 
934.342 85840960 78784000 72654632 67605064 63664304 60769908 58808912 
937.717 57649572 57173984 57273476 57846256 58790360 59975160 61238384 
941.092 62401124 63264376 63651496 63441076 62578812 61097096 59101440 
944.467 56759448 54258104 51772504 49452404 47392524 45638336 44194720 
947.841 43037876 42129488 41426996 40893548 40496544 40208024 40005468 
951.216 39867576 39775404 39714188 39672400 39643432 39625284 39618820 
954.591 39627168 39653740 39702060 39775076 39875132 40004048 40162916 
957.966 40351804 40569220 40812516 41078488 41363432 41665156 41982416 
961.341 42315616 42666104 43035684 43425532 43836104 44267252 44718364 
964.716 45189136 45679520 46189624 46719184 47267712 47834356 48418816 
968.090 49021720 49645076 50292060 50966572 51671320 52408008 53177228 
971.465 53978724 54813088 55682952 56592088 57545944 58549260 59605520 
974.840 60716444 61882748 63104876 64384596 65725916 67134000 68615112 
978.215 70175816 71823304 73566992 75419696 77398320 79525456 81824728 
981.590 84319024 87027920 89963688 93129888 96518176 100107424 103855688 
984.964 107692456 111522680 115214024 118606864 121540848 123857264 
987.857 125433072 126201528 126157256 125363184 123936640 122048784 
990.750 119895400 117674288 115582552 113779848 112384040 111471240 
993.643 111069080 111168760 111734208 112717232 114064216 115722928 
996.535 117649920 119804712 122149824 124652112 127277256 129990592 
999.428 132757872 135535888 138269984 140892800 143314592 145435264 
1002.321 147155984 148384928 149060736 149159664 148701520 147747824 
1005.213 146398128 144788096 143065440 141388896 139915808 138775184 
1008.106 138073152 137882064 138237792 139150432 140608928 142592912 
1010.999 145075696 148028640 151423776 155226608 159398192 163897408 
1013.891 168678032 173694960 178902592 184242576 189638400 194982128 
1016.784 200118640 204865552 209018368 212375968 214788112 216172624 
1019.677 216542992 216007344 214771888 213119760 211356176 209808800 
1022.570 208771584 208463472 209035680 210548320 212982112 216250672 
1025.462 220224048 224751344 229657776 234768608 239906640 244881664 
1028.355 249516256 253648080 257145280 259931264 261985536 263343936 
1031.249 264079664 264294960 264104544 263616080 262933584 262141712 
1034.142 261290496 260388160 259387888 258194752 256666832 254649136 
1037.035 252005040 248629328 244475024 239551248 233916784 227666624 
1039.928 220922224 213830720 206543904 199220336 192015232 185054624 
1042.821 178440720 172243456 166498928 161223040 156418224 152079520 
1045.714 148200448 144774032 141791216 139242016 137116864 135408144 
1048.607 134112032 133227784 132754040 132683024 132995664 133658928 
1051.500 134624384 135838080 137244592 138791744 140436432 142137504 
1054.393 143846464 145505488 147034448 148334016 149300944 149829248 
1057.286 149829856 149246608 148059072 146293472 144019968 141358928 
1060.179 138465968 135514960 132697464 130187304 128130288 126643584 
1063.072 125799272 125632360 126144320 127307776 129069688 131350312 
1065.965 134054784 137064256 140244080 143463440 146591344 149513376 
1068.858 152143472 154413744 156276688 157700032 158658848 159137424 
1071.751 159130496 158645392 157703648 156340080 154606880 152569360 
1074.645 150309152 147931040 145550128 143292288 141286816 139641744 
1077.538 138445136 137754832 137594528 137958688 138812944 140101456 
1080.431 141738720 143612496 145594016 147529952 149270016 150692720 
1083.324 151717648 152332368 152593120 152622512 152581696 152646000 
1086.217 152993424 153767936 155075856 156976544 159472784 162506624 
1089.110 165952544 169635328 173322480 176748384 179663584 181837696 
1092.003 183101216 183366528 182621744 180930496 178410352 175226048 
1094.896 171558464 167580112 163452272 159296192 155189792 151173664 
1097.789 147252384 143408080 139610128 135827888 132034632 128212136 
1100.682 124354336 120469064 116581312 112731368 108977800 105391440 
1103.575 102042448 99001952 96329024 94065264 92239584 90865552 89945672 
1106.950 89475408 89444752 89839384 90639000 91816848 93338600 95157368 
1110.326 97218688 99455688 101785992 104119560 106351472 108365952 110053624 
1113.701 111311864 112060168 112253640 111880976 110966400 109558704 
1116.594 107729904 105562824 103141328 100553144 97877072 95178072 92510352 
1119.969 89910984 87403344 85003576 82722336 80570032 78558072 76697056 
1123.344 74995528 73458624 72087072 70880320 69840168 68973736 68296560 
1126.720 67831720 67603976 67637272 67946656 68534128 69386152 70474864 
1130.095 71760608 73190896 74705752 76239568 77717128 79066296 80221824 
1133.470 81132896 81776648 82160736 82326504 82337520 82274920 82223904 
1136.845 82254984 82421272 82747032 83224992 83816184 84454232 85058224 
1140.221 85533408 85789168 85752312 85365680 84598816 83444656 81915792 
1143.596 80040800 77859728 75425016 72794216 70030264 67199704 64362308 
1146.971 61573260 58878876 56312896 53899752 51654712 49585088 47693476 
1150.346 45978700 44437524 43065136 41856008 40804396 39904296 39150708 
1153.722 38539436 38067748 37733308 37534576 37469408 37535984 37732732 
1157.097 38059464 38518076 39112204 39846508 40725384 41751124 42923160 
1160.472 44238012 45688576 47263648 48948584 50720392 52547664 54391552 
1163.847 56202164 57924208 59503556 60884828 62020588 62873512 63415276 
1167.223 63631504 63522032 63101352 62395540 61441056 60281264 58958188 
1170.598 57513528 55986504 54410220 52816320 51233996 49688912 48205360 
1173.973 46804720 45503464 44314656 43247344 42305972 41492540 40806724 
1177.348 40246484 39808632 39489072 39283440 39187152 39196872 39310500 
1180.724 39527500 39848216 40272764 40800032 41427800 42153040 42974040 
1184.099 43891532 44909900 46036424 47279496 48646316 50139820 51756868 
1187.474 53485136 55302576 57177312 59063100 60903772 62637024 64195604 
1190.849 65522008 66575804 67339592 67822888 68059504 68102440 68009744 
1194.225 67839816 67642808 67452088 67286936 67151248 67037136 66928388 
1197.600 66804440 66645136 66429600 66138612 65754600 65258428 64631304 
1200.975 63856020 62918968 61815964 60555404 59161164 57669512 56125952 
1204.350 54581020 53079380 51658852 50346452 49156800 48094968 47158852 
1207.726 46341780 45634840 45027684 44510424 44072508 43704468 43398872 
1211.101 43150540 42957836 42822036 42746752 42736552 42796148 42929888 
1214.476 43141720 43435016 43812652 44275544 44822536 45448608 46146256 
1217.851 46905404 47715592 48568232 49456712 50376740 51325312 52299988 
1221.227 53299032 54321972 55371860 56456452 57587936 58783492 60061328 
1224.602 61438196 62927820 64537496 66267044 68106976 70037624 72026520 
1227.977 74025392 75976040 77807800 79442856 80809744 81841896 82487056 
1231.352 82715328 82519744 81922712 80974888 79760264 78387776 76976728 
1234.728 75660016 74562096 73790064 73438768 73579584 74264200 75530824 
1238.103 77402088 79887168 82978640 86650392 90850152 95492408 100467736 
1241.478 105631184 110806312 115807144 120425336 124453264 127713400 
1244.371 130060640 131412592 131758320 131158008 129731832 127636432 
1247.264 125063776 122210056 119260880 116391880 113735848 111374584 
1250.157 109329696 107556392 105950896 104363872 102642472 100648208 
1253.050 98289008 95539976 92441304 89091152 85614552 82154008 78839544 
1256.426 75766440 72997840 70555152 68423568 66559160 64899044 63373780 
1259.801 61909724 60444836 58932340 57342664 55666568 53911568 52098696 
1263.176 50255752 48414856 46608580 44864824 43208400 41659140 40230088 
1266.551 38929328 37759008 36715780 35792220 34978496 34264876 33642000 
1269.927 33102502 32639928 32247790 31919014 31645902 31420618 31236394 
1273.302 31088232 30972070 30884084 30819730 30772352 30735008 30701118 
1276.677 30666090 30629114 30592492 30560498 30537318 30526014 30527614 
1280.052 30541442 30565722 30597468 30632702 30664598 30683054 30676796 
1283.427 30633840 30546560 30414412 30245782 30057156 29870670 29711512 
1286.803 29601326 29558692 29597494 29726592 29953378 30283190 30720178 
1290.178 31266090 31918980 32672972 33516422 34431272 35394460 36373732 
1293.553 37330300 38221860 39002756 39633924 40088964 40357332 40447844 
1296.928 40385656 40208896 39958604 39675376 39395240 39144724 38943752 
1300.304 38804640 38732836 38726968 38778664 38874204 38994384 39118112 
1303.679 39226064 39300776 39328924 39301212 39211448 39056664 38837936 
1307.054 38561416 38237996 37883432 37516980 37157232 36820356 36518840 
1310.429 36260508 36050316 35892764 35791824 35751892 35776176 35865052 
1313.805 36015896 36223336 36481576 36785556 37132980 37523484 37957552 
1317.180 38435460 38955564 39516108 40115528 40753844 41432756 42153328 
1320.555 42913724 43705276 44512004 45309784 46067112 46752356 47334068 
1323.930 47788228 48104112 48287376 48364480 48378036 48387556 48457268 
1327.306 48642092 48981736 49487604 50141084 50894740 51685724 52448872 
1330.681 53126188 53681672 54103380 54403724 54612884 54773952 54936288 
1334.056 55145520 55442860 55859420 56412264 57104636 57924624 58849888 
1337.431 59848652 60885744 61927876 62942372 63900812 64780020 65561040 
1340.807 66232032 66787316 67225584 67546872 67748680 67822224 67752896 
1344.182 67520744 67104064 66485824 65656228 64615272 63372828 61947976 
1347.557 60368144 58665452 56880104 55058172 53248800 51507960 49892956 
1350.932 48456344 47248132 46306060 45653900 45302652 45250060 45483740 
1354.308 45980724 46709296 47625548 48669444 49772584 50857340 51843736 
1357.683 52664688 53265732 53612612 53694080 53520628 53124836 52555628 
1361.058 51882528 51189408 50562900 50092220 49848428 49872364 50173512 
1364.433 50729852 51499192 52425620 53451184 54517308 55560704 56521016 
1367.809 57338656 57959232 58344448 58472256 58340012 57962184 57368340 
1371.184 56600580 55707588 54750200 53796492 52914896 52173980 51627392 
1374.559 51304316 51207004 51313564 51590188 52001168 52521300 53139068 
1377.934 53856088 54684356 55643104 56757256 58053108 59555656 61278904 
1381.310 63213096 65308100 67460168 69526432 71322936 72658712 73374272 
1384.685 73346848 72521640 70921872 68669280 65975896 63106568 60347772 
1388.060 57923188 55958800 54485148 53455420 52784068 52371340 52129852 
1391.435 51985632 51877340 51758808 51591644 51347720 51013148 50590896 
1394.811 50099956 49567856 49021760 48479164 47945900 47421020 46903672 
1398.186 46400692 45929784 45515864 45183072 44947344 44811036 44765452 
1401.561 44796048 44890136 45040292 45246936 45516636 45859664 46285712 
1404.936 46799220 47398368 48075168 48817980 49614284 50453136 51326428 
1408.312 52227484 53150564 54089904 55038808 55991140 56941940 57887292 
1411.687 58823292 59743396 60635632 61483048 62266148 62966384 63573852 
1415.062 64088948 64522736 64892120 65216152 65512800 65797620 66088804 
1418.437 66409408 66784152 67235376 67771720 68382264 69040040 69711032 
1421.813 70364976 70979720 71549040 72082920 72604304 73140896 73715456 
1425.188 74339640 75012264 75723944 76462920 77220880 77991272 78766096 
1428.563 79532704 80270256 80951728 81551824 82053048 82452920 82765112 
1431.938 83017232 83243616 83476736 83746872 84080056 84503656 85055816 
1435.313 85786744 86755416 88017064 89595368 91471208 93588344 95868616 
1438.689 98225776 100562160 102773936 104731232 106287224 107309440 
1441.582 107685240 107351560 106301576 104576872 102254560 99427160 96201280 
1444.957 92679056 88949040 85097200 81204440 77361304 73685696 70307976 
1448.332 67352328 64909780 63013196 61643976 60752112 60283548 60194140 
1451.708 60451384 61028224 61887452 62976040 64236096 65603620 67022944 
1455.083 68454872 69869432 71247624 72575640 73847832 75060352 76208528 
1458.458 77290904 78304120 79246648 80120448 80933968 81698696 82425200 
1461.833 83117936 83767800 84349568 84830376 85178384 85381776 85458896 
1465.208 85457288 85433568 85427312 85451032 85487744 85504320 85458944 
1468.584 85312008 85024856 84549224 83822136 82764512 81292608 79356376 
1471.959 76978120 74278224 71441696 68656824 66050344 63665068 61487968 
1475.334 59491472 57667432 56040560 54658012 53562984 52780140 52305440 
1478.709 52116108 52187616 52508548 53086908 53945480 55108692 56588956 
1482.085 58379996 60460372 62804236 65391100 68215360 71280848 74588064 
1485.460 78122344 81830888 85607736 89302816 92711744 95595136 97716248 
1488.835 98852400 98848072 97659784 95381792 92237536 88513448 84504016 
1492.210 80431280 76420408 72526648 68748576 65067404 61484956 58034284 
1495.586 54786512 51836604 49267720 47125092 45403652 44065764 43058108 
1498.961 42332928 41858344 41613480 41583980 41755356 42109628 42623816 
1502.336 43273848 44027956 44848436 45688464 46475288 47110580 47468288 
1505.711 47406644 46821956 45700800 44139188 42292280 40301120 38250804 
1509.087 36175152 34086324 32000400 29944006 27962990 26110240 24426388 
1512.462 22936928 21644342 20533384 19580830 18762328 18056986 17445942 
1515.837 16914020 16450433 16048709 15709221 15435263 15227975 15081640 
1519.212 14981550 14905109 14830636 14745926 14658730 14594441 14584916 
1522.588 14649100 14784148 14969341 15177362 15387062 15588551 15787626 
1525.963 16000954 16248234 16541157 16879296 17252588 17648838 18060544 
1529.338 18487406 18935970 19414380 19927798 20477076 21058110 21664822 
1532.713 22292926 22940910 23609030 24294300 24988688 25677828 26345212 
1536.089 26972088 27541440 28040706 28459380 28792486 29039116 29202884 
1539.464 29287696 29296664 29235770 29114898 28948650 28751380 28530884 
1542.839 28283974 27997976 27658558 27257942 26803770 26318738 25832980 
1546.214 25371198 24940328 24530256 24119134 23685934 23220346 22731616 
1549.590 22244240 21789982 21390528 21049100 20751560 20476454 20206516 
1552.965 19936818 19677098 19445600 19258454 19118892 19013574 18914720 
1556.340 18789730 18602072 18318920 17918914 17405900 16822944 16243625 
1559.715 15740966 15351533 15071418 14872157 14719566 14583271 14438592 
1563.091 14270436 14074281 13858475 13640690 13441947 13277901 13151484 
1566.466 13053476 12966415 12873535 12764432 12639664 12510431 12393988 
1569.841 12305832 12252694 12232075 12235858 12255761 12284936 12317727 
1573.216 12348441 12368452 12368452 12341418 12288924 12226042 12179049 
1576.592 12176765 12235278 12353759 12518752 12714685 12930538 13163949 
1579.967 13420691 13711335 14045943 14429891 14861871 15334129 15835011 
1583.342 16349856 16860972 17348410 17787652 18153194 18423446 18584398 
1586.717 18635376 18591108 18482322 18349852 18239608 18198904 18265940 
1590.093 18469564 18826718 19339372 19992224 20748016 21551190 22324180 
1593.468 22976994 23426866 23601718 23460194 22998620 22252608 21288764 
1596.843 20187564 19034934 17902858 16843370 15893195 15071453 14384645 
1600.218 13829809 13397145 13072256 12840122 12689540 12614218 12613535 
1603.594 12689881 12845241 13078471 13383682 13748988 14156361 14583888 
1606.969 15001615 15373914 15663635 15832881 15851645 15704378 15392005 
1610.344 14934189 14366390 13736880 13092813 12474182 11907204 11400624 
1613.719 10950291 10544825 10171621 9822427 9496408 9201767 8951836 8759758 
1617.577 8631911 8565940 8551983 8575774 8621028 8671423 8713611 8737275 
1621.434 8739202 8723989 8703875 8693971 8705971 8744240 8804726 8877734 
1625.292 8954069 9027948 9098184 9166435 9235308 9306661 9380836 9457665 
1629.149 9538234 9625221 9721780 9829647 9947337 10069468 10186885 10288896 
1633.006 10366191 10412039 10425446 10411225 10381394 10351227 10336262 
1636.382 10346442 10383871 10444282 10519229 10599418 10675376 10738510 
1639.757 10784126 10811266 10824616 10831852 10841771 10859607 10884952 
1643.132 10911419 10928442 10925010 10892732 10829440 10741125 10642030 
1646.507 10550393 10483146 10451511 10458843 10501339 10570695 10656530 
1649.883 10745167 10818841 10856991 10835589 10736913 10563768 10355774 
1653.258 10179660 10090257 10101346 10186953 10308032 10430128 10532265 
1656.633 10605834 10650519 10670962 10672965 10661046 10636223 10597449 
1660.008 10542211 10468889 10378204 10273289 10158936 10041764 9928556 
1663.384 9825580 9737977 9668179 9615668 9575832 9540402 9498643 9437991 
1667.241 9348503 9224781 9069763 8894712 8716518 8552895 8416055 8309754 
1671.098 8230291 8169311 8116644 8060978 7991752 7899255 7777631 7628356 
1674.956 7463861 7304787 7172247 7079183 7024998 6998059 6981358 6959574 
1678.813 6923885 6873490 6815324 6758581 6709684 6666817 6618940 6548632 
1682.671 6439022 6282910 6093185 5901627 5746817 5652816 5617302 5620659 
1686.528 5637811 5650534 5647848 5626667 5589142 5539673 5483296 5424579 
1690.385 5368016 5318438 5279866 5254176 5239118 5227247 5206522 5163701 
1694.243 5088365 4980363 4853054 4731643 4641010 4591715 4575039 4568343 
1698.100 4546076 4485845 4377724 4231151 4076601 3954304 3891213 3889241 
1701.958 3929127 3986238 4038875 4073992 4086033 4075297 4047069 4009279 
1705.815 3971090 3939325 3917859 3906860 3904352 3906793 3910671 3913479 
1709.673 3914683 3915419 3918260 3925583 3938723 3957113 3978346 3999480 
1713.530 4017973 4032353 4042487 4047671 4046166 4034828 4010382 3972963 
1717.387 3928525 3888271 3865738 3869650 3900775 3952231 4012990 4071417 
1721.245 4118378 4149420 4164842 4168187 4164608 4158720 4153201 4148183 
1725.102 4143533 4138883 4134668 4131122 4127777 4122593 4112524 4095466 
1728.960 4071450 4043490 4016067 3992993 3973933 3952900 3919197 3859654 
1732.817 3766061 3640878 3502904 3379700 3297394 3265478 3275493 3308512 
1736.675 3344873 3370283 3376127 3360867 3328846 3288180 3247785 3214337 
1740.532 3191205 3178822 3175484 3179823 3190604 3206092 3224451 3243312 
1744.389 3261005 3276729 3291151 3305574 3321467 3339330 3358196 3375994 
1748.247 3390486 3400371 3405247 3406048 3404745 3403443 3404412 3409488 
1752.104 3420007 3436071 3456043 3476183 3490946 3493485 3478220 3442350 
1755.962 3388482 3323904 3259736 3205357 3165104 3136334 3111504 3081504 
1759.819 3038892 2981105 2911384 2838338 2772374 2722491 2693018 2683282 
1763.677 2688750 2703186 2720924 2736062 2743797 2740330 2724125 2696952 
1767.534 2663612 2631276 2606508 2592042 2585342 2579342 2566310 2540646 
1771.391 2502887 2461399 2429644 2420114 2437974 2479760 2535814 2595742 
1775.249 2652144 2702286 2748065 2792382 2837338 2881597 2921291 2951347 
1779.106 2968261 2972831 2969062 2963657 2962289 2966659 2974833 2982139 
1782.964 2983941 2978036 2965992 2951280 2938704 2931565 2930331 2933633 
1786.821 2939471 2946643 2954750 2963824 2972631 2977769 2974766 2958720 
1790.678 2927028 2881864 2829900 2781378 2744798 2724158 2717056 2717590 
1794.536 2718190 2713922 2702720 2685216 2663179 2638077 2609975 2577943 
1798.393 2541013 2499721 2455934 2413150 2375036 2343987 2320801 2304345 
1802.251 2293819 2288290 2287957 2292854 2302347 2314305 2325998 2334592 
1806.108 2338623 2339023 2338390 2339456 2344020 2351682 2359877 2365508 
1809.966 2366174 2362376 2356646 2352815 2353847 2360610 2371538 2384064 
1813.823 2395859 2406820 2418581 2434675 2457733 2489024 2526982 2568543 
1817.680 2609375 2646577 2678448 2705087 2727293 2745731 2760603 2771507 
1821.538 2777643 2778643 2773975 2763504 2747399 2726492 2702820 2679815 
1825.395 2661746 2652011 2651811 2658812 2667680 2671147 2662879 2639943 
1829.253 2604942 2565910 2533081 2515118 2515884 2532814 2559478 2589242 
1833.110 2617609 2643910 2670347 2700352 2736295 2777910 2822930 2868055 
1836.968 2911784 2954917 3001090 3054608 3118579 3193308 3276295 3362537 
1840.825 3446858 3525451 3595739 3657818 3713457 3766595 3822449 3886900 
1844.682 3965372 4060413 4171298 4293121 4418760 4539748 4648512 4740788 
1848.540 4815360 4874230 4920775 4957639 4985323 5001445 5002853 4986631 
1852.397 4952545 4902947 4841628 4772512 4697679 4617233 4530239 4436066 
1856.255 4336525 4235300 4137244 4046099 3962864 3885563 3810950 3736216 
1860.112 3661093 3587654 3520240 3462088 3414196 3374491 3339163 3304806 
1863.969 3270018 3236001 3205591 3181058 3162567 3147448 3131628 3111338 
1867.827 3086142 3059513 3037057 3024779 3025279 3037858 3058012 3081137 
1871.684 3104063 3125655 3146747 3168141 3189703 3209463 3224952 3233898 
1875.542 3236134 3233464 3228891 3225185 3222615 3219511 3213068 3200017 
1879.399 3179756 3153088 3122684 3090914 3058746 3025412 2989346 2949646 
1883.257 2907147 2864386 2824965 2791449 2764671 2743064 2723725 2703953 
1887.114 2682949 2661746 2642477 2627276 2617042 2611009 2608409 2608409 
1890.971 2611975 2620709 2635376 2655645 2677881 2697718 2711522 2718223 
1894.829 2720857 2724859 2736395 2759203 2792716 2832635 2873325 2909682 
1898.686 2940538 2967260 2992916 3020608 3050804 3081537 3109636 3133297 
1902.544 3152654 3170544 3189669 3211733 3235734 3257766 3273591 3280000 
1906.401 3276929 3267848 3257833 3250923 3249220 3251724 3255730 3258668 
1910.259 3259369 3258468 3257633 3257600 3257700 3256498 3251858 3243445 
1914.116 3232329 3221013 3210698 3200718 3187800 3166873 3134465 3090113 
1917.973 3037424 2983107 2933066 2890069 2852179 2814893 2773208 2725325 
1921.831 2673781 2624542 2584809 2558478 2544846 2538880 2534048 2526049 
1925.688 2514684 2503187 2496455 2497122 2504953 2515118 2522949 2524849 
1929.546 2521350 2516451 2515051 2520283 2531515 2543779 2551278 2549845 
1933.403 2539013 2522183 2504153 2488624 2475961 2464198 2450002 2432409 
1937.260 2414017 2399657 2395059 2401922 2417882 2436208 2449203 2451269 
1941.118 2442005 2425579 2408986 2397291 2392527 2392160 2392627 2391527 
1944.975 2390694 2394592 2408786 2436141 2474528 2517817 2557478 2587809 
1948.833 2606675 2615842 2619642 2621609 2622576 2620875 2614875 2604142 
1952.690 2592175 2583576 2583242 2591375 2603142 2610775 2605575 2583342 
1956.548 2545612 2500421 2457700 2425445 2406820 2398824 2395692 2391561 
1960.405 2384631 2375802 2369206 2367806 2371937 2380666 2392427 2407953 
1964.262 2430210 2462965 2507753 2560844 2614809 2659079 2685983 2694851 
1968.120 2691517 2686816 2689617 2703453 2724325 2741497 2746165 2732861 
1971.977 2704520 2671047 2644177 2633476 2643310 2672180 2717757 2778310 
1975.835 2855915 2953882 3073095 3208028 3346509 3471574 3568946 3630821 
1979.692 3657384 3654744 3630954 3592632 3541586 3478287 3403610 3321367 
1983.550 3239272 3167240 3112873 3078701 3060648 3050871 3039827 3022410 
1987.407 2997686 2970329 2944642 2925794 2913885 2907881 2906147 2909215 
1991.264 2920790 2945476 2985509 3039059 3098890 3156526 3204857 3241509 
1995.122 3268716 3292086 3316626 3343938 3371118 3393158 3404879 3405347 
1998.979 3396931 3385010 3373088 3361936 3347210 3322769 3283105 3227589 
2002.837 3162133 3096621 3041662 3005527 2990113 2993383 3008864 3030551 
2006.694 3053441 3073829 3089146 3096254 3092883 3078901 3057945 3038892 
2010.552 3030651 3041762 3074129 3121950 3173314 3214437 3236368 3236101 
2014.409 3218876 3193608 3168942 3150185 3137102 3128425 3123619 3125821 
2018.266 3140739 3173348 3225386 3290150 3357160 3413695 3451234 3468033 
2022.124 3469303 3463124 3456243 3449263 3438743 3418905 3387247 3347744 
2025.981 3310082 3285910 3283339 3302770 3335791 3369348 3392757 3399937 
2029.839 3394160 3382806 3376561 3381136 3398200 3424315 3456043 3490746 
2033.696 3528658 3569814 3613547 3655179 3688093 3706807 3710015 3702429 
2037.553 3694308 3697082 3717333 3755900 3807005 3861226 3909501 3946814 
2041.411 3973230 3991889 4005667 4014696 4016569 4007306 3984900 3950860 
2045.268 3912744 3879445 3861326 3864936 3892250 3939860 4000383 4063858 
2049.126 4118579 4153435 4159088 4130186 4068841 3983697 3890611 3806772 
2052.983 3748748 3725788 3736349 3769403 3808643 3837959 3847954 3837925 
2056.841 3815061 3790126 3771642 3763086 3763153 3767297 3771108 3773782 
2060.698 3777391 3784912 3798549 3816432 3834582 3848088 3854339 3854172 
2064.555 3851965 3852667 3859454 3871722 3885730 3895693 3898669 3894088 
2068.413 3885028 3875534 3868112 3862997 3857448 3848054 3832911 3813323 
2072.270 3792833 3775486 3764122 3758541 3755900 3753193 3748180 3741496 
2076.128 3735480 3732840 3734444 3738822 3742365 3742031 3736616 3728128 
2079.985 3719973 3715997 3717233 3721243 3723449 3718570 3703866 3680541 
2083.843 3652105 3623370 3597443 3574959 3553812 3530829 3504374 3475348 
2087.700 3446157 3419774 3397299 3377296 3355992 3329881 3297428 3260370 
2091.557 3223450 3192774 3172447 3164069 3165938 3175184 3189069 3206459 
2095.415 3227555 3252692 3280201 3307177 3328812 3341434 3343971 3338762 
2099.272 3330649 3324138 3322302 3324372 3327310 3327543 3323437 3316292 
2103.130 3310115 3309247 3316192 3330181 3348045 3365542 3379834 3390887 
2106.987 3401106 3414230 3432097 3455242 3481327 3507747 3532466 3554948 
2110.844 3576696 3598579 3620095 3639073 3651436 3654477 3647661 3633560 
2114.702 3617356 3603791 3596808 3596207 3600216 3605428 3610172 3614449 
2118.559 3619928 3629150 3642415 3657852 3672320 3681844 3684684 3681643 
2122.417 3676163 3671752 3670783 3672655 3674793 3673223 3665537 3650434 
2126.274 3629083 3602655 3571117 3532600 3484099 3423013 3349280 3266012 
2130.132 3178421 3093150 3015036 2946443 2887401 2836370 2793483 2759536 
2133.989 2736795 2725992 2725692 2729960 2732361 2725925 2708821 2682482 
2137.846 2653078 2625942 2605342 2590609 2578376 2564244 2546146 2525816 
2141.704 2507353 2495455 2492590 2497288 2505886 2513651 2518317 2521550 
2145.561 2526249 2536747 2552678 2570843 2584809 2588142 2579376 2560677 
2149.419 2538047 2516884 2498921 2481026 2455234 2413150 2349916 2265108 
2153.276 2163865 2051361 1934858 1818320 1706504 1607320 1535957 1513247 
2157.134 1562160 1698188 1921246 2209688 2527382 2833369 3093183 3291085 
2160.991 3426853 3514228 3569079 3606364 3634830 3657785 3675929 3689463 
2164.848 3699054 3706071 3709881 3708411 3697917 3676130 3642749 3601820 
2168.706 3558456 3518069 3482395 3449797 3415966 3377563 3333554 3289382 
2172.563 3253827 3236401 3243712 3277029 3330949 3395963 3460452 3513426 
2176.421 3547064 3556886 3541586 3503205 3447226 3381570 3317260 3265946 
2180.278 3236034 3232028 3251490 3286611 3326442 3362770 3390186 3409655 
2184.135 3424182 3438142 3453438 3469369 3483999 3495322 3504574 3514361 
2187.993 3528825 3550672 3580004 3614182 3648529 3679705 3707208 3732740 
2191.850 3759744 3789925 3822047 3852333 3875166 3887870 3891180 3889408 
2195.708 3889174 3896696 3914483 3940830 3970856 3999915 4023859 4041952 
2199.565 4054560 4063658 4068841 4069109 4061684 4045497 4022488 3997039 
2203.423 3975805 3964102 3965305 3979517 4003426 4032855 4064928 4096937 
2207.280 4128513 4158352 4185483 4208133 4225029 4236405 4244268 4252064 
2211.137 4262336 4275486 4289541 4298977 4298910 4285993 4261399 4229111 
2214.995 4195687 4166715 4145172 4130855 4121154 4112625 4104362 4096335 
2218.852 4090147 4087137 4087304 4088575 4088508 4085431 4079143 4072086 
2222.710 4067437 4067671 4073423 4082688 4092555 4099580 4102188 4100415 
2226.567 4095599 4088341 4078240 4063356 4041918 4012690 3976774 3937619 
2230.425 3899772 3868012 3845012 3831741 3827362 3830103 3838393 3850495 
2234.282 3865404 3881083 3895593 3906860 3914315 3919498 3925683 3938088 
2238.139 3960858 3995066 4039142 4087672 4134668 4174042 4202445 4219307 
2241.997 4226200 4226099 4221382 4214389 4207229 4201943 4201575 4208534 
2245.854 4224928 4250123 4282011 4315241 4344591 4365776 4376319 4376218 
2249.712 4367817 4353359 4336023 4317650 4300550 4287031 4279100 4279234 
2253.569 4288370 4306205 4330233 4357007 4382711 4404401 4420467 4430744 
2257.427 4435296 4434292 4427095 4413371 4393053 4367851 4340675 4314705 
2261.284 4293389 4278498 4269865 4266720 4267154 4271203 4279234 4292218 
2265.141 4310757 4334015 4359350 4383581 4403463 4417555 4426124 4431413 
2268.999 4435664 4440886 4447113 4453975 4460302 4466026 4472287 4481426 
2272.856 4495889 4516780 4543699 4574872 4607220 4638565 4666630 4690913 
2276.714 4711144 4727155 4738912 4746215 4749297 4749498 4748828 4750168 
2280.571 4755862 4767085 4783667 4804338 4826919 4849669 4871080 4890582 
2284.428 4907605 4921948 4932907 4940849 4945843 4949428 4953048 4958310 
2288.286 4966052 4976073 4987435 4998931 5009992 5021255 5033791 5049714 
2292.143 5069827 5094333 5121422 5148814 5174532 5197133 5216784 5234557 
2296.001 5251594 5268798 5286138 5302741 5318069 5331453 5343126 5353458 
2299.858 5363119 5372009 5379456 5384555 5386166 5384320 5379422 5373049 
2303.716 5366474 5360938 5356846 5353659 5350808 5347286 5342355 5335579 
2307.573 5326388 5314681 5300292 5283556 5265512 5247737 5231807 5218762 
2311.430 5209104 5201962 5196261 5190426 5184089 5177818 5172554 5169503 
2315.288 5169033 5170039 5170509 5168195 5161321 5150256 5136878 5124439 
2319.145 5116661 5116460 5125680 5143919 5169302 5198004 5225469 5245389 
2323.003 5251594 5238514 5202599 5143215 5063290 4969504 4869907 4773282 
2326.860 4687028 4615223 4558699 4515742 4483200 4457490 4436568 4419564 
2330.718 4406309 4396870 4391514 4389840 4391882 4397606 4407346 4421840 
2334.575 4440484 4462277 4485711 4508745 4530406 4550328 4569883 4590443 
2338.432 4612712 4636388 4659363 4679860 4696138 4707794 4716034 4723001 
2342.290 4730538 4739649 4750503 4763601 4779815 4802529 4836066 4885355 
2346.147 4953316 5039925 5141438 5251359 5362213 5466955 5559708 5636939 
2350.005 5696893 5739363 5765317 5776801 5776599 5767433 5752390 5734361 
2353.862 5715962 5699445 5686352 5678497 5677254 5683465 5697900 5720763 
2357.719 5751484 5789124 5832409 5880031 5931084 5984462 6039458 6094965 
2361.577 6149438 6201296 6249765 6295046 6338516 6383134 6431052 6483818 
2365.434 6541097 6600773 6659650 6714766 6764066 6806775 6843463 6874937 
2369.292 6901767 6923482 6939911 6950786 6957014 6961459 6967351 6979203 
2373.149 7000450 7033955 7081406 7143480 7220824 7313481 7421020 7542544 
2377.007 7676378 7820340 7971976 8129438 8291619 8458319 8629849 8806180 
2380.864 8986305 9168365 9349587 9526753 9697012 9858795 10010975 10153068 
2384.721 10284316 10403724 10509860 10601047 10675784 10733246 10773120 
2388.097 10795912 10802230 10792991 10769928 10734401 10688621 10634391 
2391.472 10573649 10507382 10436272 10360220 10278921 10192787 10103042 
2394.847 10011891 9922217 9836866 9758648 9689422 9630539 9582844 9547312 
2398.705 9524551 9514662 9517676 9532545 9557710 9591989 9634605 9685729 
2402.562 9746686 9819208 9904420 10003041 10114437 10236954 10369211 
2405.937 10509690 10658125 10814119 10977713 11148916 11326953 11510916 
2409.313 11700029 11894059 12092776 12296389 12504190 12714889 12925827 
2412.688 13133793 13335332 13527156 13706377 13870413 14016923 14143524 
2416.063 14248146 14329472 14387111 14422596 14438180 14436982 14421636 
2419.438 14394029 14355122 14304987 14243797 14172484 14092386 14005698 
2422.813 13915093 13822660 13730725 13641408 13556724 13479576 13412421 
2426.189 13358157 13318693 13295120 13287467 13295257 13317942 13355868 
2429.564 13409892 13481081 13570228 13677482 13801624 13940925 14093515 
2432.939 14258144 14434001 14621582 14821379 15034302 15261092 15501873 
2436.314 15756873 16026154 16309673 16607214 16918430 17243108 17580966 
2439.690 17932762 18300014 18684976 19090120 19517196 19967172 20439428 
2443.065 20932640 21445074 21975642 22523924 23089638 23672360 24270508 
2446.440 24881200 25500874 26125544 26751998 27378300 28002888 28625050 
2449.815 29243746 29857076 30462746 31058084 31640984 32209464 32762002 
2453.191 33295854 33807404 34291160 34740276 35147212 35504688 35806252 
2456.566 36047000 36222944 36331076 36368756 36334140 36224956 36040160 
2459.941 35778908 35441624 35029748 34546068 33994516 33379968 32708410 
2463.316 31986560 31221332 30420346 29591110 28741470 27880062 27015386 
2466.692 26156618 25313348 24493866 23705880 22955754 22247690 21583854 
2470.067 20964806 20390460 19859570 19371350 18925172 18520356 18156060 
2473.442 17830356 17540152 17281034 17048120 16835310 16637441 16449539 
2476.817 16267911 16090794 15917735 15750140 15590372 15440859 15303856 
2480.193 15179558 15066959 14963408 14865539 14770367 14676004 14582449 
2483.568 14491175 14404545 14324780 14253453 14190868 14136267 14088382 
2486.943 14045771 14007375 13972438 13940445 13911159 13884645 13861040 
2490.318 13841234 13826218 13817221 13815477 13821018 13833914 13852967 
2493.694 13877050 13905000 13936134 13970282 14007546 14047894 14091017 
2497.069 14135891 14181317 14225994 14268896 14309027 14346218 14380364 
2500.444 14411668 14440509 14467709 14493641 14518891 14543627 14568126 
2503.819 14592351 14616098 14640087 14664694 14690775 14719018 14749079 
2507.195 14779965 14809585 14835538 14855459 14868489 14874317 14874180 
2510.570 14869551 14861562 14850419 14835470 14815517 14789222 14755558 
2513.945 14714493 14665928 14610684 14549007 14481925 14410470 14336149 
2517.320 14261466 14188916 14120829 14059187 14004124 13955398 13911740 
2520.696 13872260 13836548 13804702 13776861 13753536 13734248 13718619 
2524.071 13705316 13693963 13684355 13677071 13672797 13672181 13675156 
2527.446 13681824 13691638 13704563 13721217 13742181 13768345 13799571 
2530.821 13834906 13872501 13910372 13947015 13982190 14016683 14051897 
2534.197 14089580 14130414 14174607 14221543 14270402 14320568 14372041 
2537.572 14424821 14478774 14533829 14589507 14645399 14702154 14760974 
2540.947 14823676 14892422 14968243 15050801 15138214 15227598 15315732 
2544.322 15400176 15479486 15553246 15621592 15685380 15744848 15800511 
2547.698 15853088 15903195 15951971 16000336 16048364 16095882 16141582 
2551.073 16184019 16222438 16256696 16287483 16316311 16344694 16373562 
2554.448 16402842 16432332 16460793 16487498 16511591 16532414 16549038 
2557.823 16561016 16567076 16566904 16560260 16547352 16528800 16504914 
2561.198 16475832 16440660 16398782 16349373 16292747 16230142 16163798 
2564.574 16096432 16030487 15967129 15906977 15849857 15795391 15743578 
2567.949 15694862 15650239 15610910 15578042 15552250 15534461 15524778 
2571.324 15523679 15530786 15545416 15566159 15590921 15617574 15644331 
2574.699 15670644 15696991 15724991 15756084 15791440 15831403 15875392 
2578.075 15922168 15970910 16020792 16072053 16124697 16178861 16234236 
2581.450 16290752 16347930 16405905 16465094 16526459 16590621 16658029 
2584.825 16728306 16800488 16873958 16948196 17022964 17098746 17175332 
2588.200 17252002 17327684 17400864 17470812 17537564 17602394 17666714 
2591.576 17732012 17798802 17865914 17931864 17994508 18052912 18107454 
2594.951 18160102 18212724 18267564 18325866 18387736 18453072 18521566 
2598.326 18593772 18670796 18753922 18844158 18941336 19044764 19152826 
2601.701 19264654 19379698 19498134 19621040 19748592 19880414 20015434 
2605.077 20151674 20287508 20421958 20555340 20688692 20823858 20961918 
2608.452 21103640 21248470 21395364 21542450 21687706 21829002 21964072 
2611.827 22090464 22206540 22310750 22402182 22480826 22546922 22601090 
2615.202 22643744 22674850 22694852 22703824 22703126 22694154 22678898 
2618.578 22659732 22638090 22614598 22589468 22562558 22533800 22504206 
2621.953 22475104 22448412 22425874 22408776 22397646 22392762 22394054 
2625.328 22401590 22415894 22437422 22466730 22503754 22548528 22600462 
2628.703 22658824 22723270 22793174 22868258 22948176 23032264 23119898 
2632.079 23210418 23303578 23399590 23498912 23602140 23709518 23821092 
2635.454 23936474 24055040 24176196 24299382 24424600 24551292 24678898 
2638.829 24806858 24934012 25059414 25182744 25303584 25422416 25539596 
2642.204 25655366 25769900 25882954 25994454 26104046 26212152 26318914 
2645.580 26424926 26530402 26635972 26741428 26847402 26954354 27063096 
2648.955 27174548 27289448 27408332 27531486 27658734 27789906 27924900 
2652.330 28063750 28206570 28353718 28504984 28660232 28819040 28981128 
2655.705 29146716 29315912 29489392 29667484 29849978 30036314 30225712 
2659.081 30417112 30609628 30802870 30996910 31191890 31387918 31585034 
2662.456 31782810 31980534 32177564 32373108 32567032 32759108 32949556 
2665.831 33138726 33327338 33516102 33705880 33897384 34091200 34287756 
2669.206 34487160 34689420 34893928 35100652 35309020 35518748 35729332 
2672.582 35940232 36151128 36361480 36570964 36779028 36985388 37189248 
2675.957 37389704 37585156 37774148 37955708 38129600 38296580 38458804 
2679.332 38619032 38780944 38947520 39121628 39305928 39502496 39713208 
2682.707 39939676 40183416 40445260 40725276 41022988 41337596 41667672 
2686.083 42012456 42371392 42743936 43130120 43529248 43940580 44362652 
2689.458 44793880 45233188 45679816 46133576 46595044 47064680 47543292 
2692.833 48031276 48529108 49036744 49553968 50080544 50615952 51159544 
2696.208 51710728 52269228 52834656 53407304 53987616 54575572 55171440 
2699.583 55774456 56383252 56996268 57611432 58227204 58842032 59454536 
2702.959 60063152 60665880 61260628 61844772 62414896 62967880 63499480 
2706.334 64005316 64480908 64921208 65321856 65679468 65991632 66257008 
2709.709 66475512 66647224 66772716 66852400 66886172 66875004 66819468 
2713.084 66720784 66580048 66398056 66175120 65910868 65604968 65256848 
2716.460 64867148 64437016 63968880 63465776 62931260 62369028 61783040 
2719.835 61177352 60556124 59923880 59285532 58645956 58009972 57382292 
2723.210 56767376 56169088 55591436 55037788 54511368 54014816 53550204 
2726.585 53119220 52722784 52362032 52037096 51748688 51496656 51281008 
2729.961 51100912 50955172 50841920 50759420 50705832 50679580 50679764 
2733.336 50705796 50756960 50832868 50931996 51052800 51193284 51351076 
2736.711 51523740 51708864 51904032 52107288 52315948 52527356 52738384 
2740.086 52945996 53146668 53337204 53515080 53678636 53827432 53962248 
2743.462 54085140 54198636 54305748 54409204 54511220 54613068 54715888 
2746.837 54820076 54926024 55033876 55143904 55255912 55369528 55484724 
2750.212 55601452 55720472 55842540 55969580 56103820 56247680 56403588 
2753.587 56574424 56762316 56969896 57199272 57452592 57731420 58036480 
2756.963 58367604 58723140 59100720 59496792 59907144 60327100 60751348 
2760.338 61174068 61589524 61991732 62374920 62734060 63064492 63361748 
2763.713 63622332 63842280 64018404 64148552 64231792 64268828 64262144 
2767.088 64215808 64134188 64022132 63883772 63723052 63543552 63349320 
2770.464 63144924 62935136 62725640 62520572 62323820 62137676 61963492 
2773.839 61801104 61650240 61510644 61382168 61264180 61156408 61057740 
2777.214 60965764 60877088 60786832 60688704 60576124 60442168 60280924 
2780.589 60087928 59861280 59601796 59312612 58999368 58668220 58325728 
2783.965 57978200 57630348 57286292 56948932 56619868 56300636 55991816 
2787.340 55693424 55405516 55127764 54860188 54602812 54355768 54119404 
2790.715 53893896 53679120 53475020 53281052 53097128 52922868 52757952 
2794.090 52602000 52453956 52311796 52172972 52034412 51892532 51744660 
2797.466 51588476 51422572 51246296 51059580 50861848 50652996 50432484 
2800.841 50199700 49954028 49695268 49423184 49137620 48838816 48527108 
2804.216 48203064 47867872 47523216 47171372 46815384 46458400 46103844 
2807.591 45755096 45415128 45086788 44772612 44474816 44195128 43935372 
2810.967 43697140 43481488 43288928 43119912 42973932 42849940 42746936 
2814.342 42663144 42597316 42548452 42515892 42499816 42500764 42519508 
2817.717 42556860 42613620 42690308 42787192 42904616 43042708 43201300 
2821.092 43380308 43579248 43797220 44033272 44286292 44554992 44838444 
2824.468 45134944 45443052 45760288 46083540 46408804 46731804 47047844 
2827.843 47352360 47641004 47909608 48154012 48370556 48555972 48707620 
2831.218 48824728 48907524 48958408 48980588 48978364 48956148 48919060 
2834.593 48871072 48816940 48761072 48707320 48659436 48619708 48589724 
2837.969 48570012 48560600 48561936 48575460 48603956 48651244 48722184 
2841.344 48821836 48955516 49128860 49347600 49618856 49951572 50354936 
2844.719 50838864 51411796 52077928 52835368 53673684 54573320 55502492 
2848.094 56421020 57282548 58034360 58628208 59022292 59185960 59105616 
2851.469 58784176 58241756 57509708 56630096 55650076 54614236 53566656 
2854.845 52545344 51579408 50691384 49895260 49197132 48596656 48088084 
2858.220 47662452 47307984 47012468 46764272 46551888 46365628 46197624 
2861.595 46041284 45893064 45751120 45616180 45490772 45378196 45282936 
2864.970 45208732 45159024 45136008 45141232 45175860 45239620 45332220 
2868.346 45452284 45597372 45764300 45948824 46145848 46350184 46555944 
2871.721 46757412 46949596 47128124 47290248 47435580 47565988 47685376 
2875.096 47799808 47916264 48041376 48181112 48340036 48520768 48724560 
2878.471 48951176 49199884 49469188 49757388 50062548 50382880 50716372 
2881.847 51061448 51415936 51777656 52143900 52510792 52873688 53227300 
2885.222 53566020 53884632 54179268 54447624 54689876 54908504 55108200 
2888.597 55295200 55477344 55662652 55858632 56072944 56312820 56585256 
2891.972 56899028 57264476 57694072 58203564 58810048 59530268 60379336 
2895.348 61366980 62494128 63749372 65106892 66524588 67941664 69288432 
2898.723 70486672 71458728 72143952 72501088 72518072 72212696 71630232 
2902.098 70835656 69898736 68893000 67882152 66915356 66031052 65254272 
2905.473 64599432 64074704 63682416 63421444 63288024 63277564 63385092 
2908.849 63606300 63938396 64379252 64927092 65578804 66328840 67167648 
2912.224 68082368 69055112 70063128 71081680 72080936 73029592 73897872 
2915.599 74657544 75286560 75771872 76108992 76302688 76363912 76308928 
2918.974 76153368 75911792 75595368 75211216 74762976 74252560 73681448 
2922.350 73052488 72371232 71645824 70888008 70112424 69333672 68567648 
2925.725 67828464 67127192 66472576 65870380 65323240 64831452 64393088 
2929.100 64004316 63659588 63352280 63074992 62819900 62579656 62347496 
2932.475 62116876 61882140 61638096 61380448 61105868 60812596 60500892 
2935.851 60172976 59832644 59484784 59134244 58785616 58442996 58109884 
2939.226 57790160 57487844 57207888 56955276 56735240 56550984 56404268 
2942.601 56293888 56215208 56159812 56116224 56070456 56006292 55909200 
2945.976 55766620 55570572 55319960 55020340 54683228 54323396 53957484 
2949.352 53600504 53262096 52947608 52656760 52384272 52121820 51859936 
2952.727 51589520 51302676 50994184 50661748 50305824 49929044 49535548 
2956.102 49130604 48718924 48304968 47892512 47484256 47082956 46690848 
2959.477 46310004 45941936 45587508 45246536 44918356 44602024 44297156 
2962.853 44004120 43724696 43461528 43217916 42997120 42801744 42633644 
2966.228 42493856 42382608 42299656 42244144 42214416 42207880 42221392 
2969.603 42250680 42291620 42340672 42395136 42453776 42516404 42583792 
2972.978 42657184 42737540 42825148 42918880 43015672 43109448 43191748 
2976.354 43251152 43274288 43247856 43160344 43003268 42773660 42473580 
2979.729 42110944 41696960 41246204 40774588 40297196 39827844 39378480 
2983.104 38956724 38567352 38211328 37886320 37588260 37312532 37056328 
2986.479 36819092 36603548 36414228 36255972 36131180 36037460 35965432 
2989.854 35899780 35820216 35703396 35529536 35284152 34961688 34567196 
2993.230 34115536 33629252 33133042 32651682 32205146 31805340 31457022 
2996.605 31158212 30902334 30680778 30485280 30309660 30149098 30000772 
2999.980 29862330 29731632 29606434 29484818 29365294 29247610 29132366 
3003.355 29020980 28914758 28815144 28722566 28637330 28559438 28489134 
3006.731 28426834 28373276 28328960 28293912 28267318 28247976 28234292 
3010.106 28224744 28218450 28215020 28214702 28217992 28225310 28237122 
3013.481 28253492 28274426 28299994 28330340 28365850 28406880 28453612 
3016.856 28506152 28564040 28626360 28691768 28758710 28825378 28890604 
3020.232 28953042 29011982 29066642 29116564 29160856 29198774 29229570 
3023.607 29252748 29268450 29277878 29282734 29285924 29289858 29297302 
3026.982 29309850 29328460 29352992 29382878 29416738 29453436 29491556 
3030.357 29529928 29567630 29603738 29637720 29669044 29697784 29723966 
3033.733 29748272 29771372 29794652 29819528 29847602 29880680 29919866 
3037.108 29965980 30019128 30078250 30142562 30210510 30281060 30353932 
3040.483 30429160 30507424 30589362 30675442 30765736 30859892 30956912 
3043.858 31055450 31154580 31253022 31350024 31445124 31538502 31630542 
3047.234 31722102 31814184 31907852 32003254 32100104 32197472 32293688 
3050.609 32386854 32475396 32558102 32634176 32703444 32766220 32823104 
3053.984 32875172 32923746 32970752 33017978 33067138 33119700 33176206 
3057.359 33236760 33300574 33366978 33435576 33506044 33578240 33652060 
3060.735 33727220 33802856 33878256 33952844 34026620 34100408 34175144 
3064.110 34251900 34331284 34413124 34496736 34581440 34666920 34753596 
3067.485 34842584 34935544 35033516 35137332 35246240 35358840 35473768 
3070.860 35589340 35704584 35819028 35932784 36046136 36159664 36273764 
3074.236 36389476 36507600 36629032 36754432 36883764 37016524 37151240 
3077.611 37286864 37421808 37555456 37687700 37818900 37949600 38080044 
3080.986 38210496 38340440 38469920 38598316 38725732 38851848 38976444 
3084.361 39099256 39220044 39338864 39456524 39574468 39694404 39817784 
3087.737 39945668 40078024 40213988 40352132 40491160 40630416 40769456 
3091.112 40908764 41048844 41189988 41332124 41475044 41618404 41762468 
3094.487 41907424 42054032 42202732 42353932 42507412 42662708 42819296 
3097.862 42976416 43133888 43291308 43448600 43605804 43762988 43920492 
3101.238 44078784 44238816 44401116 44565896 44732724 44900240 45066828 
3104.613 45231052 45391992 45549864 45705544 45860292 46015016 46170536 
3107.988 46326664 46483584 46641228 46800144 46961296 47125576 47293572 
3111.363 47465112 47639196 47814604 47989676 48163452 48335480 48505652 
3114.739 48674520 48842228 49009072 49175540 49342288 49510592 49681632 
3118.114 49856456 50035220 50217288 50400816 50583708 50764112 50941272 
3121.489 51115188 51286940 51457896 51629224 51801436 51974428 52147712 
3124.864 52320656 52493068 52665064 52837200 53009596 53182096 53354364 
3128.240 53525352 53694192 53860212 54023036 54182988 54340968 54498148 
3131.615 54656132 54816356 54980172 55148268 55320640 55496544 55674552 
3134.990 55852788 56029700 56204048 56375252 56543284 56708736 56872100 
3138.365 57033932 57194320 57353632 57511824 57669096 57825512 57981192 
3141.740 58136284 58290936 58445532 58600484 58756900 58915228 59076384 
3145.116 59239996 59405984 59572952 59739560 59904524 60067188 60227668 
3148.491 60386228 60543900 60701772 60860200 61019836 61180476 61342400 
3151.866 61505304 61668952 61832776 61996092 62158280 62318540 62476720 
3155.241 62632620 62786588 62939116 63090124 63239888 63388356 63535572 
3158.617 63681952 63828692 63976908 64128236 64283772 64443780 64607852 
3161.992 64774944 64943632 65112664 65280572 65446688 65610096 65770708 
3165.367 65928108 66082516 66234240 66383540 66530772 66675812 66818504 
3168.742 66957764 67093008 67223768 67349960 67472096 67591280 67708368 
3172.118 67823816 67937792 68049696 68159040 68265144 68367440 68465424 
3175.493 68558384 68645840 68727424 68803552 68875104 68944224 69013816 
3178.868 69086064 69162920 69244712 69330880 69419464 69508352 69595888 
3182.243 69680840 69762616 69841224 69916752 69989200 70059000 70127296 
3185.619 70195560 70265952 70340704 70421168 70507448 70598424 70691832 
3188.994 70785424 70877080 70965136 71049536 71130200 71207760 71282760 
3192.369 71356520 71429744 71504040 71580456 71659696 71741376 71823664 
3195.744 71904432 71981392 72053280 72120320 72184528 72248496 72314048 
3199.120 72382192 72452024 72521288 72588096 72650752 72709120 72764624 
3202.495 72819056 72874504 72932304 72992704 73055352 73119920 73185680 
3205.870 73252000 73318336 73383064 73444504 73501288 73552576 73599488 
3209.245 73644200 73689856 73739168 73793600 73852392 73913352 73973920 
3212.621 74031760 74085992 74137472 74187464 74237624 74288536 74339176 
3215.996 74388016 74433360 74474176 74510920 74544552 74576968 74609776 
3219.371 74644128 74680288 74718384 74758056 74798752 74840200 74881576 
3222.746 74921696 74960048 74996080 75030144 75063304 75097064 75133064 
3226.122 75171832 75213232 75255504 75297040 75336328 75372280 75404912 
3229.497 75434792 75462664 75488992 75514264 75538712 75562528 75586504 
3232.872 75611224 75637096 75664192 75691720 75719024 75745640 75771328 
3236.247 75797208 75823872 75852328 75881960 75911592 75939144 75963096 
3239.623 75982904 75999208 76014288 76029920 76047320 76066160 76084312 
3242.998 76099512 76110216 76116296 76119456 76122928 76130272 76143696 
3246.373 76163872 76189696 76218680 76248736 76278040 76306512 76334400 
3249.748 76362336 76391216 76420608 76449640 76477104 76501720 76522592 
3253.124 76539656 76553528 76565152 76576256 76588000 76601872 76618040 
3256.499 76636408 76655744 76674208 76690016 76701760 76708680 76711648 
3259.874 76711800 76711208 76711600 76713624 76717576 76722872 76728640 
3263.249 76733744 76737464 76738960 76737736 76733544 76726120 76715320 
3266.625 76701168 76683728 76663096 76638784 76610568 76577920 76540688 
3270.000 76499312 76454816 76408392 76361856 76316392 76272824 76231472 
3273.375 76192464 76155776 76121504 76090000 76061184 76034416 76008128 
3276.750 75980696 75949872 75914432 75874384 75830304 75784064 75737592 
3280.125 75692392 75649440 75608544 75569152 75530672 75492664 75454616 
3283.501 75416424 75378272 75340040 75302208 75265640 75231192 75200264 
3286.876 75173320 75150432 75130656 75112464 75094264 75075280 75055152 
3290.251 75034632 75015136 74997888 74983720 74972848 74965128 74960480 
3293.626 74958944 74961184 74967920 74979584 74996160 75017144 75041680 
3297.002 75069568 75100288 75134560 75172456 75213904 75258384 75304256 
3300.377 75349928 75393680 75434824 75473224 75509656 75544704 75579800 
3303.752 75615680 75653344 75693376 75736888 75784664 75836936 75893560 
3307.127 75953232 76014800 76076576 76137728 76197952 76257384 76316472 
3310.503 76375136 76433088 76490144 76546376 76602856 76661008 76722520 
3313.878 76788032 76856288 76924792 76989704 77047672 77096608 77137136 
3317.253 77171608 77203232 77235016 77268624 77303656 77338336 77370848 
3320.628 77399632 77424136 77444496 77460928 77473600 77481688 77484888 
3324.004 77483384 77478000 77470792 77463392 77456928 77450872 77443344 
3327.379 77431352 77412536 77385576 77350848 77309712 77263904 77214192 
3330.754 77160368 77101080 77035048 76961304 76880136 76792264 76698672 
3334.129 76599616 76495040 76384336 76267296 76144520 76017800 75889416 
3337.505 75760872 75632960 75504056 75371368 75232256 75083704 74925040 
3340.880 74756360 74579520 74395952 74207552 74015216 73819640 73621512 
3344.255 73421512 73220192 73017944 72814152 72607672 72397104 72181704 
3347.630 71961448 71738288 71514744 71294120 71078680 70869864 70667384 
3351.006 70469992 70276232 70084352 69893488 69702896 69512352 69321584 
3354.381 69130864 68940840 68753040 68569400 68392112 68223392 68064344 
3357.756 67915160 67775480 67644280 67520744 67404136 67293944 67189608 
3361.131 67090072 66993752 66898548 66802888 66705868 66607780 66509648 
3364.507 66413188 66320112 66231572 66148608 66071600 66001116 65937288 
3367.882 65879748 65827964 65780044 65733784 65685980 65634184 65576492 
3371.257 65511988 65440484 65362408 65278068 65187044 65089264 64983620 
3374.632 64869724 64746828 64614540 64471840 64317816 64150936 63969568 
3378.008 63772812 63560500 63333072 63091696 62837592 62571160 62291924 
3381.383 61998688 61689648 61363504 61019528 60658604 60282520 59894404 
3384.758 59497440 59095368 58690480 58285140 57879872 57474340 57067832 
3388.133 56659092 56247608 55833688 55418540 55004052 54592108 54184636 
3391.509 53782652 53386396 52995784 52610340 52229804 51853856 51482180 
3394.884 51114444 50749180 50385412 50021760 49657748 49294184 48932412 
3398.259 48574940 48223352 47878488 47539628 47204948 46871412 46536840 
3401.634 46199356 45858304 45514500 45168876 44822828 44477640 44133944 
3405.010 43792784 43454788 43120824 42791360 42466676 42146172 41829196 
3408.385 41514812 41202120 40891288 40582572 40276728 39974660 39676432 
3411.760 39381636 39089724 38799892 38511556 38224680 37939944 37658140 
3415.135 37380132 37106088 36835900 36569160 36304704 36041820 35779628 
3418.510 35517632 35255760 34993900 34732956 34473456 34216156 33961836 
3421.886 33710424 33461880 33215120 32969252 32723736 32478146 32232482 
3425.261 31987276 31743348 31500664 31259536 31019862 30781316 30544002 
3428.636 30307954 30073384 29840644 29609484 29379368 29149978 28921024 
3432.011 28693256 28467904 28246208 28029784 27819084 27613464 27411544 
3435.387 27211728 27012602 26813744 26615540 26419222 26226162 26036844 
3438.762 25851444 25668546 25486888 25305198 25123374 24942118 24762796 
3442.137 24586916 24415136 24247208 24081482 23915782 23747384 23574852 
3445.512 23397388 23216220 23034256 22854986 22682528 22519666 22368064 
3448.888 22226976 22094092 21966196 21839594 21711426 21579848 21444586 
3452.263 21306720 21167230 21027712 20888798 20751006 20613776 20477182 
3455.638 20341116 20205926 20071960 19939906 19809938 19682022 19556116 
3459.013 19432120 19309788 19189186 19070592 18953726 18838308 18723824 
3462.389 18609852 18496774 18384384 18273404 18164560 18057782 17953032 
3465.764 17849758 17747370 17645422 17544290 17444116 17345754 17249624 
3469.139 17155684 17063282 16971554 16879536 16786504 16692219 16596681 
3472.514 16500404 16403805 16306851 16210295 16114794 16021065 15930040 
3475.890 15842400 15758008 15676484 15596691 15517669 15438318 15358776 
3479.265 15279385 15201176 15125278 15052619 14983677 14918620 14857207 
3482.640 14799301 14744795 14693209 14643856 14595504 14546368 14495149 
3486.015 14440509 14382727 14322760 14262458 14203501 14147666 14095330 
3489.391 14046456 14000839 13958169 13918754 13883516 13853446 13829330 
3492.766 13811270 13798443 13789310 13782162 13775561 13768994 13762941 
3496.141 13758563 13757776 13762531 13773886 13792868 13819000 13851291 
3499.516 13888168 13928231 13969906 14012919 14057100 14103202 14152766 
3502.892 14206992 14267047 14333615 14407148 14487681 14575253 14669800 
3506.267 14770949 14877952 14989748 15104352 15220735 15337939 15456240 
3509.642 15577354 15703451 15836867 15978679 16128756 16285144 16445581 
3513.017 16607076 16767185 16925114 17080342 17232522 17381862 17527214 
3516.393 17667646 17801634 17928342 18047038 18157616 18259962 18353414 
3519.768 18436478 18507216 18562994 18601588 18620884 18620088 18598820 
3523.143 18557528 18496878 18418018 18321684 18207818 18076606 17927616 
3526.518 17760730 17576516 17376722 17163854 16941272 16712535 16479995 
3529.894 16245071 16007658 15766460 15520485 15268780 15011699 14749525 
3533.269 14483878 14215107 13944346 13671942 13399230 13127987 12860497 
3536.644 12599209 12345816 12100577 11862458 11629778 11400896 11175025 
3540.019 10952771 10735861 10526154 10324590 10130716 9942897 9758546 
3543.395 9574511 9389369 9202173 9013705 8825014 8637826 8453690 8274057 
3547.252 8100710 7935024 7778070 7630008 7489616 7354660 7222711 7090836 
3551.109 6957856 6824379 6692254 6563938 6442115 6327489 6219513 6116606 
3554.967 6016813 5918891 5823174 5729929 5640463 5555010 5473364 5393982 
3558.824 5315386 5236133 5156291 5076599 4998194 4922451 4850072 4780552 
3562.682 4712618 4644024 4572428 4495118 4409856 4314571 4209136 4094964 
3566.539 3975805 3857983 3748681 3654043 3577632 3519472 3476517 3443652 
3570.396 3415065 3386112 3353120 3314489 3269751 3219744 3165871 3109335 
3574.254 3052039 2995585 2941639 2891303 2845242 2802754 2762604 2722791 
3578.111 2681749 2638543 2593542 2547779 2503553 2462232 2425179 2392727 
3581.969 2364308 2339223 2316237 2294219 2271236 2245024 2212186 2169060 
3585.826 2112887 2042139 1958556 1867268 1775467 1691402 1621654 1569176 
3589.684 1534062 1513247 1502075 1495159 1487845 1476142 1457491 1430596 
3593.541 1395925 1355473 1312365 1270293 1232145 1200447 1175196 1155295 
3597.398 1138618 1122174 1104003 1083109 1059526 1034848 1011101 990677 
3601.256 975102 965538 961818 963080 968360 975633 983337 989182 990179 
3605.595 984267 968460 941097 902481 854339 801091 747749 699724 660266 
3609.935 630036 606610 585906 563810 537302 505389 469929 434803 403594 
3614.275 379351 362770 352656 346388 340718 333224 322314 307725 289953 
3618.614 271021 253251 238531 228850 225038 227093 233624 243073 252554 
3622.954 260611 266015 268866 269960 270623 270126 266678 256069 232762 
3627.293 192186 133152 60672 -13717 -75936 -114496 -125957 -115059 -91672 
3631.633 -65732 -45457 -34988 -34391 -40852 -49963 -57815 -62386 -63678 
3635.973 -63215 -62386 -62287 -62287 -61492 -58543 -53176 -46186 -39361 
3640.312 -34391 -32503 -33795 -37009 -40421 -42442 -41680 -38566 -34424 
3644.652 -31111 -31774 -38500 -53640 -78984 -115191 -161697 -217271 -279230 
3648.991 -343265 -403285 -453037 -485506 -495733 -481832 -445788 -392924 
3652.849 -331313 -270322 -219258 -186074 -175177 -187266 -217338 -255885 
3656.706 -292839 -319625 -332207 -331280 -320288 -304097 -286216 -269064 
3660.564 -253699 -239757 -227273 -216145 -206508 -198560 -191737 -185345 
3664.421 -177992 -168387 -156265 -142386 -128839 -119199 -118272 -130561 
3668.279 -160206 -208065 -271448 -341510 -405172 -449925 -467302 -456347 
3672.136 -423809 -381966 -345351 -327241 -338001 -379748 -445490 -517874 
3675.993 -577407 -610694 -614731 -595904 -564833 -530814 -499274 -471539 
3679.851 -445722 -419108 -390044 -358892 -328366 -301150 -279826 -263733 
3683.708 -251646 -240784 -229922 -220020 -214390 -217437 -233995 -266282 
3687.566 -312705 -367466 -422717 -470645 -506258 -528464 -539021 -541006 
3691.423 -536506 -526677 -512744 -495336 -476570 -458829 -444298 -434832 
3695.281 -430264 -429271 -428940 -426027 -418678 -406530 -391070 -375544 
3699.138 -363692 -359355 -364950 -381073 -405603 -434732 -462636 -484414 
3702.995 -495799 -495005 -482858 -461709 -435097 -406331 -378391 -353363 
3706.853 -332108 -315189 -303534 -297938 -299660 -310255 -330452 -359421 
3710.710 -394943 -433110 -468428 -496560 -514465 -520985 -517510 -507217 
3714.568 -493317 -478787 -465648 -454824 -445953 -437778 -428576 -416924 
3718.425 -402557 -386402 -370744 -358097 -350913 -350052 -355151 -364056 
3722.282 -374319 -383655 -391368 -398088 -405636 -416162 -430429 -447807 
3726.140 -465383 -479549 -486267 -483421 -470910 -451878 -430363 -412025 
3729.997 -401829 -402690 -415434 -437215 -463562 -488717 -508574 -522011 
3733.855 -531476 -541006 -553979 -571484 -590742 -606128 -611554 -602985 
3737.712 -580286 -546665 -506258 -463264 -421359 -381801 -346212 -317241 
3741.570 -299494 -300388 -328466 -389911 -483322 -594613 -699194 -769121 
3745.427 -788338 -758008 -693537 -615558 -543058 -491364 -468759 -475742 
3749.284 -505563 -547128 -587996 -618966 -636336 -639579 -630083 -608345 
3753.142 -575058 -531310 -479714 -424901 -372664 -328432 -296514 -278865 
3756.999 -275322 -283303 -299296 -319791 -341543 -361838 -377861 -386104 
3760.857 -384350 -371836 -350516 -324757 -300951 -285223 -281846 -291746 
3764.714 -312076 -337074 -360183 -376173 -383522 -384284 -381867 -379781 
3768.572 -380146 -382463 -384747 -383886 -377365 -364685 -346874 -325883 
3772.429 -304097 -283269 -264892 -249328 -237241 -228266 -222769 -221014 
3776.286 -223133 -229922 -241811 -258832 -280091 -303434 -325055 -340947 
3780.144 -347867 -344457 -332604 -315950 -299395 -287607 -283203 -286581 
3784.001 -295620 -306381 -315122 -318963 -317440 -311745 -304362 -297640 
3787.859 -292938 -291117 -291746 -293534 -295521 -296282 -294693 -289660 
3791.716 -281084 -269660 -257275 -246944 -242473 -247175 -262772 -288170 
3795.573 -319460 -350151 -373326 -384118 -381768 -369850 -355018 -345847 
3799.431 -350714 -374783 -417851 -473293 -528993 -569829 -585183 -571715 
3803.288 -534487 -484613 -434567 -396532 -378854 -384549 -409476 -443471 
3807.146 -472896 -484977 -474286 -442511 -396797 -345847 -297110 -255255 
3811.003 -221179 -193790 -170904 -152489 -139902 -137418 -149441 -179185 
3814.861 -225451 -282077 -336941 -377563 -396036 -391699 -370777 -344656 
3818.718 -325585 -323598 -344192 -386932 -443504 -500102 -541106 -556494 
3822.575 -544051 -509203 -461510 -411429 -367334 -333763 -312010 -299660 
3826.433 -292475 -285587 -276117 -263137 -248533 -235486 -226610 -223895 
3830.290 -227306 -235121 -244394 -252308 -256183 -254990 -248798 -239029 
3834.148 -228167 -219192 -215615 -220749 -236777 -264097 -300156 -340120 
3838.005 -376901 -404047 -417652 -417122 -405536 -387561 -368658 -352932 
3841.863 -342504 -337670 -336809 -337008 -334988 -328068 -314858 -294991 
3845.720 -269792 -241513 -212734 -185974 -162723 -143744 -128806 -117444 
3849.577 -109527 -106910 -113535 -135530 -179516 -250288 -346476 -457207 
3853.435 -562748 -641200 -678518 -672034 -630480 -566520 -492953 -418678 
3857.292 -350350 -291382 -243367 -207601 -183921 -171865 -169944 -175574 
3861.150 -185875 -197467 -208065 -217371 -226379 -236678 -249195 -262441 
3865.007 -273369 -277673 -273269 -260322 -243533 -229491 -225617 -237042 
3868.865 -264329 -302507 -340947 -368261 -377199 -367433 -345086 -318731 
3872.722 -297441 -286250 -285389 -290488 -294726 -291283 -276183 -249924 
3876.579 -216907 -184119 -158119 -144506 -146162 -162889 -190213 -221179 
3880.437 -248169 -264329 -266349 -254858 -234360 -211741 -193989 -187266 
3884.294 -194453 -214125 -239890 -262706 -273336 -266084 -241281 -204123 
3888.152 -163220 -127646 -104757 -99457 -112276 -139538 -174283 -208230 
3892.009 -234062 -247507 -247705 -236313 -216808 -192697 -167029 -142982 
3895.866 -122777 -108699 -101875 -103067 -111514 -125526 -142154 -157987 
3899.724 -170408 -178588 -183126 -186504 -191671 -201176 -216410 -236115 
3903.581 -256878 -274660 -285024 -284594 -272806 -250984 -222040 -189584 
3907.439 -156828 -126421 -99788 -77394 -58808 -43535 -30714 -19581 -9409 33 
3912.260 9343 18621 27634 35985 42380 45627 44435 38238 27237 12889 -2948 
3917.564 -18521 -32006 -42873 -50824 -56125 -58709 -58610 -55429 -49300 
3921.904 -40653 -30647 -21139 -13783 -9641 -9012 -10702 -12988 -13816 -11861 
3926.726 -6891 298 8217 14910 18688 18157 12955 2915 -11232 -27699 -44364 
3932.030 -58378 -66793 -67256 -58875 -42343 -20542 3180 24718 41121 50996 
3936.852 54276 52719 49008 45561 43705 43705 44501 44070 40723 33069 21073 
3942.156 5864 -9840 -23557 -31940 -33596 -27632 -15440 927 18323 33532 44169 
3947.459 49173 48941 44733 38901 33798 30882 30815 33698 38901 45396 52951 
3952.763 60506 67598 73729 78170 80987 82180 82445 83273 85792 91194 99579 
3958.067 110648 122679 134047 143394 149625 152575 152807 151647 150189 
3962.407 150189 152675 158078 166795 178198 191656 206043 219966 232398 
3966.747 242608 250432 255936 259649 262103 263661 264457 264622 264158 
3971.086 263329 262235 261274 260776 260710 261340 262733 264987 268866 
3975.426 274933 283885 295954 311273 328913 348245 368010 386945 404025 
3979.765 418651 429994 437821 441569 441403 437390 430093 420110 408569 
3984.105 396198 383397 370928 358791 347449 336838 327388 319330 313030 
3988.445 309350 308720 312234 320225 332959 349539 368640 387509 403594 
3992.784 414373 418452 415799 408038 397293 386349 377461 371458 368474 
3997.124 367844 368308 368905 368474 366584 362670 356569 348212 
##END=
