
##TITLE=Z235b_3_d
##JCAMP-DX=5.01  $$ Nicolet v. 1
##DATATYPE=INFRARED SPECTRUM
##ORIGIN=UniL
##OWNER=Nicolet
##LONGDATE=2011/09/22
##TIME=11:36:10
##SPECTROMETER/DATA SYSTEM=Nicolet iS5
##DATA PROCESSING=
Ratio against background
%Transmittance->Absorbance
Truncated
ElementMultiply or ElementDivide
##COMMENTS=
Number of sample scans: 32
Collection length: 51.16 sec
Sample gain: 2.0
Background collected on: Jeu Sep 22 11:28:50 2011 (GMT+02:00);
Number of background scans: 32
Background gain: 2.0
Sample spacing:  1.000
Number of scan points: 12415
Resolution points: 8192
Number of FFT points: 65536
Apodization: N-B fort;
Phase correction: Mertz;
Laser frequency: 15798.0 cm-1
Number of rejected sample scans: 0
Number of rejected background scans: 0
Bench serial number: ASB1000141;
##RESOLUTION=4.000
##XUNITS=1/CM
##YUNITS=ABSORBANCE
##FIRSTX=649.893372
##LASTX=4000.122314
##FIRSTY=0.125114
##MAXX=4000.122314
##MINX=649.893372
##MAXY=0.269916
##MINY=-0.000517
##XFACTOR=1.000000
##YFACTOR=1.000000E-009
##NPOINTS=6950
##DELTAX=0.482117
##ZPD=6100
##XYDATA=(X++(Y..Y))
649.893 125113976 123652920 122413944 121411688 120622744 120006024 
652.786 119522024 119150704 118893352 118763152 118765544 118887824 
655.679 119096168 119350672 119619592 119894664 120190568 120534040 
658.571 120945584 121424528 121948040 122480672 122993184 123473504 
661.464 123931920 124391664 124876928 125401184 125962768 126551416 
664.357 127156648 127771288 128387376 128988520 129536600 129966200 
667.250 130206480 130225136 130074456 129873064 129746768 129765080 
670.142 129922616 130165040 130416304 130610344 130701304 130678968 
673.035 130564152 130394120 130200088 129993232 129763336 129490736 
675.928 129161744 128777504 128353984 127910632 127457856 126990960 
678.820 126494496 125952584 125362840 124738608 124104168 123480552 
681.713 122873968 122271960 121651504 120991120 120284576 119544920 
684.606 118799080 118072784 117378704 116711648 116053664 115388032 
687.498 114709096 114027768 113366952 112750400 112190648 111685056 
690.391 111219904 110780608 110362000 109972176 109627488 109344648 
693.284 109130320 108977504 108870288 108792472 108739008 108719936 
696.177 108757056 108873568 109085976 109395664 109791928 110257432 
699.069 110778000 111347312 111966808 112638296 113357528 114109376 
701.962 114871456 115620432 116341200 117032248 117703184 118368288 
704.855 119034976 119699680 120347480 120960432 121524760 122037952 
707.747 122508216 122948552 123368512 123769928 124149192 124506128 
710.640 124850968 125212728 125632672 126153888 126808200 127598640 
713.533 128494264 129428912 130318928 131073352 131611464 131882968 
716.425 131870720 131598368 131124664 130542400 129965704 129505784 
719.318 129266096 129317640 129687000 130355912 131260648 132306368 
722.211 133367032 134310976 135013632 135364976 135298416 134799952 
725.104 133920160 132764984 131480616 130226256 129127040 128262224 
727.996 127651632 127266016 127047640 126934680 126883864 126871568 
730.889 126891184 126941232 127014696 127095800 127166720 127214376 
733.782 127238352 127251504 127273080 127318128 127390760 127483144 
736.674 127581360 127674576 127760736 127846968 127944960 128062072 
739.567 128196120 128336296 128468600 128585320 128688200 128788736 
742.460 128899384 129026992 129166736 129305648 129429224 129530968 
745.352 129617496 129706072 129814896 129953456 130116880 130287928 
748.245 130445840 130576640 130680800 130771680 130868720 130984872 
751.138 131121488 131267680 131407976 131530944 131635744 131730992 
754.031 131828920 131935896 132047920 132152440 132236672 132296432 
756.923 132340744 132389096 132461728 132571192 132715640 132881448 
759.816 133051064 133213592 133369240 133527560 133699000 133887336 
762.709 134084864 134277696 134453600 134613168 134772352 134959984 
765.601 135206160 135530528 135939376 136424992 136975856 137582688 
768.494 138244128 138965584 139759440 140646528 141665664 142887952 
771.387 144413488 146357936 148813616 151786624 155140544 158551248 
774.279 161563984 163627744 164238528 163105888 160214800 155858256 
777.172 150519120 144783056 139167152 134009928 129477352 125555696 
780.065 122125424 119019328 116092576 113252064 110456248 107707184 
782.958 105030112 102458776 100025656 97761808 95697760 93858552 92263968 
786.332 90923640 89837056 88997240 88397488 88037680 87927640 88084912 
789.707 88528240 89274608 90334800 91715832 93427464 95485760 97913016 
793.082 100731560 103949208 107543112 111441008 115520384 119602176 
795.975 123447880 126797736 129367944 130880144 131116864 129937144 
798.867 127319632 123369960 118316984 112478312 106192056 99809080 93633104 
802.242 87889264 82741736 78273848 74503560 71401736 68907680 66948676 
805.617 65447880 64340828 63575424 63110240 62913456 62952140 63183620 
808.992 63554556 63994564 64420724 64753784 64919784 64863608 64555952 
812.367 63990192 63181288 62159656 60969276 59661472 58289232 56907792 
815.742 55565940 54302072 53144272 52107440 51195260 50404908 49730076 
819.116 49165036 48705652 48349780 48096488 47943644 47889848 47933620 
822.491 48076612 48324480 48687304 49178508 49809856 50589220 51514076 
825.866 52568232 53715004 54896580 56036900 57036920 57792772 58209360 
829.241 58211484 57767752 56895328 55662012 54167296 52530948 50873952 
832.616 49292700 47860068 46618652 45581696 44741724 44075408 43551880 
835.990 43133888 42784632 42473068 42175016 41878192 41582340 41296596 
839.365 41034240 40806908 40621424 40477264 40368384 40286724 40226052 
842.740 40183164 40158628 40153796 40169860 40206608 40262732 40338168 
846.115 40435260 40557908 40711228 40899044 41121248 41374548 41653848 
849.490 41954280 42273980 42614312 42978724 43371080 43793664 44247108 
852.865 44731732 45249512 45806128 46410832 47074168 47806132 48614036 
856.239 49502384 50474500 51535644 52694540 53964728 55363284 56907868 
859.614 58616452 60506228 62593280 64893960 67421440 70179328 73151880 
862.989 76296008 79535920 82757056 85825944 88602144 90952960 92784432 
866.364 94048968 94755360 94965136 94788488 94369040 93850856 93374136 
869.739 93051480 92953168 93114448 93534096 94184160 95013592 95954400 
873.113 96925792 97823776 98531504 98927672 98890472 98328976 97197128 
876.488 95505416 93320200 90755848 87960664 85084384 82273688 79658032 
879.863 77332520 75366600 73799168 72637992 71864832 71436424 71293920 
883.238 71363000 71567136 71838792 72119656 72370096 72570512 72717152 
886.613 72821360 72905024 72998464 73132160 73333512 73622328 74005000 
889.987 74475872 75017576 75609968 76233216 76875472 77534880 78219056 
893.362 78941896 79717456 80557824 81467088 82438376 83447504 84448400 
896.737 85371296 86113464 86554088 86567480 86035616 84881296 83081176 
900.112 80675312 77759168 74473352 70987920 67465864 64060412 60899736 
903.487 58070036 55627888 53596868 51974464 50738716 49855528 49287020 
906.862 48994832 48947616 49124336 49512560 50107872 50909904 51918936 
910.236 53133636 54549648 56157136 57939692 59868884 61897920 63964576 
913.611 65988892 67880296 69559176 70963416 72064976 72875400 73445408 
916.986 73858008 74210184 74610920 75162408 75944504 77013840 78388168 
920.361 80043512 81909224 83878928 85826992 87622208 89166496 90411792 
923.736 91376944 92145880 92862224 93714176 94891504 96579592 98928088 
927.110 102021832 105868320 110369944 115325456 120398096 125139624 
930.003 129057336 131620392 132383344 131071744 127622160 122224856 
932.896 115280256 107362512 99078528 90990144 83571600 77124552 71806112 
936.271 67647376 64585628 62507256 61279172 60781384 60901828 61533248 
939.646 62566184 63859016 65235944 66504120 67449688 67883624 67677264 
943.020 66773796 65209300 63097672 60618980 57972372 55344688 52894644 
946.395 50721992 48874672 47357420 46145148 45198068 44471952 43928556 
949.770 43533640 43257448 43074940 42962040 42897192 42863800 42849392 
953.145 42847416 42856376 42877844 42915220 42971664 43049912 43152332 
956.520 43281060 43438164 43625512 43843952 44092644 44369040 44669552 
959.894 44989904 45327184 45680000 46048908 46435540 46841884 47269264 
963.269 47717848 48187036 48676004 49184372 49712320 50259956 50827652 
966.644 51414780 52020440 52643964 53285880 53947956 54633512 55346156 
970.019 56088892 56863260 57669740 58508236 59379772 60287280 61234992 
973.394 62228484 63272276 64369032 65519428 66723064 67980096 69292288 
976.768 70663912 72100920 73610080 75198216 76872576 78642568 80520928 
980.143 82524880 84677176 87001208 89519344 92250232 95204808 98385696 
983.518 101784360 105380416 109133728 112976616 116816352 120523152 
986.411 123939024 126904264 129259808 130881800 131702008 131713360 
989.304 130976768 129607768 127776664 125678616 123511416 121472776 
992.196 119722632 118378776 117515920 117159808 117299472 117897144 
995.089 118904032 120267440 121936936 123871768 126033408 128385592 
997.982 130895240 133526920 136244432 139012192 141785792 144510032 
1000.874 147117216 149517776 151611648 153300800 154494592 155133120 
1003.767 155194448 154699936 153712048 152330480 150690656 148939984 
1006.660 147237184 145740432 144580096 143863808 143665056 144020272 
1009.552 144939024 146409648 148410944 150915824 153896272 157325552 
1012.445 161170608 165394192 169956224 174810832 179911696 185211904 
1015.338 190649104 196142560 201577872 206792912 211598064 215782992 
1018.231 219142400 221525792 222853936 223146176 222517584 221181920 
1021.123 219429024 217568960 215933568 214819344 214447040 214969392 
1024.016 216446912 218860240 222121904 226099952 230640608 235565328 
1026.909 240695104 245848240 250829696 255458272 259569232 263030144 
1029.802 265766704 267763104 269062080 269743680 269916352 269699168 
1032.695 269200640 268523520 267748624 266921312 266045008 265067872 
1035.588 263891728 262371600 260350320 257689808 254283488 250083088 
1038.481 245097168 239384112 233038704 226183504 218967200 211544352 
1041.374 204076832 196723200 189612880 182850160 176506976 170619856 
1044.267 165205312 160265696 155796448 151791664 148244928 145147840 
1047.160 142490976 140264256 138459408 137071424 136098352 135537776 
1050.053 135381312 135609888 136191520 137078976 138220384 139562272 
1052.947 141054576 142656288 144327616 146021616 147680880 149225728 
1055.840 150556480 151568944 152155712 152225328 151718672 150611728 
1058.733 148926352 146728688 144134816 141297632 138388864 135600112 
1061.626 133106488 131055608 129567488 128717168 128542512 129047376 
1064.519 130207240 131971328 134262576 136988384 140032064 143260592 
1067.412 146543296 149748656 152760448 155489680 157865040 159834848 
1070.305 161363024 162420608 162988544 163058864 162637360 161744656 
1073.198 160415968 158704272 156676352 154415680 152028912 149632608 
1076.091 147354480 145325056 143653760 142429568 141711712 141525280 
1078.984 141866576 142703680 143982880 145621536 147509232 149518480 
1081.877 151496112 153290608 154778528 155875856 156566880 156903936 
1084.770 157006704 157033488 157157856 157557424 158376048 159721488 
1087.663 161655216 164181600 167244448 170718656 174428032 178137760 
1090.556 181579248 184500176 186667728 187911248 188143792 187355616 
1093.449 185613856 183040112 179803360 176088240 172070448 167912864 
1096.343 163737200 159619792 155598608 151674576 147825600 144016816 
1099.236 140214048 136388064 132518592 128599568 124639400 120665256 
1102.129 116720320 112866736 109179448 105732112 102598744 99840600 97499992 
1105.504 95605872 94171400 93198544 92681888 92610808 92970528 93740200 
1108.879 94892984 96394712 98199224 100253312 102492120 104835192 107194024 
1112.254 109464648 111530736 113281696 114612320 115438904 115713456 
1115.147 115421400 114583496 113245968 111477880 109360200 106975624 
1118.041 104411864 101748968 99054096 96384240 93778976 91263648 88855480 
1121.416 86565696 84404608 82383664 80513040 78801280 77252712 75867472 
1124.791 74644048 73583472 72692512 71987184 71491736 71232464 71234856 
1128.166 71515176 72075768 72903264 73969016 75233288 76643456 78139712 
1131.542 79656880 81120240 82457208 83602240 84503256 85136336 85508432 
1134.917 85660240 85655232 85575048 85505496 85517800 85665488 85973176 
1138.292 86433592 87007680 87628696 88215208 88672200 88909072 88852392 
1141.667 88445856 87659392 86486400 84939752 83047560 80849144 78396032 
1145.042 75744968 72958680 70103976 67241216 64426260 61706148 59114540 
1148.418 56675624 54404056 52306564 50385300 48638828 47064164 45656924 
1151.793 44411904 43323888 42387576 41598748 40954056 40451736 40090420 
1155.168 39868956 39785212 39836704 40020872 40336680 40784856 41369080 
1158.543 42094696 42966980 43989856 45164392 46488232 47955152 49554304 
1161.919 51270572 53080616 54952384 56846264 58712024 60494040 62137944 
1165.294 63588000 64795868 65722988 66338716 66626252 66582680 66219956 
1168.669 65562816 64646952 63516200 62214028 60783364 59265020 57693200 
1172.044 56100240 54515876 52965872 51474796 50064332 48751320 47549612 
1175.420 46468948 45514612 44689936 43995616 43430656 42992772 42678352 
1178.795 42483152 42402296 42432000 42569320 42813076 43162872 43618296 
1182.170 44177888 44838920 45598660 46455152 47409708 48467124 49635088 
1185.545 50922720 52337548 53882760 55554944 57341304 59218880 61154384 
1188.921 63099704 64996204 66779084 68378112 69733432 70803208 71569240 
1192.296 72041776 72255896 72267088 72135504 71921880 71678456 71440288 
1195.671 71227944 71046296 70887888 70736872 70572424 70373936 70120016 
1199.046 69790904 69368312 68832784 68165440 67349080 66370340 65225428 
1202.422 63923388 62488852 60959056 59380452 57804352 56276268 54834140 
1205.797 53504852 52302640 51231720 50289196 49467924 48758292 48149864 
1209.172 47632428 47195456 46829336 46526808 46282948 46096436 45969416 
1212.547 45906140 45911884 45991956 46150972 46392728 46720180 47135660 
1215.923 47639676 48230392 48902668 49648868 50459092 51323072 52232492 
1219.298 53180636 54162904 55175616 56215288 57278768 58364420 59474448 
1222.673 60615972 61801564 63048936 64377220 65804252 67344280 69005080 
1226.048 70786320 72677856 74659080 76696504 78740432 80731448 82597968 
1229.424 84261128 85648576 86692672 87340376 87560680 87346136 86719528 
1232.799 85732808 84472944 83053176 81597688 80244744 79123784 78345352 
1236.174 78006856 78180648 78918616 80258224 82221272 84816072 88033736 
1239.549 91846448 96199456 101003656 106145048 111472864 116803816 121944968 
1242.925 126680568 130795688 134107024 136465264 137786688 138061488 
1245.818 137354464 135792352 133539944 130798416 127773016 124657408 
1248.711 121634704 118842128 116364120 114221936 112367528 110691848 
1251.604 109038016 107245680 105169256 102711472 99845360 96612120 93113752 
1254.979 89480824 85862240 82394232 79176296 76274280 73710232 71468688 
1258.354 69503920 67751576 66140308 64595276 63053308 61466520 59804160 
1261.729 58055872 56228484 54342884 52427156 50514288 48638160 46827564 
1265.105 45107888 43498812 42013148 40658392 39436456 38344064 37374356 
1268.480 36518048 35765780 35108592 34538636 34049556 33634376 33285946 
1271.855 32996778 32758858 32565602 32411772 32292760 32204398 32141454 
1275.230 32096964 32063964 32035782 32008320 31980462 31954534 31934276 
1278.606 31923436 31924580 31938378 31964344 32000758 32044842 32092612 
1281.981 32136638 32166396 32169960 32134566 32052372 31922578 31753864 
1285.356 31562906 31372320 31207484 31090794 31041286 31073638 31197728 
1288.731 31421970 31752546 32194190 32748674 33414070 34184036 35046340 
1292.107 35982564 36969044 37973212 38956072 39875132 40684668 41345680 
1295.482 41831892 42132740 42256596 42228112 42084184 41864732 41609068 
1298.857 41352536 41121652 40936944 40811968 40753228 40760212 40824964 
1302.232 40933340 41065344 41199132 41314924 41394884 41425940 41398896 
1305.608 41307968 41150244 40927148 40644820 40314612 39953080 39580344 
1308.983 39215872 38876488 38575284 38320068 38116108 37967640 37878840 
1312.358 37854184 37896700 38006844 38181336 38414064 38698388 39028568 
1315.733 39401484 39816660 40274364 40775172 41317548 41900048 42521372 
1319.109 43181868 43883464 44627400 45412004 46228468 47060728 47883928 
1322.484 48666032 49374476 49977520 50450980 50784484 50984904 51080080 
1325.859 51114556 51149408 51249952 51471104 51851724 52400836 53096716 
1329.234 53888724 54710660 55495224 56183120 56738564 57151196 57435500 
1332.610 57624412 57763932 57906148 58099012 58385568 58798440 59355608 
1335.985 60060832 60902248 61857304 62893652 63975096 65067172 66135644 
1339.360 67150240 68085664 68921000 69642872 70244568 70724000 71080752 
1342.735 71311880 71407712 71352416 71124816 70701584 70064720 69204024 
1346.111 68119736 66822060 65331176 63675620 61889360 60014648 58100340 
1349.486 56198652 54368684 52671088 51160964 49890244 48897552 48206620 
1352.861 47827772 47757496 47982424 48478420 49212796 50140860 51201896 
1356.236 52326300 53435636 54448716 55297644 55926952 56301540 56409284 
1359.612 56259716 55884516 55331704 54670600 53985176 53363504 52896408 
1362.987 52657056 52688144 53000460 53572428 54361808 55312436 56365936 
1366.362 57463448 58541448 59539124 60395864 61055416 61477208 61636452 
1369.737 61527520 61163004 60570712 59792296 58876864 57887028 56893740 
1373.113 55968940 55186000 54603528 54254612 54144700 54252924 54545104 
1376.488 54983896 55542252 56207064 56978888 57869384 58898228 60091008 
1379.863 61474268 63072616 64898044 66937312 69134712 71379592 73521536 
1383.238 75369360 76726032 77428224 77350888 76439840 74721648 72325592 
1386.614 69474560 66446744 63542128 60994512 58934960 57394092 56321536 
1389.989 55626608 55203984 54961860 54822748 54722728 54613784 54455852 
1393.364 54219096 53888872 53467412 52974672 52439600 51891264 51348688 
1396.739 50818080 50297828 49785700 49286872 48817980 48403816 48069508 
1400.115 47832876 47698024 47657384 47696844 47802912 47967252 48188740 
1403.490 48473124 48830064 49269320 49796068 50409372 51101924 51862964 
1406.865 52680252 53542668 54441804 55370436 56321876 57289508 58265436 
1410.240 59242540 60215260 61179256 62130716 63063384 63965804 64822176 
1413.615 65613984 66324288 66944852 67477592 67934496 68332896 68690856 
1416.991 69024344 69346224 69671544 70021320 70419488 70890304 71445440 
1420.366 72077216 72760872 73462984 74152368 74805128 75412992 75984056 
1423.741 76540256 77109000 77714272 78369240 79074128 79820424 80596440 
1427.116 81392992 82201968 83013224 83812288 84576432 85277896 85891280 
1430.492 86399872 86802680 87115544 87368656 87598864 87840744 88126224 
1433.867 88481520 88933512 89518208 90283408 91285520 92578048 94184736 
1437.242 96087832 98232624 100541568 102926816 105286928 107513656 109472360 
1440.617 111012736 112000768 112324568 111923544 110793736 108979080 
1443.510 106558040 103623568 100282664 96638192 92779928 88795888 84769752 
1446.886 80796056 76997576 73510504 70464184 67953904 66013888 64625272 
1450.261 63735596 63288332 63236400 63544772 64184500 65116556 66286340 
1453.636 67635064 69097448 70616392 72150600 73666256 75139488 76550920 
1457.011 77891560 79157304 80345440 81457856 82492944 83449552 84328968 
1460.387 85139040 85891680 86597968 87263128 87878432 88418440 88849824 
1463.762 89141112 89282544 89296344 89234688 89158032 89107824 89095912 
1467.137 89103312 89094488 89025624 88855240 88543232 88039096 87276496 
1470.512 86172048 84637952 82622216 80149648 77348712 74414632 71544936 
1473.888 68871528 66436856 64224376 62202596 60360076 58720676 57333060 
1477.263 56242324 55475536 55029928 54882972 55009396 55397120 56053224 
1480.638 57000080 58261912 59850628 61759508 63965924 66442804 69167816 
1484.013 72133664 75342368 78792232 82466144 86308480 90209168 94013712 
1487.389 97512104 100458672 102610280 103738416 103683888 102403736 99997752 
1490.764 96699496 92807328 88626888 84387952 80219120 76176112 72255776 
1494.139 68437144 64720676 61139700 57768060 54704308 52035640 49810116 
1497.514 48023244 46636320 45594208 44847112 44361736 44116264 44095764 
1500.890 44285376 44666468 45215756 45908352 46711508 47585804 48481312 
1504.265 49320204 49995772 50371008 50292024 49646712 48423264 46729516 
1507.640 44737168 42601152 40413476 38209048 35998080 33794472 31623590 
1511.015 29531736 27573638 25791946 24214276 22843810 21665380 20654604 
1514.391 19785768 19036248 18385524 17816718 17318238 16883396 16513448 
1517.766 16213117 15985107 15824702 15716882 15637668 15562724 15476636 
1521.141 15384521 15311132 15289612 15341544 15466300 15644262 15847452 
1524.516 16053591 16251262 16445374 16652485 16893110 17180158 17513898 
1527.892 17884352 18278588 18688160 19112104 19556706 20030320 20538594 
1531.267 21082352 21656986 22254806 22870004 23499784 24144422 24802472 
1534.642 25468512 26130788 26774376 27381652 27935640 28423966 28835860 
1538.017 29165710 29411242 29574156 29655848 29658154 29587280 29455386 
1541.393 29280076 29078688 28860186 28621512 28348978 28026780 27645774 
1544.768 27212502 26748862 26284942 25845184 25436646 25048920 24660100 
1548.143 24248960 23805340 23338574 22873636 22442690 22067422 21751034 
1551.518 21478492 21227418 20979410 20728102 20482704 20261366 20081674 
1554.894 19948786 19851382 19763712 19653696 19484550 19221152 18838724 
1558.269 18336166 17752998 17163060 16643878 16238157 15946161 15741207 
1561.644 15588483 15456172 15317826 15156261 14965842 14753810 14537837 
1565.019 14339403 14175154 14048989 13952182 13867232 13776998 13670232 
1568.395 13546469 13416179 13296418 13203262 13144721 13119928 13122386 
1571.770 13144961 13181197 13225089 13270283 13306838 13323204 13310631 
1575.145 13268643 13211221 13165384 13161798 13219350 13339501 13510133 
1578.520 13715952 13946160 14198194 14477541 14794775 15159829 15577767 
1581.896 16046679 16557816 17098262 17651704 18198592 18717286 19181706 
1585.271 19565440 19846562 20011582 20061236 20011548 19895608 19756396 
1588.646 19642152 19602634 19677792 19898174 20281084 20828238 21522500 
1592.021 22323588 23171798 23984372 24666132 25129624 25299404 25132782 
1595.396 24626854 23820322 22784758 21605722 20374694 19167820 18039994 
1598.772 17029786 16156541 15426680 14836670 14375397 14027805 13777853 
1602.147 13613679 13528967 13523020 13598671 13758427 14001318 14321663 
1605.522 14707330 15139689 15596073 16044892 16448403 16766874 16959290 
1608.897 16993022 16850018 16529694 16051563 15452292 14782571 14093174 
1612.273 13427765 12816130 12269190 11784044 11349128 10951140 10580167 
1615.648 10233630 9918421 9647174 9433522 9285402 9201800 9174286 9189583 
1619.505 9231483 9283744 9332490 9366582 9381513 9380464 9373794 9374742 
1623.363 9393940 9435385 9495493 9566111 9639145 9710429 9779082 9847203 
1627.220 9916827 9988971 10063060 10138755 10217245 10302094 10397684 
1630.595 10507212 10630112 10761470 10892155 11010915 11107476 11173937 
1633.971 11206984 11209194 11189984 11163330 11144938 11146978 11174583 
1637.346 11226568 11296210 11374366 11450936 11515917 11563078 11590505 
1640.721 11602654 11607896 11616403 11634985 11664221 11697986 11725320 
1644.096 11733967 11713509 11659763 11576894 11477982 11381236 11304984 
1647.472 11263666 11263156 11302501 11375045 11471313 11577472 11675113 
1650.847 11742000 11751056 11679266 11523062 11316377 11125425 11010167 
1654.222 10992462 11052039 11152281 11258463 11348856 11413822 11452398 
1657.597 11469238 11470157 11459645 11438451 11404672 11354978 11286790 
1660.973 11199470 11095137 10978053 10854376 10731378 10616802 10517498 
1664.348 10438172 10379528 10337993 10305216 10269659 10217482 10136821 
1667.723 10020876 9871066 9698062 9518556 9350806 9207791 9093989 9006702 
1671.581 8938510 8880000 8820890 8750900 8660100 8541608 8394942 8230494 
1675.438 8067999 7928342 7826277 7763397 7729633 7708991 7685821 7650545 
1679.295 7601481 7544668 7489312 7442322 7402887 7360288 7296902 7194548 
1683.153 7043586 6853730 6654939 6486542 6374963 6321672 6309300 6314108 
1687.010 6317638 6308359 6282473 6241059 6187819 6127326 6063582 6001662 
1690.868 5946939 5904617 5877882 5865589 5860787 5851115 5821831 5760449 
1694.725 5663793 5543230 5423506 5331453 5281074 5266786 5267624 5257731 
1698.583 5212022 5116158 4974330 4813015 4672090 4583009 4554112 4571390 
1702.440 4612477 4655813 4686994 4698416 4688066 4659196 4618572 4574939 
1706.297 4535697 4505865 4487084 4478446 4477141 4480087 4484707 4490130 
1710.155 4496893 4507171 4522773 4544704 4572395 4603369 4634546 4663717 
1714.012 4689540 4711914 4730036 4741726 4742563 4727858 4695535 4650019 
1717.870 4602264 4567137 4555853 4571959 4611037 4663415 4717776 4764472 
1721.727 4798140 4817505 4824775 4823971 4819080 4812647 4805511 4798207 
1725.584 4791373 4785979 4782696 4780853 4777972 4770602 4755896 4733720 
1729.442 4707727 4683042 4664621 4653234 4643354 4623830 4579661 4499303 
1733.299 4381004 4239784 4102088 3996571 3937586 3921938 3934309 3956611 
1737.157 3974768 3979182 3966877 3939993 3904519 3867142 3833847 3808008 
1741.014 3790694 3781703 3780901 3788020 3801758 3820443 3841636 3863465 
1744.872 3884861 3906325 3928993 3954070 3981724 4010482 4037905 4061316 
1748.729 4078842 4089679 4094428 4094428 4091251 4087037 4084528 4086334 
1752.586 4094496 4109213 4128279 4146543 4156780 4151762 4126573 4081183 
1756.444 4021184 3956611 3897498 3849692 3812454 3779631 3742933 3695110 
1760.301 3633026 3559525 3482596 3412593 3358096 3323671 3308546 3308646 
1764.159 3318295 3332218 3345340 3353354 3352686 3341400 3320365 3293088 
1768.016 3266046 3245415 3234432 3231494 3230493 3223850 3205157 3173448 
1771.874 3134966 3102194 3087510 3097488 3130761 3179623 3234699 3288714 
1775.731 3338729 3385444 3431395 3478220 3524683 3566774 3599548 3619327 
1779.588 3626544 3624907 3621298 3621499 3627780 3638372 3648630 3653542 
1783.446 3650200 3639642 3625341 3612645 3605528 3605495 3611743 3622301 
1787.303 3635431 3650200 3666105 3681911 3694375 3698920 3690265 3664735 
1791.161 3623069 3570315 3516098 3469303 3436138 3416567 3406749 3400104 
1795.018 3391455 3377830 3358730 3335090 3308345 3279199 3247751 3213869 
1798.875 3177987 3141507 3106298 3074129 3046033 3021876 3000856 2983007 
1802.733 2968861 2959720 2957052 2961122 2970162 2981906 2993249 3002291 
1806.590 3008997 3014902 3021876 3030884 3041295 3051038 3057812 3060481 
1810.448 3060281 3060415 3064853 3075831 3093217 3114208 3135300 3153422 
1814.305 3168108 3181425 3197380 3219811 3251056 3290484 3335123 3380602 
1818.163 3422946 3459249 3488742 3511756 3529426 3542755 3552443 3558857 
1822.020 3561663 3560326 3553779 3541085 3522077 3498461 3474012 3454173 
1825.877 3443586 3444654 3455809 3471807 3484567 3486337 3472810 3444854 
1829.735 3409588 3376895 3356459 3353488 3366944 3391321 3420308 3448829 
1833.592 3475114 3500332 3527589 3559592 3597343 3640276 3686723 3736182 
1837.450 3789290 3848790 3917324 3996838 4086769 4184714 4286596 4388000 
1841.307 4485845 4577651 4662678 4740855 4814288 4886058 4960924 5044048 
1845.165 5139058 5246328 5362716 5482592 5598640 5704346 5796142 5873381 
1849.022 5937869 5992457 6038652 6075611 6100006 6107600 6095100 6062204 
1852.879 6011505 5947241 5873818 5793859 5707703 5614886 5514940 5409850 
1856.737 5303110 5199782 5103519 5015791 4935018 4858448 4783433 4709402 
1860.594 4637761 4571290 4511724 4458863 4410258 4362764 4314371 4266017 
1864.452 4221382 4185015 4160293 4147213 4142094 4138515 4130688 4115802 
1868.309 4095599 4075096 4060915 4057169 4064795 4081050 4102222 4125268 
1872.167 4148417 4171332 4193880 4214992 4232757 4245104 4250826 4250759 
1876.024 4247379 4243866 4242528 4243197 4243565 4240453 4230851 4213653 
1879.881 4189765 4161330 4130019 4096001 4058038 4014863 3966007 3913847 
1883.739 3862429 3816666 3779898 3753026 3734210 3719840 3706606 3693139 
1887.596 3679872 3668511 3660091 3654343 3649198 3643183 3635565 3628649 
1891.454 3626043 3631556 3647159 3671418 3700390 3729765 3756235 3779831 
1895.311 3803429 3830972 3865070 3905623 3949556 3992792 4031451 4065397 
1899.168 4096335 4127409 4161296 4198430 4237074 4274382 4308380 4338868 
1903.026 4367884 4396870 4426459 4454276 4476605 4489159 4490599 4482598 
1906.883 4470512 4460737 4458226 4465223 4479584 4497295 4513700 4525685 
1910.741 4532349 4534023 4531043 4523242 4509950 4490632 4467198 4442694 
1914.598 4421672 4407179 4399212 4394928 4388401 4374277 4349410 4315274 
1918.456 4276289 4237576 4201810 4168254 4133297 4092756 4044928 3991956 
1922.313 3939392 3894255 3861192 3840901 3830371 3824554 3819473 3814058 
1926.170 3809646 3808777 3812187 3818805 3824855 3827229 3824822 3820042 
1930.028 3817668 3822348 3836087 3856545 3877941 3893553 3899270 3894456 
1933.885 3882454 3867611 3853069 3838694 3822716 3802159 3777558 3752358 
1937.743 3732974 3725822 3733408 3753461 3779931 3805200 3823351 3833613 
1941.600 3838527 3842873 3850361 3861727 3875300 3888773 3902747 3920969 
1945.458 3948854 3990886 4046902 4111286 4174042 4224895 4257986 4273479 
1949.315 4276624 4275419 4276089 4280974 4288102 4293957 4295965 4294794 
1953.172 4293455 4295396 4301085 4306942 4307009 4295296 4270065 4235200 
1957.030 4199133 4171834 4159256 4162032 4174510 4189397 4200773 4208367 
1960.887 4215594 4228943 4252130 4284923 4323373 4362395 4399179 4434760 
1964.745 4473391 4519090 4572562 4629892 4683142 4724174 4749799 4762194 
1968.602 4767955 4773785 4783768 4796565 4805611 4805544 4793550 4772713 
1972.459 4751072 4736735 4736400 4752077 4782495 4827254 4888304 4971481 
1976.317 5083035 5225000 5389957 5561218 5715794 5833349 5900922 5917380 
1980.174 5889737 5830965 5753129 5664901 5571219 5475176 5380127 5292008 
1984.032 5217957 5163098 5129133 5112370 5104994 5097853 5085348 5065368 
1987.889 5041199 5016897 4997021 4982843 4973291 4966756 4962801 4963605 
1991.747 4971984 4991323 5021121 5058295 5098021 5136376 5172084 5206656 
1995.604 5243679 5285266 5330849 5376101 5415487 5443603 5458735 5462090 
1999.461 5457426 5447964 5434443 5414984 5385897 5345139 5294154 5239621 
2003.319 5190594 5156090 5142176 5149552 5174264 5209574 5248609 5286239 
2007.176 5319042 5344937 5361676 5368855 5366507 5357081 5346481 5339772 
2011.034 5341214 5350908 5365467 5377980 5382408 5377510 5366373 5356544 
2014.891 5355638 5368889 5396565 5434678 5478699 5525578 5577059 5636133 
2018.749 5705723 5784188 5863809 5934410 5985469 6012278 6016343 6005727 
2022.606 5990374 5976869 5966624 5955437 5937701 5909722 5873851 5837111 
2026.463 5808869 5795303 5797317 5808869 5821260 5827271 5823241 5811992 
2030.321 5798492 5788654 5785766 5790098 5799701 5814611 5836237 5867336 
2034.178 5909990 5962324 6017620 6066808 6102022 6119866 6123024 6119026 
2038.036 6117110 6122789 6137273 6156933 6176661 6192860 6205565 6218068 
2041.893 6234774 6256993 6281969 6303216 6312561 6304728 6278675 6240017 
2045.750 6197364 6161772 6141171 6140331 6159016 6192524 6232084 6265934 
2049.608 6282171 6269934 6222841 6142818 6039425 5930144 5833685 5767533 
2053.465 5740874 5751283 5786236 5827573 5857832 5866227 5851451 5820320 
2057.323 5783483 5749973 5724188 5705655 5691018 5676751 5662282 5649963 
2061.180 5642813 5643786 5652447 5666344 5682055 5697397 5712169 5727343 
2065.038 5743963 5761322 5776398 5785464 5785900 5778312 5766459 5756084 
2068.895 5751350 5753095 5757997 5759609 5751887 5731809 5700855 5664431 
2072.752 5628480 5597734 5573435 5553969 5536484 5519168 5502255 5487491 
2076.610 5476585 5469640 5464506 5457393 5446052 5430082 5412233 5396700 
2080.467 5387071 5384153 5384622 5383717 5376403 5361072 5339403 5315922 
2084.325 5295328 5279732 5267759 5255350 5237341 5210982 5177181 5138957 
2088.182 5100904 5065636 5033590 5002451 4969638 4934147 4897653 4864178 
2092.040 4838680 4823602 4819180 4822664 4830739 4841092 4853757 4870310 
2095.897 4892057 4917960 4944502 4966219 4978520 4979894 4973291 4965080 
2099.754 4961929 4968766 4985860 5010026 5035165 5056384 5070732 5078576 
2103.612 5082533 5084913 5087561 5091215 5095473 5101004 5109218 5122327 
2107.469 5141706 5166753 5194919 5221847 5244618 5261655 5274165 5285132 
2111.327 5297240 5311260 5325381 5335914 5339571 5335277 5325113 5313306 
2115.184 5305022 5304183 5311294 5325080 5342757 5362045 5382408 5403979 
2119.042 5427733 5452796 5477122 5497557 5511282 5517927 5518430 5516383 
2122.899 5514940 5515880 5518430 5520812 5520276 5515712 5506786 5494605 
2126.756 5479001 5457661 5426659 5381100 5318103 5238212 5146669 5050920 
2130.614 4960153 4881066 4817237 4769262 4735663 4716134 4710240 4718781 
2134.471 4740185 4769999 4799882 4821123 4825646 4811307 4780987 4743267 
2138.329 4706287 4677516 4659598 4651224 4649047 4650756 4655913 4666161 
2142.186 4682473 4704579 4728361 4748895 4761725 4765477 4763433 4761155 
2146.043 4764807 4776800 4795896 4817170 4834559 4845246 4848765 4848028 
2149.901 4844778 4839014 4827087 4803969 4765242 4710273 4642618 4568510 
2153.758 4493612 4422107 4354698 4293188 4242929 4216798 4234297 4316780 
2157.616 4478547 4718647 5016126 5335780 5639188 5894440 6086397 6215816 
2161.473 6295517 6341374 6368406 6387606 6403309 6418643 6433742 6448471 
2165.331 6460376 6465018 6456341 6428395 6378796 6309367 6227513 6143759 
2169.188 6067681 6005559 5958964 5924165 5896186 5871265 5849133 5832610 
2173.045 5825592 5831704 5851954 5884061 5923325 5964070 6000016 6026019 
2176.903 6037005 6030252 6004618 5962827 5911703 5860787 5820891 5799802 
2180.760 5800306 5818372 5845473 5871231 5888831 5896421 5898033 5899713 
2184.618 5907102 5922956 5945897 5972737 6000150 6027094 6054477 6083306 
2188.475 6113279 6141574 6163956 6176156 6176963 6169267 6158882 6152261 
2192.333 6153438 6161335 6171619 6177870 6176661 6169199 6161302 6160697 
2196.190 6174375 6204288 6247715 6296929 6344635 6384412 6413901 6433708 
2200.047 6445949 6451868 6451734 6444234 6428899 6406941 6381890 6358689 
2203.905 6340870 6330413 6326480 6326581 6328396 6330649 6333641 6338852 
2207.762 6346451 6356000 6365885 6374290 6381217 6388783 6400014 6417600 
2211.620 6441645 6469490 6494782 6512036 6516745 6509110 6492663 6472618 
2215.477 6453650 6437844 6423990 6409395 6391910 6371870 6352166 6336432 
2219.334 6328027 6327657 6332397 6337810 6339491 6334852 6324631 6311754 
2223.192 6299417 6290273 6284121 6279414 6273397 6264085 6250841 6234740 
2227.049 6216421 6196860 6175719 6152833 6127628 6100442 6072217 6044867 
2230.907 6020140 5999277 5983118 5972502 5968203 5971427 5981807 5998437 
2234.764 6017788 6035829 6048059 6052662 6050512 6045472 6043994 6051587 
2238.622 6070772 6100745 6137037 6174140 6206405 6230942 6246673 6254472 
2242.479 6256320 6253463 6247042 6239076 6231648 6228455 6232690 6246606 
2246.336 6269766 6299820 6331153 6358420 6377451 6386227 6384983 6376107 
2250.194 6361951 6345476 6328363 6313469 6303417 6301265 6309502 6328430 
2254.051 6356134 6387741 6416894 6438215 6447732 6444806 6431320 6410539 
2257.909 6385420 6358185 6329909 6301366 6273733 6249194 6229631 6217329 
2261.766 6212926 6215010 6221732 6231043 6242135 6255110 6270640 6289029 
2265.624 6309065 6328262 6343492 6352368 6354587 6351898 6347459 6344366 
2269.481 6344198 6346182 6348838 6349578 6347729 6344501 6342786 6345711 
2273.338 6355529 6372139 6393288 6416087 6437576 6455769 6470937 6483549 
2277.196 6495051 6506150 6517216 6528215 6539752 6552500 6567772 6586846 
2281.053 6609823 6635762 6662981 6689260 6712780 6732500 6748485 6760869 
2284.911 6770157 6776653 6780927 6783216 6784596 6785673 6787120 6789005 
2288.768 6790788 6792000 6792471 6793043 6795635 6802703 6816368 6837203 
2292.625 6864468 6895371 6926713 6956408 6983311 7008498 7033719 7060627 
2296.483 7089725 7120105 7149409 7175481 7197074 7214221 7228068 7240331 
2300.340 7252258 7263815 7274428 7282548 7287198 7287872 7285345 7280425 
2304.198 7274630 7269273 7264893 7262299 7261995 7264320 7269071 7275675 
2308.055 7283054 7289658 7294375 7296936 7298216 7299564 7302664 7308595 
2311.913 7317255 7327465 7337642 7346336 7353514 7359614 7366421 7374948 
2315.770 7385968 7399247 7413571 7427964 7442019 7456041 7471345 7489380 
2319.627 7511224 7537656 7568370 7601953 7635707 7666024 7687574 7694724 
2323.485 7681976 7645925 7585903 7505291 7411482 7313279 7220454 7140954 
2327.342 7079015 7034898 7005837 6987419 6975095 6966206 6959843 6956274 
2331.200 6956510 6961156 6969843 6982334 6997655 7015872 7037188 7061940 
2335.057 7090028 7120778 7152878 7185250 7216748 7247609 7277966 7308157 
2338.915 7338046 7366388 7392406 7414954 7433761 7449502 7463255 7475491 
2342.772 7486009 7493560 7496594 7494402 7488301 7481660 7480345 7490863 
2346.629 7518675 7567156 7636551 7724843 7827593 7939410 8054227 8166340 
2350.487 8270275 8362547 8441122 8507040 8562493 8611497 8657667 8703402 
2354.344 8749480 8795563 8841077 8886121 8931305 8977983 9027440 9080252 
2358.202 9135642 9192359 9248778 9304122 9357983 9410903 9462643 9512562 
2362.059 9559471 9602117 9639991 9674108 9706872 9740552 9776846 9815175 
2365.917 9853067 9887268 9914420 9932455 9940862 9940930 9934015 9920895 
2369.774 9901674 9876454 9845407 9810430 9774745 9742721 9719104 9707143 
2373.631 9709141 9725642 9756648 9801957 9861778 9936252 10025284 10128173 
2377.489 10243197 10368126 10500967 10640468 10785960 10937990 11096701 
2380.864 11261762 11431749 11604254 11775908 11943610 12104803 12257227 
2384.239 12399375 12529631 12646249 12747644 12832409 12899543 12949039 
2387.615 12981436 12997755 12999155 12986694 12961602 12925348 12879542 
2390.990 12825857 12765865 12700594 12630147 12554289 12472443 12384680 
2394.365 12292163 12197178 12102656 12012072 11928796 11855137 11792964 
2397.740 11743804 11708879 11689034 11684575 11694923 11718682 11753677 
2401.115 11797901 11850200 11910610 11980463 12062012 12157036 12266259 
2404.491 12389385 12524584 12670469 12825037 12988025 13158963 13337930 
2407.866 13524729 13718585 13918514 14124149 14335465 14552810 14776914 
2411.241 15007343 15242320 15478489 15711179 15935607 16147291 16342631 
2414.616 16518990 16674453 16806964 16915190 16998156 17055702 17089682 
2417.992 17102778 17098712 17080858 17051256 17010662 16958668 16894796 
2421.367 16819260 16733367 16639885 16542327 16444033 16348066 16256833 
2424.742 16171535 16093923 16025569 15968710 15925538 15898315 15888589 
2428.117 15897594 15925743 15973659 16041625 16129615 16236816 16362036 
2431.493 16503502 16658718 16825906 17004254 17193534 17394828 17608948 
2434.868 17836984 18079266 18335992 18606948 18892052 19191472 19505760 
2438.243 19835360 20181142 20543250 20922662 21320258 21737552 22175610 
2441.618 22635366 23117174 23620122 24143128 24685280 25246198 25826160 
2444.994 26425560 27044196 27680276 28330268 28989666 29653118 30316160 
2448.369 30975914 31630754 32280732 32925644 33564888 34196688 34818604 
2451.744 35427176 36018668 36589560 37135684 37653120 38136980 38581912 
2455.119 38982168 39331936 39625064 39856028 40019600 40111096 40126792 
2458.495 40063892 39920604 39696508 39392192 39009392 38550520 38019032 
2461.870 37419316 36755984 36034508 35261152 34441784 33584076 32695372 
2465.245 31784416 30860994 29935060 29017154 28117654 27245204 26407320 
2468.620 25609814 24856080 24148276 23487054 22872310 22303530 21780400 
2471.996 21302370 20868876 20478640 20129600 19818470 19540902 19292364 
2475.371 19066612 18859038 18664810 18479798 18301638 18128872 17961388 
2478.746 17800252 17646906 17502754 17368412 17243590 17126870 17016658 
2482.121 16911022 16808994 16710296 16615959 16526975 16444720 16369639 
2485.497 16301829 16240770 16185980 16137214 16094610 16058438 16029008 
2488.872 16006490 15990676 15981017 15977098 15978577 15984969 15996246 
2492.247 16011819 16031483 16054794 16081166 16110668 16143439 16179927 
2495.622 16220374 16264608 16312148 16362069 16413270 16464647 16515721 
2498.998 16565802 16614616 16661575 16706130 16747762 16786058 16821050 
2502.373 16852946 16882224 16909818 16936516 16962978 16990058 17018174 
2505.748 17047534 17078722 17110602 17142552 17172850 17200082 17222906 
2509.123 17240556 17253312 17261620 17265966 17266482 17262484 17252966 
2512.499 17236800 17213286 17181676 17142208 17095126 17040608 16978342 
2515.874 16908818 16832072 16749656 16663916 16578091 16495585 16419532 
2519.249 16351748 16293366 16244072 16203830 16171604 16146809 16128652 
2522.624 16115723 16106335 16098943 16091892 16084947 16078759 16074838 
2526.000 16074805 16079858 16089693 16103482 16119126 16134877 16149905 
2529.375 16164485 16179720 16197158 16218344 16244072 16274411 16309500 
2532.750 16348789 16392382 16440179 16491696 16546216 16602704 16660094 
2536.125 16717700 16775519 16834138 16894488 16957224 17022516 17089888 
2539.500 17158270 17226870 17295686 17365548 17437526 17513208 17593112 
2542.876 17676998 17763628 17851174 17937492 18020616 18099268 18172542 
2546.251 18240472 18303366 18362400 18418848 18474232 18529830 18586128 
2549.626 18642708 18698434 18751602 18800594 18844850 18884576 18920880 
2553.001 18955388 18989586 19024236 19059270 19094446 19128968 19162140 
2556.377 19193168 19221222 19244980 19262678 19272550 19273208 19263754 
2559.752 19244356 19216060 19180044 19137728 19090084 19037392 18979962 
2563.127 18918112 18852878 18785612 18717874 18650906 18585920 18523536 
2566.502 18464000 18407476 18354864 18306650 18263590 18226166 18194722 
2569.878 18169294 18150120 18137646 18132880 18136370 18148738 18169674 
2573.253 18198246 18232352 18270398 18310796 18353102 18397382 18444188 
2576.628 18493628 18545426 18598716 18652254 18705214 18757034 18808310 
2580.003 18859624 18911606 18965078 19020048 19076720 19135062 19195732 
2583.379 19259112 19326278 19397644 19473286 19552548 19634318 19717628 
2586.754 19800990 19883814 19965264 20045066 20123006 20199226 20274384 
2590.129 20348928 20423452 20498126 20572432 20645394 20715278 20781244 
2593.504 20842630 20900202 20955624 21010882 21067814 21127572 21190330 
2596.880 21255880 21323980 21395088 21470416 21551574 21640304 21737448 
2600.255 21842904 21955986 22075302 22199914 22328854 22462056 22599206 
2603.630 22739890 22883206 23028106 23173370 23318472 23463202 23608120 
2607.005 23753614 23900344 24047860 24195778 24343044 24489132 24633518 
2610.381 24775670 24914922 25050042 25179130 25300142 25410788 25509340 
2613.756 25594736 25666368 25724126 25767968 25797854 25814346 25817898 
2617.131 25810196 25793108 25769056 25740718 25710028 25678214 25646262 
2620.506 25614628 25584016 25555058 25528878 25506214 25487836 25473782 
2623.882 25464296 25459446 25459940 25466684 25480844 25503228 25534570 
2627.257 25574212 25621658 25675860 25735938 25801686 25873176 25950484 
2630.632 26034030 26123082 26217046 26314618 26415138 26517968 26623290 
2634.007 26731140 26842292 26956752 27074698 27195606 27319228 27444932 
2637.383 27572050 27700264 27828834 27957620 28086372 28215374 28344876 
2640.758 28475158 28606046 28736868 28866028 28992252 29113764 29230030 
2644.133 29341364 29449252 29555642 29662412 29770946 29881780 29994170 
2647.508 30107618 30221414 30335668 30450804 30568210 30689168 30814786 
2650.884 30945882 31082572 31224714 31372034 31523962 31680684 31841386 
2654.259 32006248 32175064 32347620 32524246 32704838 32889650 33078510 
2657.634 33270922 33466532 33664452 33864392 34065824 34268784 34473488 
2661.009 34680016 34888112 35097668 35307764 35517524 35726168 35932928 
2664.385 36137664 36340480 36541764 36742352 36943140 37144636 37347632 
2667.760 37552240 37758500 37966520 38175944 38386952 38599656 38814528 
2671.135 39031540 39250868 39471980 39694148 39916208 40137368 40356496 
2674.510 40573004 40786344 40995784 41200552 41399808 41592512 41778268 
2677.885 41957636 42131460 42302140 42472044 42644320 42821452 43006048 
2681.261 43200680 43407476 43628664 43866204 44121544 44395316 44687552 
2684.636 44997804 45325492 45669584 46029716 46405300 46795384 47199076 
2688.011 47614568 48040452 48474756 48916576 49365752 49822824 50288524 
2691.386 50763704 51248424 51742792 52246284 52758776 53280152 53810628 
2694.762 54350508 54900080 55458896 56026348 56601636 57184000 57773016 
2698.137 58368816 58970904 59579184 60192804 60810348 61430296 62051244 
2701.512 62672124 63292132 63910260 64525196 65134920 65736940 66327916 
2704.887 66904188 67462232 67997416 68505688 68982240 69422264 69821336 
2708.263 70176288 70484608 70745408 70958496 71124104 71242584 71313992 
2711.638 71338320 71315784 71247312 71133984 70977152 70777504 70535552 
2715.013 70250560 69922168 69549648 69133976 68676816 68181328 67650936 
2718.388 67089684 66501340 65889508 65257540 64609424 63949144 63281588 
2721.764 62611768 61945380 61287836 60644088 60019248 59417608 58842716 
2725.139 58297684 57784712 57305120 56859672 56449280 56074488 55735840 
2728.514 55434240 55170084 54943736 54754108 54599920 54479180 54390388 
2731.889 54331620 54301996 54300940 54327976 54382428 54463136 54568320 
2735.265 54695664 54843236 55008192 55188448 55381572 55585108 55796572 
2738.640 56013076 56231768 56449240 56662792 56869192 57065524 57249244 
2742.015 57418708 57573260 57713520 57841448 57959836 58071664 58179696 
2745.390 58285784 58390876 58495572 58600220 58705312 58811796 58920576 
2748.766 59032428 59147532 59265628 59386228 59509636 59636308 59768532 
2752.141 59908592 60059464 60224016 60404852 60603932 60823192 61064716 
2755.516 61330688 61622972 61943008 62291044 62665536 63063308 63479996 
2758.891 63909948 64347596 64787208 65222660 65648676 66059404 66449680 
2762.267 66814324 67148776 67448872 67710992 67931632 68107944 68237664 
2765.642 68319512 68353408 68341304 68286432 68192840 68065632 67910168 
2769.017 67731560 67535184 67326408 67110256 66891932 66676312 66466784 
2772.392 66266112 66075644 65895984 65726764 65567820 65419032 65280452 
2775.768 65152088 65033996 64925016 64822868 64724168 64623728 64515388 
2779.143 64392164 64246968 64073852 63868612 63629432 63357568 63056408 
2782.518 62731536 62388576 62033776 61672236 61308172 60945560 60587588 
2785.893 60237224 59896916 59568768 59253668 58952080 58663176 58386024 
2789.269 58119844 57864352 57619716 57386716 57165820 56957580 56761632 
2792.644 56577632 56404340 56240552 56084480 55934488 55787868 55642240 
2796.019 55494812 55342844 55184120 55017180 54841016 54655196 54459196 
2799.394 54252212 54033352 53801292 53554884 53293600 53017380 52726416 
2802.770 52421580 52103440 51772804 51430408 51077024 50714620 50345188 
2806.145 49971940 49598164 49227640 48863956 48510468 48169928 47844828 
2809.520 47537264 47249020 46981784 46737116 46516260 46319884 46148316 
2812.895 46001316 45877860 45776892 45696344 45634840 45590896 45563848 
2816.271 45553324 45560060 45584896 45628988 45693216 45778108 45883748 
2819.646 46010340 46157528 46325376 46513644 46722320 46950852 47198632 
2823.021 47464556 47747320 48045224 48356520 48679080 49010076 49346336 
2826.396 49683712 50017668 50343180 50655416 50949692 51221916 51468080 
2829.771 51685052 51870280 52021900 52139192 52222740 52274012 52295724 
2833.147 52291464 52265416 52222292 52166880 52104376 52040088 51978200 
2836.522 51922592 51875620 51838584 51811852 51795500 51790276 51797888 
2839.897 51821560 51865352 51934096 52032132 52163968 52334448 52548408 
2843.272 52812692 53135696 53526664 53995680 54550852 55196196 55929324 
2846.648 56739128 57605224 58495420 59369628 60181956 60881052 61420332 
2850.023 61760692 61874152 61750072 61393576 60826468 60080884 59198564 
2853.398 58225540 57204716 56178024 55181448 54242224 53381716 52612700 
2856.773 51940592 51364504 50878088 50471708 50133200 49850216 49611572 
2860.149 49406328 49225972 49063716 48914016 48773488 48640088 48513768 
2863.524 48395740 48288636 48196140 48122324 48071316 48046672 48051112 
2866.899 48086680 48153532 48251164 48377404 48529252 48703024 48893992 
2870.274 49097288 49307808 49519652 49727140 49924996 50108844 50276100 
2873.650 50426788 50563720 50691832 50817820 50949208 51092304 51252340 
2877.025 51432536 51634336 51857476 52101012 52363636 52643928 52940420 
2880.400 53252248 53578800 53919296 54273160 54638996 55014472 55395652 
2883.775 55777056 56152196 56514412 56857408 57176520 57469312 57735432 
2887.151 57976724 58196404 58399628 58591880 58779964 58971128 59172476 
2890.526 59391816 59636800 59915060 60235208 60607248 61042904 61557068 
2893.901 62166196 62886840 63734100 64717904 65839260 67086740 68434272 
2897.276 69839544 71241960 72572504 73754128 74710832 75383472 75731992 
2900.652 75745056 75439680 74860512 74070856 73139216 72137568 71128600 
2904.027 70160592 69271680 68486680 67820288 67281216 66872336 66593528 
2907.402 66441952 66413464 66503620 66708064 67023912 67448336 67979088 
2910.777 68612392 69342104 70158296 71047696 71991984 72968400 73951968 
2914.153 74913312 75821432 76647720 77365104 77953368 78400912 78704960 
2917.528 78871488 78911936 78842720 78679024 78434136 78118448 77737648 
2920.903 77294592 76790600 76227088 75607080 74936776 74225080 73484176 
2924.278 72728712 71972904 71231576 70517032 69838648 69203480 68616160 
2927.654 68078688 67591936 67154920 66765212 66418596 66109404 65830700 
2931.029 65574528 65332712 65098040 64863184 64622500 64371036 64105004 
2934.404 63821896 63520996 63203320 62871480 62529832 62183440 61837244 
2937.779 61495984 61163920 60844232 60540468 60256104 59994824 59760696 
2941.155 59557596 59388316 59254008 59153948 59083788 59036072 58999936 
2944.530 58961716 58905436 58816040 58680468 58490264 58243500 57945412 
2947.905 57607196 57243496 56870928 56504488 56154268 55826260 55520644 
2951.280 55233184 54956068 54679992 54395984 54096060 53774628 53429452 
2954.656 53060924 52672096 52267284 51851836 51430372 51006964 50584676 
2958.031 50166036 49753636 49350312 48958740 48581200 48219392 47873092 
2961.406 47541296 47222276 46914636 46617988 46333448 46063428 45811832 
2964.781 45582540 45379300 45205020 45061680 44949768 44869048 44818052 
2968.156 44794252 44793956 44813280 44847772 44893444 44947420 45007540 
2971.532 45072488 45141852 45215168 45292132 45372644 45456224 45541660 
2974.907 45627036 45707680 45776708 45824172 45837204 45802700 45708712 
2978.282 45546112 45311144 45005668 44637384 44217248 43759580 43279628 
2981.657 42791868 42309516 41843932 41402976 40992032 40613204 40265712 
2985.033 39947124 39654140 39384612 39137980 38916424 38723668 38563768 
2988.408 38438644 38345728 38275916 38213716 38138428 38025504 37853784 
2991.783 37606616 37277152 36869588 36399384 35890424 35369620 34863624 
2995.158 34394404 33974412 33608884 33295460 33027522 32796196 32593496 
2998.534 32413200 32250646 32102138 31964696 31835004 31709876 31586818 
3001.909 31464432 31342580 31222472 31105780 30994204 30888886 30790384 
3005.284 30698876 30614748 30538776 30471704 30414802 30368714 30333180 
3008.659 30307172 30288910 30276086 30266956 30260314 30255658 30253846 
3012.035 30255800 30262976 30276478 30297152 30325080 30359616 30399948 
3015.410 30445118 30494202 30546882 30603228 30663708 30728536 30797642 
3018.785 30869852 30943748 31017408 31088552 31155862 31218058 31274564 
3022.160 31324812 31368260 31404376 31432622 31452712 31465572 31472448 
3025.536 31476010 31478930 31484238 31494286 31510710 31534296 31565190 
3028.911 31602282 31644192 31688672 31733226 31775646 31813898 31847094 
3032.286 31875152 31899046 31920298 31940698 31961522 31983924 32008712 
3035.661 32036710 32069064 32106880 32151230 32202896 32261994 32327846 
3039.037 32399670 32476362 32557674 32643284 32733418 32827896 32926142 
3042.412 33027310 33130322 33233720 33336818 33439406 33541694 33643504 
3045.787 33744840 33845084 33943532 34039520 34133100 34224868 34315904 
3049.162 34406956 34498564 34590164 34680412 34767772 34850628 34927896 
3052.538 34999216 35064768 35125512 35182100 35235996 35288248 35340220 
3055.913 35393092 35447956 35505336 35565172 35627352 35691380 35757104 
3059.288 35824788 35894740 35967372 36042576 36119516 36196864 36273584 
3062.663 36348728 36422556 36495956 36570672 36648068 36729044 36813864 
3066.039 36901872 36992604 37085592 37180944 37279352 37380964 37486424 
3069.414 37594944 37706096 37819408 37934268 38050964 38169576 38290064 
3072.789 38411928 38534296 38656008 38776776 38896928 39017728 39141208 
3076.164 39268712 39401192 39537772 39677268 39817384 39956348 40093144 
3079.540 40227764 40360568 40492252 40623172 40753188 40882116 41009368 
3082.915 41135236 41259688 41383368 41506392 41629048 41751200 41873308 
3086.290 41995888 42120032 42246808 42377204 42511432 42648888 42788216 
3089.665 42927988 43067296 43205692 43343844 43482588 43622804 43764932 
3093.041 43908684 44053476 44198684 44343828 44488912 44634484 44781132 
3096.416 44929084 45079104 45231236 45385592 45542172 45700944 45861616 
3099.791 46023824 46186828 46350036 46512976 46675792 46838676 47001908 
3103.166 47165832 47330152 47494160 47656980 47818080 47977316 48135280 
3106.542 48292596 48450156 48608440 48767300 48926960 49087048 49247828 
3109.917 49410004 49574244 49741260 49911020 50082996 50256312 50429652 
3113.292 50602324 50774056 50945000 51115488 51285748 51455656 51625304 
3116.667 51794528 51964156 52134784 52307720 52483832 52663340 52845696 
3120.042 53029176 53212320 53393516 53572056 53747552 53920756 54092308 
3123.418 54262836 54432452 54601272 54768916 54935352 55100904 55266072 
3126.793 55431340 55597196 55764096 55931740 56099748 56267560 56434300 
3130.168 56599032 56761220 56920784 57077956 57233744 57389780 57547648 
3133.543 57709056 57875068 58046024 58221032 58398948 58578188 58757052 
3136.919 58933936 59107972 59278128 59443904 59605176 59761988 59914828 
3140.294 60064640 60212520 60359536 60506760 60654832 60804516 60955928 
3143.669 61109300 61264444 61421172 61578948 61737276 61895324 62052428 
3147.044 62208100 62362528 62516360 62670172 62824996 62981904 63140856 
3150.420 63302092 63465080 63629664 63795000 63960700 64125972 64290032 
3153.795 64452276 64612120 64769364 64923628 65074944 65223544 65369568 
3157.170 65513260 65654956 65795192 65935052 66075960 66219068 66365668 
3160.545 66516600 66671484 66829904 66990508 67152328 67314328 67475656 
3163.921 67636184 67795304 67952976 68108952 68263208 68415504 68565712 
3167.296 68713800 68859264 69001936 69141160 69276776 69408352 69536160 
3170.671 69660144 69780512 69896904 70008776 70115536 70216872 70312888 
3174.046 70404288 70492368 70577640 70660328 70739680 70814752 70884568 
3177.422 70949368 71010432 71070880 71133048 71200032 71273000 71351912 
3180.797 71435056 71519976 71604832 71687832 71768152 71845592 71920192 
3184.172 71992184 72061760 72130024 72198136 72268144 72341872 72420592 
3187.547 72504176 72591376 72679936 72767488 72852120 72932544 73009248 
3190.923 73082912 73154776 73226072 73297936 73371136 73446232 73523376 
3194.298 73602120 73681296 73758728 73832520 73900816 73963360 74021344 
3197.673 74077576 74135072 74196032 74261056 74328672 74396192 74460688 
3201.048 74520280 74574648 74625360 74674704 74725232 74778168 74833672 
3204.424 74890984 74949016 75007184 75065312 75123488 75181752 75239472 
3207.799 75296016 75350080 75401800 75451664 75501296 75552240 75605464 
3211.174 75661352 75718352 75774760 75828768 75879432 75926864 75972216 
3214.549 76017048 76062608 76109032 76155776 76201784 76246048 76288112 
3217.925 76327880 76365928 76403104 76440040 76477224 76514888 76552864 
3221.300 76590680 76628192 76665040 76700616 76735360 76769488 76804016 
3224.675 76839712 76876928 76915768 76955136 76993944 77030416 77063848 
3228.050 77094160 77122096 77149000 77175880 77203464 77231568 77259832 
3231.426 77288096 77316520 77345664 77376064 77407784 77439904 77470912 
3234.801 77499232 77523472 77543632 77560904 77577264 77594696 77614304 
3238.176 77636136 77659352 77683048 77706272 77728968 77751680 77774192 
3241.551 77795992 77815216 77829408 77836856 77837016 77830944 77821672 
3244.927 77813232 77809384 77812512 77823416 77841576 77865080 77892352 
3248.302 77921888 77953048 77985000 78017120 78048928 78079472 78108136 
3251.677 78134760 78159112 78181408 78201360 78218696 78232864 78243888 
3255.052 78252184 78258768 78264960 78272056 78280352 78289120 78296784 
3258.427 78301776 78302648 78299480 78293048 78285552 78278920 78274280 
3261.803 78272336 78272096 78272336 78271704 78269008 78263888 78256192 
3265.178 78246464 78235048 78222232 78207784 78191360 78172248 78149152 
3268.553 78120800 78086368 78045320 77998168 77945992 77890448 77833680 
3271.928 77777720 77723824 77673424 77627336 77586216 77550368 77520144 
3275.304 77494600 77472144 77450392 77426600 77398288 77364392 77325152 
3278.679 77282160 77237392 77192896 77149528 77107448 77065872 77023928 
3282.054 76981200 76938000 76894928 76853008 76812584 76773680 76736080 
3285.429 76699784 76665040 76632616 76603488 76577800 76555552 76535232 
3288.805 76515592 76495520 76474376 76452760 76432136 76414000 76399744 
3292.180 76390104 76384848 76383824 76386584 76392912 76403024 76416496 
3295.555 76432736 76451104 76470392 76490616 76511680 76534872 76561200 
3298.930 76591480 76625584 76662344 76700496 76738016 76774312 76808792 
3302.306 76842088 76874720 76907152 76939512 76971784 77004184 77037464 
3305.681 77072912 77112120 77155896 77204576 77257376 77312568 77368704 
3309.056 77424336 77479232 77533256 77586736 77639904 77692872 77745576 
3312.431 77798368 77852032 77907376 77965344 78025488 78086648 78145864 
3315.807 78200288 78247576 78286376 78317456 78342568 78364240 78384520 
3319.182 78404640 78424688 78444056 78461800 78476920 78488832 78496696 
3322.557 78500192 78498440 78491688 78480816 78466800 78451712 78436672 
3325.932 78422224 78407064 78388336 78362968 78328248 78282856 78227424 
3329.308 78164504 78097160 78027992 77958752 77889696 77819776 77747680 
3332.683 77671712 77590536 77502792 77407032 77302544 77188864 77066304 
3336.058 76936256 76801000 76663496 76525432 76387616 76249440 76108672 
3339.433 75962664 75809312 75647352 75476776 75298696 75114552 74925872 
3342.809 74733656 74538296 74340072 74138928 73934680 73727000 73515648 
3346.184 73300600 73082048 72861064 72638888 72417656 72199512 71985968 
3349.559 71778008 71575528 71378152 71184416 70993768 70805240 70618264 
3352.934 70431952 70245688 70058768 69871144 69683328 69496680 69313384 
3356.310 69135872 68966240 68806072 68656168 68516168 68385640 68263368 
3359.685 68148264 68038880 67933832 67831752 67731328 67631928 67533560 
3363.060 67436872 67342768 67251816 67163928 67078740 66995264 66913000 
3366.435 66832340 66754668 66681840 66615120 66555484 66501924 66452460 
3369.811 66404192 66354356 66300856 66242380 66177896 66106856 66028236 
3373.186 65940872 65844120 65737284 65621040 65496080 65363332 65222464 
3376.561 65072328 64910544 64734556 64542568 64333832 64109108 63869796 
3379.936 63617192 63351780 63072772 62778816 62467884 62139128 61792816 
3383.312 61431096 61056596 60672780 60282520 59887940 59490068 59089480 
3386.687 58685968 58279644 57870448 57458948 57045688 56631720 56218340 
3390.062 55806480 55397308 54991568 54589848 54192860 53801292 53415472 
3393.437 53036252 52663604 52296808 51934544 51574336 51214160 50852572 
3396.813 50488904 50124868 49762664 49405400 49054956 48711880 48374852 
3400.188 48041340 47708492 47373716 47036176 46695716 46353428 46010340 
3403.563 45667376 45324752 44982660 44641168 44300932 43963240 43629432 
3406.938 43300424 42976308 42656676 42340196 42025888 41713336 41402140 
3410.313 41092912 40786236 40482396 40181128 39882104 39585244 39290476 
3413.689 38998300 38709576 38425068 38145444 37870236 37598664 37329900 
3417.064 37063112 36797852 36534052 36272036 36012116 35754156 35498216 
3420.439 35243724 34990060 34736796 34483320 34229348 33974520 33719020 
3423.814 33463240 33208002 32954272 32703158 32455652 32212034 31972296 
3427.190 31735684 31501516 31268940 31037406 30806604 30576246 30346008 
3430.565 30115394 29883946 29651272 29417944 29184952 28953502 28725610 
3433.940 28502754 28285956 28075378 27871088 27672400 27478712 27289130 
3437.315 27102770 26919030 26736600 26554810 26372708 26189910 26006766 
3440.691 25824120 25642992 25464366 25288796 25116212 24945978 24776688 
3444.066 24607394 24436238 24262204 24084772 23904056 23721452 23539102 
3447.441 23360216 23188048 23025172 22872694 22730254 22595470 22465336 
3450.816 22336214 22205702 22072234 21936118 21798064 21659562 21521666 
3454.192 21385028 21249652 21115604 20983026 20852052 20723410 20597202 
3457.567 20473638 20351986 20231682 20111798 19991528 19870738 19749216 
3460.942 19627418 19505274 19382920 19260220 19137936 19016344 18897174 
3464.317 18781356 18669376 18561956 18458190 18357078 18257784 18159378 
3467.693 18061720 17964946 17869332 17774674 17680656 17586072 17490164 
3471.068 17392138 17291756 17189948 17087820 16987198 16888770 16793738 
3474.443 16702412 16614925 16530795 16449641 16370844 16293470 16216453 
3477.818 16138934 16059848 15978508 15894845 15809273 15722929 15637392 
3481.194 15554895 15477459 15406698 15343810 15288377 15238923 15192734 
3484.569 15146825 15097833 15043393 14982683 14916837 14848258 14780206 
3487.944 14715830 14657633 14606538 14562575 14525023 14492648 14464351 
3491.319 14439311 14416943 14397044 14379062 14362486 14347211 14333170 
3494.695 14320773 14310979 14304712 14303103 14306836 14316664 14332622 
3498.070 14354780 14382281 14414409 14449724 14486996 14524646 14562473 
3501.445 14600438 14639333 14681350 14728786 14783942 14848568 14923936 
3504.820 15010018 15106033 15210646 15321807 15437254 15554860 15672602 
3508.196 15789550 15905809 16023163 16144058 16270971 16405631 16548626 
3511.571 16698416 16852566 17008492 17163818 17317376 17469294 17620268 
3514.946 17770152 17919088 18065278 18206332 18340072 18464552 18578832 
3518.321 18682520 18776410 18860076 18933202 18994638 19043138 19076788 
3521.697 19094238 19094412 19076478 19040196 18985190 18911882 18820246 
3525.072 18710264 18582220 18435512 18269982 18085760 17884042 17666888 
3528.447 17437390 17199324 16955982 16709952 16462239 16212875 15961112 
3531.822 15706336 15448206 15186490 14921569 14653384 14382350 14109226 
3535.198 13835316 13563254 13295393 13034834 12783234 12540544 12305491 
3538.573 12075707 11849212 11624741 11402665 11184647 10972820 10768603 
3541.948 10571917 10381530 10194958 10009518 9823173 9634673 9444053 9252129 
3545.805 9060290 8870902 8686297 8509507 8342821 8187745 8043864 7908704 
3549.663 7778542 7648893 7516012 7378251 7236928 7095484 6958294 6829158 
3553.520 6709988 6599966 6496565 6396617 6298004 6199649 6101887 6006029 
3557.378 5912980 5823174 5736073 5651003 5566890 5484035 5403308 5325482 
3561.235 5252197 5183820 5119947 5059200 4999099 4937163 4869907 4794187 
3565.093 4707191 4607555 4496257 4376821 4255878 4141258 4040112 3956678 
3568.950 3891380 3841369 3801624 3766529 3731269 3692938 3650066 3602321 
3572.807 3550505 3495689 3438676 3380535 3322635 3266079 3212134 3161532 
3576.665 3114441 3069824 3026614 2983474 2939371 2894238 2848544 2803554 
3580.522 2760370 2720224 2684482 2653811 2628909 2609708 2595208 2582709 
3584.380 2568510 2547345 2514018 2464731 2398491 2318069 2230303 2144019 
3588.237 2068006 2008284 1966810 1941781 1928235 1920547 1912626 1899847 
3592.094 1878815 1848134 1808072 1760928 1709731 1658472 1610646 1568545 
3595.952 1533363 1504735 1481162 1460915 1442032 1423316 1403437 1381997 
3599.809 1359029 1335032 1311535 1290066 1273118 1262617 1259692 1264079 
3603.667 1274081 1287108 1298972 1305386 1303193 1289002 1261553 1221147 
3607.524 1169980 1112208 1052684 996920 949366 911645 883024 860249 839366 
3611.864 816527 789705 759267 728366 700886 680443 668596 664978 666206 
3616.203 667998 666007 656782 638697 612317 580697 548084 518923 497461 
3620.543 486116 485552 494376 510066 529207 548582 566232 581460 594665 
3624.883 607373 619617 629572 632956 622603 591447 534781 455002 362836 
3629.222 274834 207534 169712 160663 171867 192783 213568 227690 232895 
3633.562 230873 224938 218839 214297 211579 208728 204717 198717 191789 
3637.901 185988 183402 184861 189501 195402 200076 202098 201601 200009 
3642.241 199910 203689 212971 227425 245426 264092 279675 288527 287101 
3646.581 272447 243106 199247 142566 76745 7090 -59637 -116980 -158351 
3650.920 -179450 -178257 -156165 -117079 -67290 -14611 32704 66803 81915 
3655.260 75850 51195 15672 -21437 -51420 -68813 -72955 -66097 -52448 -35352 
3660.082 -17858 -1457 13552 26375 36283 42678 45230 44766 42910 42513 46257 
3665.385 55602 69984 86919 101865 108527 101136 74823 28628 -33696 -102305 
3670.207 -162790 -201871 -210747 -188922 -143446 -87332 -36379 -4771 -4705 
3674.547 -40521 -106380 -184981 -255421 -301978 -319725 -314195 -296249 
3678.404 -276117 -259958 -248798 -239393 -227471 -208959 -183026 -152124 
3682.262 -120028 -90479 -65004 -42674 -21006 1921 25845 47583 61699 61335 
3687.083 41485 994 -55761 -120259 -182000 -232439 -267011 -285753 -290951 
3691.423 -285786 -273104 -255222 -234161 -212900 -194353 -181006 -174481 
3695.281 -174448 -178522 -182861 -183325 -177297 -164181 -146593 -128474 
3699.138 -115291 -111879 -120856 -142519 -173521 -208230 -239393 -261050 
3702.995 -268832 -261779 -241347 -211244 -175839 -139306 -105088 -75274 
3706.853 -50692 -31310 -17593 -9940 -9409 -17925 -37174 -67555 -108235 
3711.192 -155602 -203792 -246612 -278766 -296746 -300289 -292110 -276283 
3715.050 -256911 -237870 -221477 -208164 -197169 -186438 -174216 -159776 
3718.907 -143811 -128441 -116417 -110256 -110355 -115423 -122413 -127845 
3722.765 -129302 -126719 -122048 -119100 -121916 -132714 -150833 -172792 
3726.622 -192863 -204819 -204753 -191406 -167659 -138411 -110256 -89518 
3730.479 -80176 -83854 -98396 -119531 -141624 -160604 -175674 -189352 
3734.337 -205945 -229193 -259759 -294229 -325850 -347039 -352899 -342702 
3738.194 -319228 -286912 -249791 -211078 -171368 -131952 -94786 -64407 
3742.052 -49168 -59736 -104657 -186040 -292872 -401564 -482858 -517113 
3745.909 -501757 -449727 -380477 -313401 -264792 -243566 -251215 -281481 
3749.767 -323334 -364884 -397492 -417950 -426755 -424901 -412521 -389216 
3753.624 -354323 -309858 -259726 -209588 -165572 -132681 -113369 -107837 
3757.481 -113734 -128011 -147057 -168321 -189220 -206839 -217602 -218066 
3761.339 -206640 -184318 -155403 -126619 -105022 -96144 -101875 -119796 
3765.196 -143711 -166168 -181106 -186769 -184981 -180609 -178125 -180841 
3769.054 -189087 -200315 -209952 -214026 -210052 -198228 -180609 -159676 
3772.911 -138411 -119100 -102504 -89353 -79249 -71795 -66726 -64076 -64672 
3777.251 -69410 -79613 -95349 -115291 -136457 -154244 -164545 -164876 
3781.108 -155967 -140697 -124301 -111879 -107274 -111647 -123936 -140266 
3784.966 -156430 -168785 -175641 -177131 -174548 -169414 -162856 -155337 
3788.823 -147023 -137683 -127845 -117510 -106678 -95415 -83224 -70337 -57682 
3793.163 -47312 -42972 -47975 -64805 -93063 -128673 -164611 -192333 -205283 
3797.502 -201242 -183556 -159577 -139670 -134271 -150799 -190743 -248268 
3801.360 -310586 -360746 -385211 -379053 -345847 -296713 -244228 -202070 
3805.217 -179714 -182099 -206740 -244824 -282905 -307507 -311182 -293435 
3809.074 -259660 -217238 -173090 -131522 -93692 -58643 -24750 8151 37708 
3813.414 58982 66074 53779 21073 -27500 -80640 -125129 -150336 -152687 
3817.754 -136855 -113171 -94521 -92765 -115556 -163816 -230584 -300388 
3821.611 -355581 -383092 -378821 -347933 -300852 -249891 -204985 -172163 
3825.469 -153317 -145467 -143181 -139968 -131124 -115324 -94322 -71961 
3829.326 -52547 -39560 -34391 -36744 -44364 -54369 -63347 -68747 -68847 
3833.666 -63347 -53673 -41945 -32569 -30117 -38997 -61823 -97568 -142055 
3838.005 -187100 -223663 -245288 -249427 -237936 -216245 -191207 -168487 
3841.863 -151859 -142386 -138842 -138014 -136225 -130594 -119464 -102869 
3845.720 -82164 -59107 -36048 -13916 6858 27170 47980 69752 91857 111178 
3850.542 121386 114360 81185 15142 -83456 -203560 -323764 -419241 -473028 
3854.881 -480839 -450389 -395208 -328532 -260090 -196539 -141326 -95614 
3858.739 -60200 -34988 -19515 -12988 -13717 -19515 -27699 -36710 -45755 
3863.078 -55860 -68482 -83953 -100417 -114231 -120392 -115887 -100384 -78222 
3867.418 -56622 -43734 -46385 -66925 -101411 -139604 -168950 -180476 -171898 
3871.758 -148348 -119001 -93858 -80077 -79779 -89287 -101345 -107473 -101345 
3876.097 -81170 -50327 -15638 15043 34460 37476 23161 -4870 -39129 -70238 
3880.919 -89452 -91672 -76466 -48306 -15274 14214 31710 32240 15308 -13882 
3885.741 -45755 -69741 -77460 -66528 -40057 -5334 28960 54873 66703 62561 
3890.563 44335 17495 -11066 -34590 -48936 -52481 -46285 -32403 -13319 8846 
3895.384 31445 52620 69686 80954 84798 80788 70216 55569 40955 29655 23492 
3900.688 22730 24619 25745 22034 10569 -9211 -34888 -62221 -85742 -100384 
3905.510 -103167 -93692 -73617 -45855 -14015 18323 48776 75651 97988 115885 
3910.332 129938 141240 151117 160961 171568 183634 196529 208827 218143 
3914.671 221922 218176 206142 187214 164276 141339 122116 109124 102827 
3919.011 102197 105246 109919 115122 120558 126557 133683 141803 150189 
3923.351 157348 161956 163248 161624 158674 156155 155857 158409 163679 
3927.690 170740 177999 184032 187811 188441 185557 178960 169182 156884 
3932.030 143792 132258 124568 122480 126689 136069 148267 160332 169712 
3936.369 174982 176209 174883 173590 174320 177999 184098 190728 195170 
3940.709 195335 189800 179159 165403 151780 141372 136832 139251 148366 
3945.049 162254 178231 193811 206341 214463 217811 217347 214529 211115 
3949.388 208728 208131 209557 212507 216419 220330 223878 226629 228718 
3953.728 230176 231436 233160 236044 241282 249902 262434 279078 298375 
3958.067 318767 337800 353120 363367 368010 367545 363632 358293 353551 
3962.407 350998 351794 356038 363499 373083 383828 394407 403660 411089 
3966.747 416595 420674 424024 427606 431818 436694 441304 444886 446279 
3971.086 445118 441437 436030 430027 424488 420541 418817 419513 423062 
3975.426 429530 439181 452349 469000 488770 511128 535079 559563 583186 
3979.765 604819 623400 638066 647889 652468 651506 645333 634317 619617 
3984.105 602197 583584 564971 547586 532425 520018 510464 503763 499418 
3988.445 497295 497195 499418 504195 512056 522639 535743 549577 562649 
3992.784 572867 579138 581162 579337 574725 569019 563345 558170 553757 
3997.124 549710 545762 541416 536937 532259 527018 521511 515274 
##END=
