
##TITLE=Z235b_1_b
##JCAMP-DX=5.01  $$ Nicolet v. 1
##DATATYPE=INFRARED SPECTRUM
##ORIGIN=UniL
##OWNER=Nicolet
##LONGDATE=2011/09/22
##TIME=10:54:12
##SPECTROMETER/DATA SYSTEM=Nicolet iS5
##DATA PROCESSING=
Ratio against background
%Transmittance->Absorbance
Truncated
ElementMultiply or ElementDivide
##COMMENTS=
Number of sample scans: 32
Collection length: 51.17 sec
Sample gain: 2.0
Background collected on: Jeu Sep 22 10:47:11 2011 (GMT+02:00);
Number of background scans: 32
Background gain: 2.0
Sample spacing:  1.000
Number of scan points: 12415
Resolution points: 8192
Number of FFT points: 65536
Apodization: N-B fort;
Phase correction: Mertz;
Laser frequency: 15798.0 cm-1
Number of rejected sample scans: 0
Number of rejected background scans: 0
Bench serial number: ASB1000141;
##RESOLUTION=4.000
##XUNITS=1/CM
##YUNITS=ABSORBANCE
##FIRSTX=649.893372
##LASTX=4000.122314
##FIRSTY=0.100892
##MAXX=4000.122314
##MINX=649.893372
##MAXY=0.243567
##MINY=-0.002351
##XFACTOR=1.000000
##YFACTOR=1.000000E-009
##NPOINTS=6950
##DELTAX=0.482117
##ZPD=6100
##XYDATA=(X++(Y..Y))
649.893 100892416 99666920 98605592 97720984 96997784 96406544 95918816 
653.268 95521848 95223128 95040560 94988272 95065264 95249736 95506360 
656.643 95799912 96104768 96412992 96728600 97058192 97402544 97755504 
660.018 98109008 98460720 98821408 99212416 99656296 100168552 100748104 
663.393 101380192 102041688 102713480 103384544 104045960 104683416 
666.285 105261504 105716640 105977080 106000168 105820880 105541904 
669.178 105285360 105131016 105092824 105138360 105211096 105258592 
672.071 105243816 105157776 105016688 104849072 104678056 104510064 
674.963 104333792 104130592 103887424 103604976 103296944 102980608 
677.856 102665296 102345104 102001920 101614592 101171008 100674864 
680.749 100143480 99597400 99051472 98507480 97956944 97387824 96794552 
684.124 96181840 95563592 94954048 94359280 93775528 93191688 92598384 
687.498 91996024 91398496 90828344 90309960 89857024 89469424 89133456 
690.873 88830840 88546280 88273760 88017392 87788016 87597120 87452016 
694.248 87355976 87311136 87320160 87389000 87524200 87727920 87995184 
697.623 88313376 88666264 89039488 89426720 89832296 90267008 90740864 
700.998 91256736 91806456 92372896 92937736 93487496 94019800 94541768 
704.373 95064112 95592456 96122840 96641336 97130656 97576808 97976456 
707.747 98337624 98676288 99009520 99349840 99705768 100085480 100502352 
711.122 100981240 101555264 102258216 103114072 104122424 105249896 
714.015 106425896 107557920 108539608 109270800 109683056 109746536 
716.908 109481480 108953056 108269472 107565064 106972064 106615424 
719.800 106585696 106926032 107629832 108636912 109843600 111100792 
722.693 112241192 113100200 113529200 113436864 112804480 111700016 
725.586 110261104 108674016 107135544 105796072 104747344 104009416 
728.478 103545544 103286232 103158392 103109408 103108432 103143688 
731.371 103210328 103299088 103394088 103477720 103537768 103574104 
734.264 103597488 103624408 103665888 103723104 103786424 103843648 
737.156 103886960 103919032 103951608 103999432 104071600 104165800 
740.049 104269336 104365640 104443472 104502096 104550352 104600992 
742.942 104662664 104735992 104813600 104886952 104953024 105018456 
745.835 105096624 105199912 105332232 105485128 105640944 105781568 
748.727 105897240 105991496 106079344 106178560 106299336 106439104 
751.620 106583664 106716240 106825464 106911920 106986512 107064272 
754.513 107154240 107255184 107356480 107445800 107517520 107577240 
757.405 107639384 107719376 107826352 107957480 108101616 108245664 
760.298 108384144 108522088 108673088 108849296 109055136 109282984 
763.191 109518320 109748072 109970728 110200376 110462872 110786592 
766.083 111191008 111683600 112259936 112911504 113630808 114416328 
768.976 115272392 116211552 117259800 118467736 119928808 121769896 
771.869 124134144 127133768 130775496 134897328 139116384 142895264 
774.762 145581088 146572544 145518496 142392256 137535792 131522376 
777.654 125054760 118762888 113070408 108200256 104159736 100819104 97981232 
781.029 95461536 93128448 90905376 88769304 86726248 84796104 83000704 
784.404 81363416 79909664 78662032 77640216 76854984 76307144 75991472 
787.779 75903736 76047560 76438264 77100448 78059840 79339464 80954960 
791.154 82917480 85241720 87950720 91075384 94646528 98675376 103134736 
794.528 107934280 112922168 117878928 122517880 126533104 129599016 
797.421 131403896 131712872 130382168 127404752 122914640 117182200 
800.314 110573000 103472592 96277864 89331344 82886360 77126760 72145392 
803.689 67960616 64537800 61806952 59684052 58080716 56922184 56148952 
807.063 55714332 55583716 55722656 56086248 56615940 57231516 57835128 
810.438 58330880 58627336 58656196 58382084 57799660 56931892 55820384 
813.813 54521400 53096788 51605972 50108732 48655356 47285444 46028572 
817.188 44900972 43908136 43048816 42318100 41711072 41224780 40858124 
820.563 40610148 40478976 40461700 40555796 40762508 41088360 41547556 
823.938 42159280 42941704 43907328 45054144 46360584 47778208 49232944 
827.312 50629536 51848216 52767232 53277752 53296072 52790392 51784676 
830.687 50361336 48638088 46755788 44856004 43050648 41423168 40019780 
834.062 38852284 37907580 37155860 36560868 36081780 35680192 35324548 
837.437 34990312 34663796 34342904 34034220 33748812 33497058 33285302 
840.812 33112906 32974542 32862522 32770968 32697298 32643144 32611032 
844.186 32604248 32624070 32670754 32744564 32847122 32981228 33149562 
847.561 33352562 33587116 33846592 34123276 34411584 34710376 35023964 
850.936 35359880 35726600 36130100 36572620 37054520 37576228 38140928 
854.311 38756308 39432428 40180216 41009112 41925304 42933180 44037600 
857.686 45246164 46570624 48027016 49632932 51407804 53371152 55541576 
861.060 57937648 60572084 63445912 66536984 69791560 73120744 76392632 
864.435 79456424 82154728 84340064 85908968 86808864 87050712 86703872 
867.810 85892400 84778864 83527496 82300832 81232760 80410512 79882824 
871.185 79656712 79706992 79982640 80414776 80924336 81414408 81780848 
874.560 81919472 81727976 81130896 80090320 78615048 76760192 74619888 
877.935 72317136 69975104 67714448 65641312 63833916 62349904 61222976 
881.309 60462656 60056688 59971164 60156228 60544736 61063268 61642868 
884.684 62219304 62744932 63191092 63546196 63817180 64026012 64208396 
888.059 64404732 64655796 64996124 65444840 66004476 66660360 67387344 
891.434 68155160 68936496 69713904 70479352 71233016 71979168 72721064 
894.809 73457064 74177328 74858424 75461008 75928960 76183176 76133432 
898.183 75689520 74770928 73332136 71372096 68941000 66131668 63070164 
901.558 59903152 56766884 53786104 51061188 48657508 46614556 44945764 
904.933 43644016 42687492 42044904 41682696 41567280 41671140 41976100 
908.308 42471128 43152188 44018164 45068152 46299832 47708232 49284424 
911.683 51014864 52875856 54828460 56820092 58782544 60638940 62323436 
915.058 63787436 65014908 66025072 66872612 67639088 68414920 69299008 
918.432 70380520 71726568 73380592 75347600 77591328 80026016 82528880 
921.807 84957808 87165352 89042712 90539032 91680720 92568040 93368384 
925.182 94298712 95575064 97405440 99955408 103314936 107486072 112352288 
928.557 117682944 123096512 128091664 132121400 134603680 135058496 
931.450 133202792 128992616 122663576 114677032 105675184 96324432 87232064 
934.824 78904744 71660952 65665476 60952080 57457244 55066224 53644668 
938.199 53070880 53229172 54004572 55275476 56879500 58611332 60243580 
941.574 61522480 62221788 62185308 61341408 59727276 57472188 54782000 
944.949 51884804 48993088 46286780 43877860 41820148 40118980 38747360 
948.324 37662116 36815380 36165680 35675372 35311324 35046124 34853964 
951.698 34712856 34607240 34526332 34465600 34425140 34407640 34416568 
955.073 34454192 34522100 34619944 34747168 34902224 35083124 35287600 
958.448 35512528 35754912 36011940 36282084 36564796 36861472 37174448 
961.823 37505928 37857580 38229676 38621240 39030668 39456120 39896780 
965.198 40352276 40822816 41308952 41810148 42326504 42857584 43403888 
968.573 43966796 44548680 45152000 45778512 46428824 47102384 47798696 
971.947 48517880 49262228 50035404 50842516 51688632 52577280 53510584 
975.322 54488868 55512732 56582952 57701448 58871476 60096984 61381784 
978.697 62730728 64150816 65651676 67246672 68953000 70788696 72770784 
982.072 74913544 77225632 79709416 82359184 85160408 88083288 91076648 
985.447 94070120 96964104 99637832 101968448 103834648 105141904 105838848 
988.821 105921424 105437816 104478072 103174992 101680376 100148528 98733888 
992.196 97562048 96724960 96281336 96250480 96622176 97363736 98433744 
995.571 99786856 101380232 103178688 105149760 107262904 109490440 111802960 
998.946 114170176 116562248 118942464 121265832 123478176 125509320 
1001.839 127282280 128722904 129764944 130367144 130518512 130242032 
1004.731 129591552 128648760 127521664 126326304 125186920 124226544 
1007.624 123546824 123231056 123335584 123887536 124892480 126338808 
1010.517 128207552 130475016 133117064 136110320 139426560 143034032 
1013.409 146899168 150984016 155252464 159668736 164188368 168754064 
1016.302 173284496 177662688 181751072 185395968 188446592 190791600 
1019.195 192370512 193194352 193343776 192971744 192289600 191526240 
1022.087 190930176 190727344 191088656 192134192 193913072 196412512 
1024.980 199565904 203271328 207410320 211844848 216435856 221040288 
1027.873 225501648 229670928 233409504 236601920 239179424 241120768 
1030.766 242453808 243240064 243567056 243534800 243237760 242768656 
1033.659 242203824 241589024 240932960 240193472 239282784 238066688 
1036.552 236394528 234127696 231151152 227401408 222867776 217587488 
1039.446 211638464 205130704 198205824 191017248 183729152 176505984 
1042.339 169483888 162775120 156459024 150578080 145152608 140186192 
1045.232 135672304 131601320 127961336 124739144 121920752 119492872 
1048.125 117444960 115770072 114464800 113525536 112944000 112702712 
1051.018 112772952 113113008 113676656 114416288 115287432 116253728 
1053.911 117281592 118333744 119366328 120319280 121117480 121682152 
1056.804 121930888 121792624 121220584 120194024 118727480 116869816 
1059.697 114709128 112362584 109964032 107663336 105599616 103891000 
1062.590 102634872 101893104 101697128 102050536 102932904 104301680 
1065.483 106093008 108230576 110619896 113154288 115731664 118249856 
1068.376 120620816 122778872 124672552 126265512 127533096 128455120 
1071.269 129017680 129214928 129050512 128540408 127711432 126605216 
1074.162 125273528 123780456 122207200 120641416 119177728 117911792 
1077.055 116921688 116268144 115987136 116088464 116559648 117369672 
1079.948 118474824 119815232 121315552 122891112 124440952 125865000 
1082.842 127081600 128037632 128727984 129198016 129544184 129893168 
1085.735 130384464 131161408 132340552 134007768 136208944 138939552 
1088.628 142140128 145687472 149411472 153086992 156456784 159280224 
1091.521 161337744 162472752 162613184 161767824 160024576 157524416 
1094.414 154455072 151014800 147385088 143729232 140162592 136751808 
1097.307 133520480 130452456 127505008 124617672 121728896 118780440 
1100.200 115724224 112531152 109193368 105728904 102179808 98613376 95114344 
1103.575 91767856 88659728 85861960 83424656 81382360 79751296 78534168 
1106.950 77725128 77312840 77282672 77615528 78289088 79275080 80536528 
1110.326 82029952 83701224 85482856 87299584 89063088 90674520 92040696 
1113.701 93072576 93699792 93881544 93605280 92887752 91767488 90302136 
1117.076 88559192 86607312 84519032 82360064 80185992 78044216 75968112 
1120.451 73980488 72097520 70330032 68686440 67174304 65798008 64557560 
1123.827 63447400 62457744 61576964 60796664 60116236 59546192 59107780 
1127.202 58827312 58733228 58847040 59178172 59721688 60457780 61355300 
1130.577 62370792 63454688 64552984 65605008 66553288 67346480 67945616 
1133.952 68333936 68519192 68535488 68433728 68277864 68134032 68055936 
1137.328 68082832 68231416 68494712 68842256 69223616 69577928 69834680 
1140.703 69926528 69798688 69408352 68732504 67765248 66515668 65004320 
1144.078 63260736 61324088 59238096 57050676 54813724 52573916 50373876 
1147.453 48248828 46222868 44311720 42523492 40860748 39323052 37909248 
1150.829 36618216 35449428 34402112 33475444 32668256 31979606 31408790 
1154.204 30955560 30619976 30401726 30299642 30311400 30434846 30668688 
1157.579 31013634 31472732 32050516 32751996 33580424 34536344 35617500 
1160.954 36818084 38129024 39538064 41026884 42569904 44135704 45683572 
1164.330 47168380 48545596 49770096 50803368 51614744 52180780 52488356 
1167.705 52535100 52329552 51890368 51244544 50426080 49468888 48407448 
1171.080 47274436 46097580 44903032 43715204 42555688 41445548 40403840 
1174.455 39445528 38583468 37826240 37179320 36646048 36228272 35926700 
1177.831 35740992 35669656 35709868 35857996 36111092 36467344 36927448 
1181.206 37493504 38168528 38954660 39852068 40859396 41975156 43199764 
1184.581 44536560 45992844 47577484 49298936 51161188 53161012 55284024 
1187.956 57502444 59776136 62045852 64240664 66282056 68086320 69582936 
1191.332 70722400 71484152 71880272 71952720 71766632 71392680 70902160 
1194.707 70355584 69792888 69236512 68690520 68146088 67586712 66993640 
1198.082 66351652 65648712 64877884 64035184 63116760 62118292 61034820 
1201.457 59862912 58604012 57266708 55870236 54441468 53013116 51620976 
1204.833 50295372 49061340 47935172 46924084 46028060 45241756 44557488 
1208.208 43965512 43455412 43017352 42641104 42317444 42039760 41804384 
1211.583 41611548 41465492 41373456 41344336 41386976 41510220 41721176 
1214.958 42025704 42428092 42930184 43531260 44227300 45011660 45876240 
1218.333 46812616 47814088 48875524 49993728 51166216 52390852 53665736 
1221.709 54990744 56369104 57809048 59322792 60926496 62636340 64465344 
1225.084 66421872 68506896 70713008 73022496 75407632 77827376 80223976 
1228.459 82530248 84665936 86544424 88086496 89219472 89887104 90058096 
1231.834 89728152 88927368 87718632 86204128 84515128 82794256 81198528 
1235.210 79873704 78943328 78515032 78667704 79457224 80922472 83084344 
1238.585 85948016 89497960 93697152 98477048 103730080 109321848 115078056 
1241.960 120790880 126245424 131205920 135442544 138763504 141017728 
1244.853 142126928 142092272 140994288 138977952 136226560 132961512 
1247.746 129407032 125774024 122260944 119015840 116127560 113614888 
1250.639 111421048 109422136 107443512 105307824 102856136 99983816 96664472 
1254.015 92947216 88947016 84809632 80699768 76766280 73116984 69821920 
1257.390 66902756 64341560 62089352 60079136 58239444 56497316 54792864 
1260.765 53082264 51337464 49548656 47720548 45868760 44014092 42180824 
1264.140 40393292 38672560 37037348 35503032 34079908 32774936 31589918 
1267.516 30522530 29566636 28714282 27957620 27289484 26704534 26198110 
1270.891 25765048 25398950 25092480 24837238 24626540 24455200 24319600 
1274.266 24216902 24143408 24093390 24060152 24036270 24016414 23998098 
1277.641 23982062 23971418 23969912 23980662 24005594 24045410 24099870 
1281.017 24167262 24244056 24322262 24389726 24431644 24431610 24377668 
1284.392 24265778 24102110 23902480 23689574 23489818 23326444 23219086 
1287.767 23182490 23226426 23358400 23584508 23908780 24333370 24856500 
1291.142 25472376 26170062 26934190 27744976 28576320 29396882 30172184 
1294.518 30864018 31439140 31874332 32159258 32300110 32317780 32243830 
1297.893 32112446 31957068 31806946 31683002 31600680 31570140 31595406 
1301.268 31675160 31801454 31961132 32135564 32303858 32447298 32549140 
1304.643 32597064 32583314 32502786 32353654 32137670 31861390 31536542 
1308.019 31179642 30811512 30452014 30118626 29824426 29576674 29379724 
1311.394 29236340 29149020 29120958 29154404 29249240 29402732 29609200 
1314.769 29862932 30159432 30496654 30874834 31294540 31755254 32254000 
1318.144 32786370 33347908 33936044 34550552 35192160 35859904 36547892 
1321.520 37244336 37930760 38583288 39178848 39695780 40119416 40445952 
1324.895 40684956 40861472 41012864 41189188 41442928 41817704 42341588 
1328.270 43015852 43813640 44680168 45546880 46345464 47016788 47527024 
1331.645 47869576 48064508 48150124 48177484 48202992 48276564 48442748 
1335.021 48735084 49172904 49761996 50493780 51349064 52299684 53314688 
1338.396 54365376 55424336 56468640 57479524 58440492 59338780 60164452 
1341.771 60908616 61561728 62109996 62531360 62797880 62875808 62730424 
1345.146 62334836 61672656 60742092 59554592 58134048 56514184 54733624 
1348.521 52838660 50881144 48914312 46998400 45194908 43559944 42146612 
1351.897 40995056 40129444 39560096 39282712 39283040 39537300 40014696 
1355.272 40675240 41465600 42325552 43187684 43983040 44654532 45157588 
1358.647 45465088 45569476 45480324 45223736 44837192 44374800 43902640 
1362.022 43491412 43216596 43141536 43305696 43723780 44384308 45258116 
1365.398 46304804 47480192 48736828 50016816 51257708 52388496 53334320 
1368.773 54032152 54433952 54514488 54273308 53732588 52934768 51934432 
1372.148 50802660 49621712 48475088 47450216 46619976 46031044 45700688 
1375.523 45615884 45746372 46055616 46515520 47112244 47847080 48734272 
1378.899 49798000 51069984 52583304 54368384 56441356 58788348 61345912 
1382.274 63985772 66531660 68758096 70430832 71354176 71377448 70432464 
1385.649 68546272 65863632 62637636 59183832 55843068 52881472 50450348 
1389.024 48589020 47246952 46328100 45722368 45333804 45083148 44906484 
1392.400 44756268 44593028 44386292 44119196 43789488 43411320 43008060 
1395.775 42605248 42220444 41860060 41522360 41201720 40895768 40608948 
1399.150 40353004 40143108 39993620 39912032 39899720 39952788 40065780 
1402.525 40235212 40460864 40746092 41097504 41522180 42024100 42603676 
1405.901 43255984 43972660 44744000 45560792 46415920 47303288 48216876 
1409.276 49150532 50096572 51047508 51997956 52944012 53882496 54807860 
1412.651 55708004 56564420 57354160 58054888 58653996 59151368 59561128 
1416.026 59904596 60205668 60484176 60753672 61026164 61317676 61649816 
1419.402 62050440 62541464 63128100 63798412 64526036 65281728 66038920 
1422.777 66784264 67520128 68263328 69038136 69866672 70762104 71724296 
1426.152 72744768 73811272 74913424 76040896 77178928 78306144 79389552 
1429.527 80388304 81264360 81990816 82563144 82999984 83342880 83644824 
1432.903 83957352 84328520 84796624 85395848 86165984 87155232 88418280 
1436.278 90005264 91936192 94190408 96711632 99421616 102229280 105026056 
1439.653 107690888 110068912 111982504 113271376 113799792 113493096 
1442.546 112346072 110412160 107787536 104584624 100929992 96941736 92719864 
1445.921 88359840 83951200 79596376 75430728 71605616 68266552 65520852 
1449.297 63407296 61904112 60950972 60481928 60442628 60793348 61504652 
1452.672 62539360 63846768 65373004 67059016 68854912 70726888 72644016 
1456.047 74575272 76480152 78315704 80045024 81645632 83118336 84472464 
1459.422 85720336 86875800 87954456 88972712 89942696 90867760 91732744 
1462.798 92500264 93121144 93545560 93749576 93751512 93613624 93417600 
1466.173 93228152 93078976 92965728 92860912 92725448 92520264 92205864 
1469.548 91729424 91017888 89974368 88488960 86483448 83958952 81030264 
1472.923 77897112 74775608 71822608 69101336 66609016 64321964 62234064 
1476.299 60375568 58804092 57573560 56718704 56240780 56117164 56319912 
1479.674 56833460 57662324 58827384 60352572 62249436 64509852 67108244 
1483.049 70012752 73195248 76642584 80350624 84310416 88496184 92839376 
1486.424 97210648 101431664 105261928 108422216 110639040 111660424 
1489.317 111319696 109587784 106600904 102644440 98070880 93232224 88387368 
1492.693 83676680 79155744 74813200 70617792 66560352 62667720 59011208 
1496.068 55690528 52795928 50378268 48434192 46924196 45790700 44981376 
1499.443 44460868 44206752 44204076 44439104 44894360 45547400 46373556 
1502.818 47339316 48402668 49509252 50570644 51462076 52018760 52048340 
1506.194 51402100 50048752 48106704 45782856 43273736 40705260 38130292 
1509.569 35566900 33031418 30549334 28167926 25944046 23923380 22136732 
1512.944 20590186 19270196 18152884 17210942 16417984 15746772 15171598 
1516.319 14671479 14233184 13855738 13547768 13319445 13173547 13099950 
1519.695 13073895 13064574 13044871 13006154 12964913 12954740 13006290 
1523.070 13130548 13318181 13547392 13796698 14052514 14315500 14598005 
1526.445 14917420 15285494 15702866 16161047 16648905 17160098 17696220 
1529.820 18266632 18883468 19555978 20286814 21069934 21891408 22734060 
1533.196 23581114 24421620 25250904 26070022 26880114 27679500 28460442 
1536.571 29210608 29917170 30562168 31126886 31590842 31931996 32129216 
1539.946 32169818 32058970 31820886 31493824 31116740 30714560 30292356 
1543.321 29836598 29326050 28744832 28096588 27406426 26715140 26059960 
1546.697 25457480 24901238 24365264 23818956 23240794 22631388 22013914 
1550.072 21426276 20901244 20452556 20072964 19741518 19436140 19144238 
1553.447 18868242 18622406 18424656 18284256 18196484 18141724 18090770 
1556.822 18003798 17831322 17521728 17033612 16368229 15588516 14798032 
1560.198 14088519 13504323 13046306 12688755 12397158 12136796 11879791 
1563.573 11609529 11323621 11033991 10761403 10526629 10339995 10198927 
1566.948 10089714 9994972 9899097 9793553 9679223 9564383 9460138 9375385 
1570.805 9315395 9282153 9276635 9299248 9349451 9422991 9510259 9596664 
1574.663 9666214 9706668 9718087 9716053 9727439 9776371 9876150 10027963 
1578.520 10226167 10464952 10743231 11065226 11438111 11868485 12358975 
1581.896 12906234 13501075 14130859 14778217 15421426 16035197 16588487 
1585.271 17049774 17393380 17603014 17678482 17636932 17514346 17359064 
1588.646 17226732 17176780 17258864 17512104 17960008 18605564 19427858 
1592.021 20377194 21380538 22339040 23140554 23683590 23881756 23687124 
1595.396 23097920 22160128 20957606 19590432 18165216 16770354 15469562 
1598.772 14305843 13300176 12457883 11773218 11233198 10821117 10520417 
1602.147 10319670 10213514 10202489 10290524 10480735 10771490 11155409 
1605.522 11616743 12132366 12673471 13201452 13671634 14038448 14256672 
1608.897 14291358 14123910 13754767 13205106 12514626 11739243 10936460 
1612.273 10158461 9444696 8813788 8269059 7801414 7395540 7034157 6701743 
1616.130 6390229 6099838 5839058 5620827 5456755 5352820 5306833 5310523 
1619.988 5350170 5410555 5475747 5533397 5577160 5607132 5628580 5648721 
1623.845 5673293 5704447 5741814 5784624 5833148 5888797 5952616 6024070 
1627.702 6100073 6176661 6251312 6324967 6402704 6491553 6597813 6724020 
1631.560 6868305 7024055 7182454 7334811 7472424 7587421 7672938 7722516 
1635.417 7733916 7711352 7667171 7616857 7575316 7551377 7546691 7556502 
1639.275 7572079 7584858 7588600 7583206 7573428 7567460 7572349 7590691 
1643.132 7619521 7650714 7674287 7679649 7659482 7610383 7534217 7437839 
1646.990 7331812 7230831 7149712 7101647 7096461 7138158 7224328 7344618 
1650.847 7481053 7603437 7672769 7653917 7535127 7346943 7146613 6985197 
1654.704 6881266 6827341 6805227 6798563 6797048 6796207 6795601 6795265 
1658.562 6794457 6789644 6776148 6749191 6705478 6642861 6560977 6460477 
1662.419 6342753 6212354 6076989 5947510 5835969 5750745 5696020 5668828 
1666.277 5660637 5657415 5643686 5605756 5534571 5429041 5295764 5147272 
1670.134 4997289 4857979 4737941 4641613 4569347 4517148 4476371 4433555 
1673.991 4372603 4281142 4155877 4007707 3857114 3726490 3628582 3563801 
1677.849 3522445 3491280 3459917 3424883 3391655 3371085 3373990 3404211 
1681.706 3454740 3505844 3529760 3497092 3389752 3214937 3005761 2804955 
1685.564 2641377 2523316 2443238 2387263 2342288 2298616 2250819 2196333 
1689.421 2135362 2070237 2006487 1951766 1914756 1902775 1918317 1957490 
1693.279 2008784 2055322 2077761 2060582 2001094 1913658 1825807 1762824 
1697.136 1737873 1746689 1773271 1793200 1780690 1717648 1601900 1453834 
1700.993 1305951 1186924 1108488 1067232 1051521 1047768 1043317 1028305 
1704.851 997119 949964 892885 834520 783498 745525 721695 709847 706528 
1709.190 708519 715157 728532 752031 789605 842819 910549 988618 1071982 
1713.530 1156425 1239721 1321638 1402506 1479533 1546298 1592023 1605990 
1717.387 1582844 1527511 1454798 1382562 1324928 1288637 1272353 1269894 
1721.245 1273583 1277703 1278468 1275178 1268631 1260257 1251185 1242114 
1725.102 1234272 1229487 1229753 1236764 1249524 1265308 1278900 1285912 
1728.960 1285048 1279033 1274679 1279498 1298308 1329149 1362120 1379504 
1732.817 1361156 1291030 1168086 1009872 848363 712966 618124 563976 540288 
1737.157 533885 532060 525094 507611 478984 442730 405153 373216 352158 
1741.496 344067 348179 362173 381971 403992 425948 447672 471156 499219 
1745.836 534316 577313 627282 681538 736962 791232 842255 888004 925258 
1750.176 948702 953085 935784 899160 851384 803448 766370 745625 740978 
1754.515 745160 747650 736796 704769 651107 583020 512123 448966 399548 
1758.855 363135 333920 303580 264092 210849 143063 64384 -18687 -98198 
1763.194 -167095 -219457 -251745 -262706 -254659 -232604 -203892 -176866 
1767.052 -157921 -148514 -144871 -139902 -127182 -104061 -74346 -46285 
1770.909 -30581 -35153 -60829 -99688 -139041 -166400 -175111 -165903 -143380 
1775.249 -113833 -80707 -45026 -5864 38205 85958 133749 176242 208330 226894 
1780.071 232696 229613 223148 217745 215391 215524 215723 213932 209159 
1784.410 201965 193910 186883 182441 182242 187910 201402 224773 259450 
1788.750 303680 352954 399747 434538 448203 435433 395701 334981 262666 
1793.089 189302 122546 66273 20742 -15539 -44529 -68184 -89088 -109527 
1797.429 -132582 -160869 -196009 -237605 -284130 -332472 -379583 -423379 
1801.286 -462503 -496627 -525684 -548750 -564568 -572642 -572907 -566851 
1805.144 -556824 -545176 -533395 -521349 -507945 -492026 -473095 -452507 
1809.001 -432482 -415467 -403021 -394645 -388389 -381768 -372763 -361077 
1812.859 -347470 -332935 -318135 -302441 -284395 -262574 -236280 -205945 
1816.716 -173852 -142287 -112939 -86670 -63314 -41945 -21834 -2485 17064 
1821.056 37807 61169 87747 116713 144687 166596 176275 170242 149228 119762 
1825.877 90796 71575 67134 76413 92553 105677 106771 90962 60308 22134 
1830.699 -13154 -37075 -46385 -41614 -26605 -4439 22664 54840 92785 137296 
1835.521 187744 242443 299800 359487 422498 491058 567559 652999 747152 
1839.861 848396 955077 1065903 1180645 1298806 1418861 1538517 1653982 
1843.718 1762991 1865604 1965944 2069504 2180915 2300914 2425979 2548679 
1847.575 2660579 2755235 2830167 2886967 2929997 2964124 2991381 3010532 
1851.433 3017471 3007629 2978236 2929197 2863452 2784646 2695951 2598909 
1855.290 2493289 2379067 2257747 2132398 2007585 1887334 1773138 1663994 
1859.148 1557837 1452205 1346831 1244440 1148850 1063744 990743 928811 
1863.005 875388 828577 788775 758736 742671 743501 760528 789273 820942 
1867.345 846338 858423 854206 836179 809489 780610 753425 730158 710909 
1871.684 694945 682865 675465 673341 676494 683828 692888 701350 708054 
1876.024 711971 712900 710378 701749 684790 656815 616996 566862 510033 
1880.364 450525 392053 335976 281432 226894 171767 117078 66737 25149 -3976 
1885.185 -19217 -22298 -17229 -8647 -165 5632 6825 3147 -6328 -21735 -41349 
1890.489 -61558 -77559 -83754 -77195 -57715 -29156 2584 31644 55370 74557 
1895.311 93547 117343 149493 190297 236508 284084 329709 373083 415965 
1899.651 460840 508806 558468 606544 648652 683430 711639 737327 765075 
1903.990 797871 834918 873396 908225 935452 954380 966467 974338 980017 
1908.330 983603 982673 974703 957966 932995 903178 872101 842454 815464 
1912.669 790833 767897 747882 733776 728100 732515 744331 756113 758669 
1917.009 742804 704669 647125 579237 511924 454173 409099 374111 343172 
1921.349 310577 272911 231469 189766 151913 120724 96397 77606 62660 51625 
1926.170 45064 43606 46655 50996 52520 48278 38006 24784 13783 9542 13021 
1931.474 21504 28827 28960 20145 4340 -12060 -22629 -23392 -16367 -6891 
1936.296 -2120 -6792 -19780 -35617 -46948 -47577 -35551 -14015 11630 36150 
1941.118 57690 77573 99247 125529 156652 190032 222220 250996 277652 304078 
1945.940 333191 365622 398288 426279 445914 455998 460509 466579 481273 
1950.279 508739 548814 596059 643110 684989 719206 746256 767698 783663 
1954.619 791132 787049 767664 733975 690498 645566 606610 579038 561985 
1958.958 550406 539027 524729 508607 496200 493911 505256 530468 565900 
1963.298 607108 651506 698629 749973 804908 859784 907162 938308 948502 
1967.638 937744 914467 889963 873329 869146 874790 882958 886311 882327 
1971.977 873495 867254 871636 889831 921706 963811 1012762 1069590 1137787 
1976.317 1222177 1322003 1429399 1527744 1598773 1630601 1620623 1577723 
1980.174 1516904 1454765 1400711 1356769 1318181 1277604 1232311 1183668 
1984.032 1138252 1104003 1085600 1082212 1088889 1098123 1105000 1108620 
1987.889 1111710 1117988 1129582 1145329 1161209 1173369 1180744 1185529 
1991.747 1192971 1208255 1232012 1261752 1292359 1317583 1335663 1347662 
1995.604 1357832 1370496 1388778 1411116 1433455 1452437 1466068 1475610 
1999.461 1483822 1493397 1503771 1512815 1515475 1507727 1490006 1465835 
2003.319 1441334 1422784 1413410 1412678 1417897 1425909 1435184 1447152 
2007.176 1463508 1484154 1506464 1524286 1531202 1524153 1504336 1477638 
2011.034 1452205 1435716 1431194 1438076 1454033 1475244 1501975 1535824 
2014.891 1578454 1630169 1687144 1742631 1790039 1825840 1850696 1869297 
2018.749 1887767 1907967 1929866 1949303 1961385 1964946 1962283 1959421 
2022.606 1962250 1972668 1987680 2000096 2003491 1993405 1971969 1944443 
2026.463 1917718 1893956 1871361 1844108 1806375 1757934 1705639 1661699 
2030.321 1639049 1646366 1682887 1741865 1810401 1877517 1937254 1988512 
2034.178 2033317 2074032 2109524 2135994 2150446 2153076 2147948 2143620 
2038.036 2148847 2166829 2196700 2232501 2266040 2292254 2310941 2325132 
2041.893 2340289 2359078 2379800 2396292 2402689 2394759 2373736 2345619 
2045.750 2318236 2298783 2290555 2291754 2298150 2304978 2307310 2301814 
2049.608 2286092 2256381 2208855 2142720 2060416 1969706 1882608 1812963 
2053.465 1770410 1758666 1772073 1798423 1824343 1838351 1836221 1819851 
2057.323 1795828 1770044 1746722 1726563 1708167 1691568 1678895 1673407 
2061.180 1679793 1699119 1728725 1762092 1791869 1812830 1823710 1827737 
2065.038 1829300 1832927 1839615 1846537 1849598 1844773 1831164 1810601 
2068.895 1786679 1762791 1740402 1718745 1695560 1669282 1640046 1609482 
2072.752 1579751 1552317 1526879 1501477 1475211 1447949 1422053 1400977 
2076.610 1387847 1382861 1384124 1386218 1384889 1376978 1363283 1346897 
2080.467 1331675 1320209 1311900 1304090 1293156 1276839 1255771 1233109 
2084.325 1212076 1195230 1182738 1171408 1157588 1138352 1112939 1082943 
2088.182 1051388 1020334 990112 959527 926686 890196 851351 813107 779481 
2092.522 754354 739385 734539 738854 750902 769224 793456 821672 850853 
2096.861 876882 895375 903078 900787 891424 880102 872167 870474 874890 
2101.201 883555 893881 904307 915928 931435 952786 980946 1014090 1048333 
2105.541 1080319 1107923 1131642 1154299 1178983 1207790 1240319 1275012 
2109.398 1309441 1342444 1374319 1406229 1439539 1474047 1507162 1535658 
2113.255 1556374 1567647 1570806 1568711 1565153 1563124 1564654 1570473 
2117.113 1580949 1597277 1621056 1652818 1691968 1734713 1775167 1807706 
2120.970 1828103 1836055 1835489 1832561 1833393 1841612 1857052 1876319 
2124.828 1894622 1908267 1915455 1916553 1912660 1903641 1887866 1862376 
2128.685 1824043 1771108 1705539 1630202 1550189 1470390 1393099 1320741 
2132.542 1255040 1198387 1154431 1126791 1117058 1122739 1138219 1155229 
2136.400 1166392 1167953 1160578 1148983 1139681 1136492 1141342 1152073 
2140.257 1165229 1176658 1185296 1190612 1192572 1191310 1185728 1173136 
2144.115 1153468 1127256 1097227 1066800 1038501 1011400 983802 952188 
2147.972 915729 876782 841225 814900 802120 802618 810286 817921 818054 
2152.312 805937 782004 748214 706495 657446 600041 534582 466711 409962 
2156.651 381971 404158 490760 641650 842022 1064508 1280860 1467531 1614205 
2160.991 1720176 1792035 1837819 1862775 1870495 1864140 1848433 1829367 
2164.848 1814194 1807141 1807972 1813130 1815692 1809969 1795129 1773470 
2168.706 1750149 1730388 1715652 1703510 1689506 1669249 1641510 1609682 
2172.563 1580483 1560131 1553381 1560431 1578089 1601201 1624914 1644769 
2176.421 1658539 1663828 1657175 1635756 1598241 1545966 1485252 1426707 
2180.278 1379803 1352847 1349091 1365411 1395060 1430563 1466600 1500612 
2184.135 1533264 1564288 1592987 1617298 1634426 1643007 1645568 1647463 
2187.993 1654614 1672509 1702945 1743795 1791203 1839981 1886602 1930132 
2191.850 1970072 2005255 2034050 2052726 2058385 2050329 2031220 2006953 
2195.708 1984984 1971603 1968574 1975431 1988046 2000528 2009616 2013777 
2199.565 2013544 2010914 2008051 2006620 2007985 2014043 2025295 2043604 
2203.423 2069005 2099136 2130534 2158204 2178650 2190572 2195401 2196833 
2207.280 2198765 2204193 2212552 2222743 2232401 2240594 2246789 2252718 
2211.137 2258380 2263176 2264541 2259745 2246922 2228105 2208056 2193136 
2214.995 2189573 2199897 2222243 2251552 2281029 2304912 2321101 2329995 
2218.852 2333626 2334559 2333859 2330895 2325298 2317636 2308742 2301348 
2222.710 2297084 2295552 2294186 2289123 2276765 2255748 2227872 2196933 
2226.567 2166529 2139191 2114052 2088715 2060915 2030321 1999563 1974266 
2230.425 1959720 1959454 1973101 1996101 2021500 2043637 2058185 2064511 
2234.282 2064910 2062180 2059351 2057886 2058285 2060782 2066242 2075997 
2238.139 2090513 2110156 2132598 2155440 2175720 2192104 2205159 2217314 
2241.997 2231868 2250519 2274034 2300781 2327730 2352548 2373470 2389795 
2245.854 2402356 2412084 2419415 2424746 2428577 2430776 2432542 2434642 
2249.712 2437074 2439573 2440939 2440706 2439073 2438340 2441939 2453568 
2253.569 2475361 2506520 2543280 2580209 2611275 2631643 2639176 2634243 
2257.427 2618809 2596008 2568843 2539747 2512052 2488091 2470662 2461665 
2261.284 2461399 2468396 2479593 2491690 2502254 2511185 2520450 2532448 
2265.141 2550145 2574409 2604009 2636076 2667480 2694985 2717390 2734528 
2268.999 2746098 2752134 2752300 2745698 2732728 2715223 2695785 2677981 
2272.856 2665346 2659979 2662212 2670847 2684149 2700252 2718157 2736795 
2276.714 2755568 2773608 2790081 2803754 2815093 2824631 2833836 2844541 
2280.571 2857882 2873892 2892671 2913752 2937169 2964157 2996018 3033521 
2284.428 3076198 3121583 3166272 3206693 3240073 3265645 3284841 3299932 
2288.286 3313053 3325974 3339263 3352386 3365508 3378999 3393659 3410857 
2292.143 3431763 3456210 3483999 3514595 3547198 3582609 3621566 3664802 
2296.001 3712254 3762451 3813089 3861192 3904620 3942669 3975771 4005299 
2299.858 4032454 4057838 4080815 4100717 4116572 4128246 4136642 4142930 
2303.716 4148383 4153568 4158452 4163136 4167552 4172637 4180030 4191438 
2307.573 4207765 4229211 4254305 4281242 4307912 4333078 4356170 4377390 
2311.430 4397137 4415413 4431915 4446677 4459164 4470512 4481928 4494951 
2315.288 4510954 4530440 4553007 4577886 4604373 4632068 4661439 4693023 
2319.145 4727524 4765242 4806013 4849569 4894939 4941017 4985525 5025042 
2323.003 5055044 5070598 5067480 5044115 5002183 4946647 4884852 4825110 
2326.860 4774187 4736702 4713589 4702904 4701564 4705785 4712684 4720824 
2330.718 4729801 4739482 4750335 4762395 4775996 4791808 4811005 4834089 
2334.575 4862134 4895039 4931901 4972118 5014685 5059200 5105698 5153643 
2338.432 5201526 5247267 5287480 5318874 5339839 5350707 5353458 5351613 
2342.290 5348426 5345642 5342925 5337826 5328132 5312032 5290767 5268497 
2346.147 5251996 5248944 5265948 5307571 5375632 5468432 5581825 5710356 
2350.005 5847085 5984629 6117211 6240454 6352604 6454323 6547724 6635324 
2353.862 6718736 6798630 6874971 6947991 7019172 7090803 7165645 7245452 
2357.719 7330262 7418122 7506033 7590388 7669802 7743664 7812614 7877661 
2361.577 7938533 7993676 8040557 8077721 8104423 8122214 8134671 8144732 
2365.434 8155266 8167049 8179406 8190279 8197740 8199699 8194600 8181094 
2369.292 8157460 8122247 8074986 8016796 7950817 7882149 7816965 7761271 
2373.149 7719244 7693106 7683291 7688856 7708654 7742045 7789303 7850669 
2377.007 7926588 8016931 8121032 8237788 8366397 8506129 8655875 8815073 
2380.864 8982076 9154761 9330357 9505619 9677394 9843102 9999787 10145335 
2384.721 10277530 10394325 10494245 10576229 10640367 10686888 10716978 
2388.097 10731751 10731922 10718540 10692119 10653711 10604307 10544791 
2391.472 10475780 10397345 10309118 10210834 10103144 9987920 9868489 
2394.847 9749295 9634774 9528853 9434470 9353074 9285369 9232329 9194998 
2398.705 9174659 9172730 9189347 9223393 9272133 9332728 9402302 9479339 
2402.562 9564010 9657981 9762883 9880590 10011688 10155476 10311119 10477681 
2406.419 10654560 10841975 11040279 11249861 11470770 11703058 11946029 
2409.795 12199290 12461974 12732495 13008373 13285861 13560485 13827107 
2413.170 14080886 14317554 14533452 14725804 14891942 15029604 15137493 
2416.545 15214901 15263151 15284842 15283744 15263907 15229108 15181548 
2419.920 15122534 15052380 14971433 14879940 14779863 14672987 14562301 
2423.296 14450204 14339540 14232636 14131783 14039577 13958067 13890016 
2426.671 13837231 13801281 13783872 13786335 13810038 13856388 13926178 
2430.046 14019455 14135514 14272457 14428212 14600850 14789496 14993863 
2433.421 15214421 15451364 15704446 15972525 16254185 16548384 16855080 
2436.797 17175400 17510828 17863222 18233768 18622648 19029568 19454470 
2440.172 19898174 20362124 20848610 21359342 21895312 22456262 23040648 
2443.547 23646570 24272926 24918782 25583630 26266990 26966940 27680804 
2446.922 28404866 29135662 29869712 30605078 31339732 32071884 32799556 
2450.298 33519964 34229492 34925528 35605272 36266200 36905332 37518680 
2453.673 38100844 38645144 39143928 39590256 39977168 40298904 40550232 
2457.048 40725788 40819832 40827040 40742964 40565292 40293704 39930740 
2460.423 39480728 38948316 38338704 37656548 36905876 36091356 35218064 
2463.799 34292592 33322722 32317958 31288236 30244752 29198488 28160220 
2467.174 27140616 26149086 25194018 24282736 23420398 22610760 21856214 
2470.549 21157940 20516050 19929950 19398408 18918492 18486230 18096780 
2473.924 17743954 17422282 17127042 16854872 16603634 16372047 16159052 
2477.300 15962351 15779689 15607579 15442644 15282165 15124387 14968621 
2480.675 14815311 14665996 14522214 14386289 14260232 14145544 14043069 
2484.050 13952523 13872603 13801111 13736197 13675943 13619766 13567869 
2487.425 13521140 13480123 13445263 13415838 13390927 13370151 13353270 
2490.801 13341380 13336153 13338886 13350469 13370458 13397384 13429098 
2494.176 13463957 13500596 13538675 13578535 13620928 13666231 13714720 
2497.551 13766156 13819992 13875237 13930968 13985029 14035779 14081194 
2500.926 14119769 14151158 14176318 14197133 14216374 14236540 14259479 
2504.302 14286153 14316699 14350601 14387111 14425678 14465002 14503885 
2507.677 14540989 14574362 14602358 14624014 14638922 14647078 14648757 
2511.052 14643342 14630011 14607394 14574670 14531499 14479185 14419376 
2514.427 14354301 14285366 14213018 14136712 14055833 13970247 13881190 
2517.802 13791637 13705179 13625133 13553989 13491916 13438017 13390687 
2521.178 13347838 13308444 13272606 13240632 13213133 13190454 13172659 
2524.553 13159475 13150937 13146805 13147487 13152850 13162788 13176859 
2527.928 13194586 13215935 13241076 13270420 13304515 13343397 13386279 
2531.303 13431695 13478072 13524148 13569680 13615081 13661308 13709728 
2534.679 13760752 13814690 13871679 13931824 13995809 14064115 14137329 
2538.054 14214867 14295570 14377624 14459042 14539139 14618428 14698350 
2541.429 14780891 14867631 14958332 15052277 15147099 15241085 15332860 
2544.804 15422765 15511076 15598923 15686514 15773332 15857726 15938014 
2548.180 16012885 16081577 16144162 16200941 16252499 16299490 16342355 
2551.555 16382061 16420083 16457696 16496275 16536441 16577540 16618265 
2554.930 16656686 16691599 16721936 16748451 16771661 16792292 16810234 
2558.305 16824424 16832794 16833380 16824252 16804656 16774589 16734952 
2561.681 16687054 16632035 16571276 16505774 16436910 16365752 16293228 
2565.056 16220134 16146740 16073566 16001299 15931243 15865151 15805287 
2568.431 15753850 15711661 15679849 15657900 15645120 15641067 15645120 
2571.806 15656766 15675349 15699465 15727326 15757149 15787592 15818071 
2575.182 15849788 15884155 15923131 15967540 16017389 16071504 16128445 
2578.557 16186908 16246652 16308228 16372839 16440971 16512485 16586352 
2581.932 16660957 16735055 16807996 16880638 16954294 17030890 17111876 
2585.307 17198048 17289514 17385482 17485264 17587486 17690458 17792072 
2588.683 17890498 17983560 18070424 18150880 18226512 18298978 18370592 
2592.058 18442390 18514858 18587096 18658136 18727006 18794228 18861008 
2595.433 18929220 19000558 19076478 19156876 19241656 19330020 19421692 
2598.808 19516710 19615736 19719294 19827800 19941258 20059502 20182254 
2602.184 20309658 20441858 20579068 20721394 20868424 21019366 21173978 
2605.559 21331602 21492662 21657578 21827052 22000946 22178714 22358506 
2608.934 22537954 22714928 22887118 23052528 23209962 23358084 23495064 
2612.309 23619632 23730202 23825398 23904756 23968126 24015782 24048386 
2615.685 24067052 24072482 24066352 24050138 24025658 23994738 23959198 
2619.060 23919950 23877870 23833588 23787702 23741190 23695416 23651856 
2622.435 23612250 23577824 23549070 23526580 23510594 23501466 23499820 
2625.810 23506538 23522170 23546832 23580098 23620994 23668370 23721836 
2629.186 23780562 23845384 23916694 23995298 24081796 24176124 24277726 
2632.561 24385940 24499684 24617844 24739224 24862710 24987462 25113194 
2635.936 25239946 25368600 25500310 25636244 25777180 25923014 26072836 
2639.311 26224998 26377604 26528252 26675186 26817090 26952804 27081752 
2642.687 27204178 27320498 27432120 27540876 27648706 27757938 27869780 
2646.062 27985112 28103904 28225488 28349404 28475158 28602684 28732442 
2649.437 28864930 29000788 29140268 29283762 29431416 29583660 29740856 
2652.812 29903574 30072176 30247240 30428628 30616170 30809912 31009400 
2656.188 31214212 31424108 31638346 31856362 32077484 32301396 32527604 
2659.563 32756500 32987804 33221378 33456940 33693700 33930416 34166580 
2662.938 34401576 34635156 34867968 35100220 35332380 35564776 35797440 
2666.313 36030480 36264148 36498556 36734348 36971716 37210584 37450848 
2669.688 37692360 37935280 38180212 38427928 38679368 38935016 39194476 
2673.064 39456596 39719416 39980364 40237216 40487848 40731024 40965744 
2676.439 41191448 41408008 41615888 41816136 42010740 42202004 42393420 
2679.814 42588252 42789492 42999940 43221868 43457388 43708900 43978052 
2683.189 44267176 44577168 44909132 45262308 45635760 46028020 46437416 
2686.565 46862444 47302144 47755164 48220580 48697240 49183704 49679032 
2689.940 50182624 50694512 51215356 51745968 52287128 52839632 53403784 
2693.315 53979812 54567608 55166928 55777508 56398308 57028684 57667320 
2696.690 58313484 58966120 59625096 60290100 60960616 61635956 62314524 
2700.066 62995112 63675584 64355352 65033764 65710416 66385584 67057936 
2703.441 67725128 68384128 69030328 69658664 70264000 70841592 71386512 
2706.816 71894664 72361288 72782496 73154704 73474840 73740976 73952240 
2710.191 74108544 74210336 74259008 74256136 74203424 74102576 73955184 
2713.567 73761864 73522992 73237920 72905848 72525792 72097904 71623008 
2716.942 71102760 70540616 69939488 69303360 68636104 67942168 67226088 
2720.317 66493080 65748504 64998204 64247660 63502280 62767596 62048680 
2723.692 61350568 60678264 60035684 59426652 58853756 58318864 57822900 
2727.068 57366788 56950780 56575440 56240852 55947116 55693652 55479336 
2730.443 55302312 55161096 55054376 54980928 54940500 54932644 54956820 
2733.818 55012328 55097144 55209328 55346532 55506032 55685740 55883160 
2737.193 56095600 56320292 56553396 56791544 57030496 57266784 57497072 
2740.569 57718516 57928712 58125792 58308064 58475216 58627564 58766572 
2743.944 58894696 59014588 59129120 59240600 59350672 59460236 59570476 
2747.319 59682264 59796552 59914488 60036520 60162776 60292988 60426556 
2750.694 60563436 60704556 60851664 61007632 61175672 61359268 61561536 
2754.070 61784604 62030640 62300836 62596528 62918552 63267060 63642056 
2757.445 64042488 64466416 64911396 65373616 65848828 66331312 66814324 
2760.820 67290344 67751000 68188224 68594736 68964144 69291464 69572712 
2764.195 69804792 69985072 70111800 70184232 70203008 70170760 70091432 
2767.571 69970352 69813272 69626696 69415968 69187008 68945624 68697032 
2770.946 68446456 68198576 67957040 67724048 67501120 67288560 67086780 
2774.321 66895880 66716612 66549696 66395820 66254728 66124760 66003008 
2777.696 65884844 65764232 65634028 65486984 65315536 65113164 64875648 
2781.072 64600236 64287500 63940280 63564068 63164964 62750220 62326536 
2784.447 61900096 61476136 61059264 60652772 60259416 59881092 59518336 
2787.822 59171036 58838656 58520332 58215236 57923108 57644120 57378476 
2791.197 57125912 56886224 56658408 56441696 56234744 56036260 55845556 
2794.573 55661596 55482576 55306940 55131900 54954412 54771736 54580872 
2797.948 54379272 54165380 53937828 53695880 53438668 53166064 52877696 
2801.323 52573916 52254876 51920912 51572468 51210136 50834284 50445656 
2804.698 50045740 49636164 49219288 48798292 48376148 47956892 47544328 
2808.073 47142268 46754792 46385504 46037784 45714344 45417044 45146820 
2811.449 44904060 44688172 44498128 44332672 44190468 44070272 43971120 
2814.824 43892448 43833652 43795056 43776624 43778932 43802092 43846480 
2818.199 43911948 43998584 44106176 44235116 44385740 44558884 44755164 
2821.574 44975092 45218512 45484224 45770784 46076064 46397632 46733240 
2824.950 47080520 47436724 47798292 48161712 48521768 48873116 49210272 
2828.325 49527936 49821304 50085936 50318216 50515184 50674664 50795472 
2831.700 50877492 50922052 50931884 50910572 50863000 50794540 50711048 
2835.075 50619004 50524228 50432260 50347684 50273868 50212900 50165740 
2838.451 50133124 50115576 50114716 50133348 50174964 50244592 50347460 
2841.826 50489536 50677384 50918100 51220164 51593624 52048716 52596428 
2845.201 53245880 54002360 54864140 55820344 56849248 57914932 58970824 
2848.576 59962188 60826544 61505952 61950192 62122608 62007020 61607052 
2851.952 60947160 60064524 59009200 57836756 56599824 55349920 54131640 
2855.327 52978712 51917592 50964636 50126540 49402764 48785984 48265340 
2858.702 47826332 47453984 47134104 46853108 46600060 46366332 46145776 
2862.077 45935088 45733264 45541328 45361608 45197260 45051424 44926988 
2865.453 44826760 44753032 44708152 44693828 44711460 44761300 44842412 
2868.828 44952380 45087412 45242672 45412408 45591192 45773176 45952804 
2872.203 46125508 46287408 46436092 46571476 46695496 46812360 46927480 
2875.578 47047804 47179016 47326456 47494272 47684564 47899136 48138504 
2878.954 48402892 48691572 49003176 49335868 49686760 50052880 50431032 
2882.329 50818008 51210432 51605192 51998068 52385020 52761544 53123000 
2885.704 53466176 53788428 54088668 54367368 54626108 54868048 55097444 
2889.079 55319624 55541088 55768956 56010852 56274420 56567024 56896576 
2892.455 57271356 57700880 58196292 58769796 59433336 60197832 61069332 
2895.830 62047000 63119440 64264520 65447264 66619216 67726064 68708288 
2899.205 69508072 70080800 70397088 70449960 70254064 69845264 69274400 
2902.580 68595816 67867120 67138944 66450760 65833980 65309488 64889924 
2905.956 64582816 64390980 64314084 64350204 64496712 64750976 65111436 
2909.331 65578036 66151148 66830912 67615128 68498392 69470008 70515512 
2912.706 71614096 72740456 73866920 74961464 75990720 76924080 77732776 
2916.081 78395432 78900016 79244456 79435976 79488728 79421336 79251336 
2919.457 78993280 78657024 78246584 77761592 77199632 76558504 75838360 
2922.832 75044200 74185184 73275968 72334792 71380568 70432776 69508896 
2926.207 68622248 67782952 66997388 66268316 65596296 64980352 64418108 
2929.582 63906416 63441804 63019788 62635496 62283704 61958832 61655468 
2932.958 61368772 61094540 60829440 60571780 60320136 60074152 59833972 
2936.333 59599820 59371564 59149048 58931924 58719724 58512864 58312312 
2939.708 58120260 57939620 57774340 57628116 57504148 57404528 57328748 
2943.083 57273928 57233368 57197152 57152936 57086156 56983948 56835768 
2946.458 56635912 56384876 56089716 55762664 55418164 55072392 54738736 
2949.834 54426968 54142000 53883544 53647140 53424204 53204456 52976992 
2953.209 52731800 52460948 52159852 51827048 51464392 51075980 50667516 
2956.584 50244516 49812604 49376404 48939976 48506800 48080092 47662376 
2959.959 47255376 46860156 46476616 46104284 45742652 45391880 45053412 
2963.335 44729528 44423320 44138272 43877380 43642840 43436592 43259680 
2966.710 43113104 42997304 42911784 42855096 42824268 42814468 42819956 
2970.085 42834360 42852612 42870640 42886328 42899788 42912664 42927256 
2973.460 42946168 42971480 43003964 43042304 43082512 43117424 43136924 
2976.836 43127848 43076548 42969904 42796736 42550936 42231216 41841784 
2980.211 41391420 40892708 40360968 39811504 39260372 38722368 38209160 
2983.586 37730020 37290440 36891988 36533260 36211020 35922024 35664728 
2986.961 35439972 35250872 35101264 34992464 34921040 34875260 34836052 
2990.337 34778220 34672372 34493544 34223432 33855616 33396642 32865774 
2993.712 32291546 31703926 31132974 30601806 30124238 29705552 29343138 
2997.087 29029622 28755134 28510220 28287406 28081036 27887834 27705880 
3000.462 27534132 27371982 27218712 27073570 26935494 26803628 26676806 
3003.838 26554600 26436370 26322470 26213350 26110134 26013800 25925474 
3007.213 25845606 25774154 25710906 25655542 25607460 25566514 25532428 
3010.588 25504808 25483480 25467844 25457058 25450664 25448064 25449118 
3013.963 25453510 25461660 25473570 25489838 25511062 25538192 25572174 
3017.339 25613960 25663696 25720644 25782980 25848172 25912954 25974296 
3020.714 26029738 26077588 26116678 26146412 26166050 26175340 26174004 
3024.089 26163022 26144092 26120162 26094828 26072028 26054576 26044304 
3027.464 26041770 26045922 26055210 26068228 26083040 26098346 26113054 
3030.840 26125968 26135714 26141520 26142822 26139656 26133110 26124700 
3034.215 26116608 26110414 26107916 26110134 26117594 26130718 26149510 
3037.590 26174424 26205888 26244006 26289448 26342290 26402356 26469086 
3040.965 26541602 26618498 26698298 26779804 26861924 26944344 27027164 
3044.341 27110424 27194230 27277946 27360760 27440910 27517330 27589104 
3047.716 27656334 27720076 27781958 27843460 27905924 27969528 28033566 
3051.091 28096940 28157922 28214844 28266648 28312442 28352056 28385800 
3054.466 28414662 28439886 28463412 28486974 28511954 28539164 28568640 
3057.842 28599958 28632836 28666920 28703024 28741858 28784872 28832318 
3061.217 28884160 28938804 28994520 29049176 29101220 29150402 29197568 
3064.592 29244278 29292552 29343952 29399328 29459038 29522586 29589548 
3067.967 29659040 29730424 29803344 29877308 29952278 30028324 30105734 
3071.343 30185078 30266956 30351976 30440640 30533480 30630996 30733408 
3074.718 30841322 30954778 31073246 31195414 31319362 31442594 31562944 
3078.093 31679012 31790298 31897474 32001790 32104562 32206432 32307394 
3081.468 32406774 32503572 32597602 32688654 32778010 32867026 32956704 
3084.844 33048190 33141624 33236652 33332810 33429742 33527232 33625532 
3088.219 33725036 33826316 33929876 34036296 34145644 34258388 34374460 
3091.594 34493508 34614668 34737008 34859104 34980180 35100044 35219180 
3094.969 35338564 35459528 35583332 35710160 35839864 35971440 36103636 
3098.344 36235332 36366128 36495888 36625356 36755620 36887588 37021864 
3101.720 37158640 37297264 37436616 37574964 37710972 37843264 37971328 
3105.095 38095380 38216324 38335736 38454680 38574924 38697228 38822136 
3108.470 38949984 39080516 39213876 39349604 39487404 39626876 39767564 
3111.845 39909528 40052412 40196468 40341844 40488104 40634816 40781140 
3115.221 40925984 41068984 41210208 41350204 41490172 41631460 41774616 
3118.596 41919500 42065016 42209888 42352800 42493384 42632072 42769824 
3121.971 42907980 43047644 43189004 43331688 43474824 43617308 43758812 
3125.346 43899192 44038848 44178400 44318508 44459328 44601364 44744256 
3128.722 44887452 45030368 45172004 45311220 45447284 45580004 45709780 
3132.097 45838200 45967020 46098280 46233076 46371456 46512424 46654028 
3135.472 46794644 46932428 47067228 47199484 47330116 47460344 47590648 
3138.847 47721436 47852300 47983016 48113476 48243384 48373148 48502580 
3142.223 48631788 48760516 48888428 49015640 49142664 49270096 49398976 
3145.598 49529752 49662872 49797928 49934136 50070728 50206728 50341880 
3148.973 50476248 50609844 50743368 50877084 51011288 51145828 51280600 
3152.348 51415152 51549224 51682624 51815732 51949068 52083268 52218816 
3155.724 52355528 52492248 52627548 52759560 52887196 53009968 53129220 
3159.099 53247188 53366616 53489748 53618164 53751640 53889020 54028812 
3162.474 54169508 54310368 54451872 54594284 54738324 54883836 55030004 
3165.849 55174940 55317100 55454488 55585972 55710716 55828972 55940860 
3169.225 56047568 56149780 56248700 56344960 56438980 56530564 56618924 
3172.600 56703452 56782892 56857748 56928304 56995696 57061064 57125192 
3175.975 57187516 57246900 57302168 57352268 57397416 57439092 57479148 
3179.350 57519844 57562704 57608140 57655736 57704816 57754924 57806172 
3182.726 57859352 57915312 57974528 58036632 58100640 58164920 58228264 
3186.101 58290068 58350548 58410696 58471348 58533376 58596960 58661696 
3189.476 58726932 58792256 58857056 58921376 58985060 59048636 59112488 
3192.851 59177412 59244248 59313296 59384784 59457768 59530536 59601532 
3196.227 59668540 59730892 59788492 59842872 59895472 59947772 60000416 
3199.602 60053452 60105960 60157716 60208296 60258616 60309512 60361556 
3202.977 60414752 60468448 60521460 60573076 60623664 60673764 60725284 
3206.352 60779436 60836188 60894472 60952232 61007288 61058196 61105108 
3209.728 61148932 61191540 61234228 61277724 61321528 61364764 61407280 
3213.103 61449000 61491100 61534584 61580476 61628392 61677352 61725092 
3216.478 61770316 61811612 61849128 61883860 61916796 61948664 61980308 
3219.853 62011760 62043136 62074868 62107360 62141076 62176176 62212268 
3223.229 62248328 62283776 62318084 62351552 62385060 62419600 62455944 
3226.604 62493672 62531740 62568440 62601968 62631168 62655628 62675648 
3229.979 62692484 62706992 62720432 62734216 62749492 62767408 62788888 
3233.354 62814116 62842496 62872588 62902196 62929272 62952748 62972016 
3236.729 62987880 63001244 63013732 63025916 63038520 63051580 63065456 
3240.105 63080320 63096560 63113996 63131852 63148328 63161740 63170016 
3243.480 63172168 63168792 63161516 63153276 63147336 63145840 63150668 
3246.855 63162124 63179752 63202368 63228808 63257516 63286952 63315244 
3250.230 63340740 63362016 63377924 63388160 63393720 63395524 63395292 
3253.606 63395104 63396216 63399932 63406988 63417300 63430072 63443988 
3256.981 63457148 63467688 63474364 63476316 63474172 63468992 63462204 
3260.356 63454880 63447364 63439468 63430572 63420140 63407988 63394524 
3263.731 63380456 63366576 63352352 63337788 63321836 63303480 63282700 
3267.107 63260084 63236052 63212132 63188912 63166612 63145144 63123956 
3270.482 63102424 63080088 63056716 63032240 63006224 62978872 62949880 
3273.857 62919624 62888868 62858120 62828020 62798268 62768212 62736624 
3277.232 62702552 62665844 62626956 62587388 62548428 62511540 62476604 
3280.608 62443052 62409656 62375572 62340876 62306188 62273144 62243164 
3283.983 62216972 62194412 62174108 62154688 62134576 62113128 62090308 
3287.358 62066608 62042984 62020320 61999072 61980040 61963608 61950040 
3290.733 61939108 61930588 61923408 61916796 61910528 61905332 61902732 
3294.109 61904760 61913204 61928948 61950764 61976600 62003200 62027624 
3297.484 62047916 62064084 62076816 62088244 62100172 62113704 62129604 
3300.859 62148036 62169024 62192804 62219956 62251004 62285768 62324356 
3304.234 62365936 62410152 62456940 62506296 62558532 62613600 62671168 
3307.610 62729740 62787964 62844144 62896684 62945164 62989368 63029632 
3310.985 63066444 63100584 63133076 63165344 63199148 63235940 63276796 
3314.360 63321492 63368260 63415080 63459256 63499176 63534112 63564948 
3317.735 63593372 63621068 63649148 63677700 63706048 63733600 63759232 
3321.111 63782528 63803092 63820056 63832456 63838712 63837828 63829192 
3324.486 63813916 63793616 63771396 63749216 63728460 63708776 63689320 
3327.861 63667908 63643016 63613436 63579144 63540020 63496568 63448900 
3331.236 63396900 63340276 63279176 63213400 63143232 63068444 62988372 
3334.612 62902540 62810368 62711628 62607288 62498528 62387200 62274524 
3337.987 62160996 62046312 61929900 61810504 61687244 61559476 61426744 
3341.362 61288448 61144088 60993256 60836036 60672968 60506112 60336808 
3344.737 60166736 59996308 59824620 59649840 59470536 59285680 59096048 
3348.113 58903960 58712368 58524236 58341604 58164620 57992404 57823392 
3351.488 57656268 57490380 57326104 57164196 57005408 56850044 56697940 
3354.863 56548608 56401400 56256204 56113248 55973200 55836776 55704500 
3358.238 55577388 55455808 55340400 55231604 55129304 55033052 54941892 
3361.614 54854024 54767564 54681500 54595224 54508852 54423364 54339920 
3364.989 54259228 54181820 54107884 54037480 53970728 53907668 53848248 
3368.364 53792328 53739264 53688196 53638256 53588660 53538656 53487536 
3371.739 53434324 53377932 53316148 53247564 53170636 53084624 52989568 
3375.115 52886488 52776024 52658664 52534312 52401956 52260520 52108896 
3378.490 51946456 51773288 51588996 51393484 51186276 50966312 50732604 
3381.865 50485256 50224064 49950048 49664172 49368128 49063044 48750472 
3385.240 48432040 48109628 47784976 47460268 47136728 46814944 46494944 
3388.615 46175992 45857348 45538604 45219360 44899836 44580288 44260868 
3391.991 43942156 43624668 43309320 42997380 42689868 42387248 42089000 
3395.366 41793840 41499724 41204964 40908912 40612296 40316792 40025160 
3398.741 39738880 39458448 39182800 38909432 38636124 38361036 38083408 
3402.116 37803500 37522220 37240616 36958616 36676692 36394412 36112132 
3405.492 35830796 35551792 35276604 35006152 34740420 34478804 34220172 
3408.867 33963736 33709028 33456512 33206462 32959386 32715448 32474182 
3412.242 32235124 31997834 31762384 31528666 31297102 31067408 30839438 
3415.617 30612508 30386552 30161706 29938858 29719214 29503436 29291738 
3418.993 29083294 28876332 28668974 28459804 28247976 28033708 27817672 
3422.368 27600612 27383416 27166258 26949524 26733780 26520010 26308986 
3425.743 26101688 25898252 25698568 25501188 25305164 25109192 24912886 
3429.118 24716180 24519424 24322790 24126454 23930206 23734120 23538298 
3432.494 23343294 23150162 22959772 22772538 22588490 22407206 22228232 
3435.869 22050864 21875552 21702614 21532980 21367382 21206542 21050354 
3439.244 20898672 20750762 20606272 20464226 20323374 20182774 20041284 
3442.619 19898244 19753656 19607972 19462440 19317582 19173742 19030296 
3445.995 18886480 18741466 18595430 18449824 18307066 18169568 18038818 
3449.370 17914288 17794452 17675998 17556158 17433182 17307548 17181056 
3452.745 17056630 16936378 16821498 16711468 16604494 16498683 16392658 
3456.120 16285866 16178690 16071573 15964894 15858140 15750965 15642716 
3459.496 15533122 15422765 15312643 15203681 15096289 14990536 14886147 
3462.871 14782982 14681282 14581729 14485385 14392830 14304439 14218872 
3466.246 14134795 14050426 13964534 13876811 13786985 13696049 13604552 
3469.621 13512970 13421545 13330310 13238924 13147249 13055081 12962318 
3472.997 12868416 12773577 12677975 12583007 12490380 12402579 12321545 
3476.372 12248297 12182558 12122451 12065419 12008257 11948379 11884422 
3479.747 11815878 11743566 11668714 11593432 11519422 11448588 11382766 
3483.122 11322872 11269378 11221808 11178595 11137561 11096497 11053772 
3486.498 11008094 10959805 10909142 10857671 10806205 10755899 10707061 
3489.873 10660401 10616530 10575448 10537934 10503987 10473268 10445605 
3493.248 10420321 10396971 10375524 10356113 10338773 10323844 10311255 
3496.623 10300737 10292933 10288217 10288014 10293747 10306675 10327270 
3499.999 10355469 10389878 10428669 10469908 10511761 10552939 10593578 
3503.374 10634152 10675886 10720748 10770675 10827368 10891951 10964494 
3506.749 11044119 11129131 11216946 11305970 11395590 11486590 11580637 
3510.124 11679980 11786121 11898724 12016262 12135842 12255250 12372714 
3513.500 12488129 12602142 12715640 12828928 12940641 13048696 13150698 
3516.875 13244970 13331335 13410951 13486275 13559117 13630057 13697895 
3520.250 13760308 13813630 13854917 13881327 13891658 13885089 13861759 
3523.625 13822044 13766190 13694647 13607594 13505006 13386655 13251939 
3527.000 13100974 12934224 12753001 12560087 12358430 12151414 11942146 
3530.376 11732332 11523165 11315050 11108564 10903604 10700031 10497164 
3533.751 10293510 10086662 9874523 9655271 9429459 9199026 8967767 8739777 
3537.608 8518394 8305837 8102364 7907388 7720188 7540656 7368612 7204485 
3541.466 7048335 6898872 6753667 6610496 6466901 6320933 6172829 6023163 
3545.323 5872776 5722845 5574341 5427733 5284260 5145462 5012707 4887466 
3549.181 4769597 4657722 4549592 4442024 4332375 4219809 4104463 3988043 
3553.038 3872625 3760011 3651069 3546363 3446024 3350516 3260637 3177086 
3556.896 3099925 3028415 2960921 2895272 2829767 2763638 2697118 2631609 
3560.753 2568543 2509186 2454601 2405254 2361243 2323100 2290455 2262210 
3564.610 2234832 2203027 2159470 2097871 2013910 1908999 1789706 1665890 
3568.468 1548726 1446287 1362020 1295184 1241316 1195363 1152471 1109318 
3572.325 1064375 1017843 969954 921307 872566 823631 774834 726507 678916 
3576.665 632127 586138 540586 495105 450127 406015 364096 325630 291644 
3581.004 262832 239658 221889 209523 202728 201170 203921 209391 214098 
3585.344 213568 202927 178098 136633 80191 12524 -59173 -127547 -186405 
3589.684 -231975 -263037 -281746 -291945 -298402 -306282 -320155 -342338 
3593.541 -372962 -409939 -449098 -485970 -517146 -541106 -558247 -571285 
3597.398 -582867 -596069 -613374 -636336 -665583 -701675 -743785 -790289 
3601.256 -838508 -884870 -925011 -955329 -973115 -977083 -968090 -948783 
3605.113 -922531 -894327 -868733 -850777 -844394 -852100 -873858 -907388 
3608.971 -947229 -987629 -1023364 -1051659 -1072780 -1089834 -1107219 
3612.346 -1128469 -1154907 -1184647 -1213295 -1235631 -1247360 -1247426 
3615.721 -1237283 -1221324 -1205134 -1194197 -1193106 -1204770 -1229948 
3619.096 -1268471 -1317199 -1372791 -1430985 -1486827 -1535893 -1575049 
3622.472 -1601559 -1614136 -1611990 -1594593 -1561513 -1512978 -1450205 
3625.847 -1376853 -1299294 -1228296 -1177411 -1160459 -1187059 -1256379 
3629.222 -1356309 -1465363 -1562768 -1635758 -1680880 -1702531 -1709099 
3632.597 -1709858 -1711475 -1718472 -1731937 -1750616 -1773023 -1797639 
3635.973 -1823409 -1850365 -1878046 -1905098 -1929542 -1949532 -1963649 
3639.348 -1971895 -1975556 -1976348 -1976018 -1974963 -1972126 -1964804 
3642.723 -1949796 -1923670 -1884545 -1832153 -1768040 -1696161 -1621630 
3646.098 -1550750 -1490525 -1447134 -1425536 -1429135 -1458956 -1513507 
3649.474 -1588453 -1676919 -1769063 -1853302 -1919580 -1959592 -1970246 
3652.849 -1953622 -1916347 -1869072 -1824399 -1795560 -1792063 -1817272 
3656.224 -1867225 -1931290 -1996600 -2052237 -2092962 -2118418 -2132267 
3659.599 -2139323 -2144268 -2150236 -2158676 -2169259 -2181458 -2193524 
3662.975 -2204040 -2210205 -2209677 -2199557 -2177337 -2141795 -2093160 
3666.350 -2034099 -1968663 -1903085 -1844658 -1801302 -1780150 -1784308 
3669.725 -1811960 -1853566 -1895201 -1921757 -1922549 -1894805 -1843767 
3673.100 -1782064 -1725864 -1694907 -1705171 -1763486 -1861979 -1979647 
3676.476 -2092237 -2181095 -2239939 -2272572 -2288096 -2295545 -2301511 
3679.851 -2309190 -2317990 -2325998 -2331239 -2332623 -2329492 -2321253 
3683.226 -2306422 -2282196 -2246301 -2197777 -2138498 -2074133 -2012167 
3686.601 -1961703 -1930564 -1922483 -1936139 -1965760 -2002569 -2038946 
3689.977 -2071363 -2099327 -2125244 -2151027 -2177040 -2201667 -2222765 
3693.352 -2238126 -2247356 -2251608 -2253223 -2254805 -2257739 -2262387 
3696.727 -2266771 -2268913 -2266771 -2259486 -2248114 -2235192 -2224017 
3700.102 -2218018 -2219897 -2230182 -2247586 -2268649 -2289118 -2304872 
3703.478 -2312486 -2310113 -2297028 -2273824 -2241587 -2202029 -2157028 
3706.853 -2108361 -2057612 -2006527 -1956557 -1909749 -1868346 -1835221 
3710.228 -1814236 -1809188 -1822683 -1855314 -1904405 -1964276 -2026645 
3713.603 -2084389 -2131278 -2164677 -2184392 -2192733 -2192700 -2187425 
3716.979 -2178886 -2167974 -2154324 -2136949 -2115583 -2090885 -2064834 
3720.354 -2040200 -2019522 -2004845 -1996336 -1993466 -1994950 -1999271 
3723.729 -2006197 -2015959 -2029152 -2046466 -2067307 -2088874 -2107702 
3727.104 -2118913 -2118649 -2104635 -2077332 -2038683 -1993400 -1946464 
3730.479 -1902327 -1864585 -1834495 -1810574 -1790314 -1771538 -1754378 
3733.855 -1742860 -1743553 -1763189 -1806284 -1871547 -1951280 -2034000 
3737.230 -2108460 -2166886 -2206150 -2226951 -2230248 -2216963 -2186403 
3740.605 -2137509 -2071166 -1991092 -1907077 -1833968 -1789225 -1788301 
3743.980 -1835782 -1920305 -2014080 -2087291 -2121847 -2114659 -2074826 
3747.356 -2017971 -1961076 -1918062 -1898467 -1904999 -1934952 -1981131 
3750.731 -2035385 -2091874 -2145719 -2192700 -2229061 -2250520 -2254772 
3754.106 -2242543 -2217985 -2187326 -2157193 -2133355 -2119474 -2116341 
3757.481 -2122771 -2136850 -2157522 -2184029 -2216633 -2253520 -2291227 
3760.857 -2323757 -2345146 -2351012 -2340565 -2316968 -2286217 -2254970 
3764.232 -2228962 -2210633 -2198766 -2189304 -2177534 -2160819 -2139257 
3767.607 -2116869 -2099030 -2092336 -2100514 -2124057 -2159731 -2200480 
3770.982 -2239708 -2271253 -2291623 -2300390 -2299467 -2291062 -2278340 
3774.358 -2263145 -2246565 -2228435 -2208622 -2186700 -2163951 -2142455 
3777.733 -2125145 -2115517 -2115517 -2125013 -2141334 -2160127 -2176578 
3781.108 -2186403 -2188315 -2182348 -2170908 -2156830 -2143048 -2131739 
3784.483 -2124848 -2122903 -2126068 -2134212 -2145983 -2160127 -2174666 
3787.859 -2187886 -2198040 -2204963 -2208919 -2211326 -2213930 -2217457 
3791.234 -2221545 -2224973 -2225402 -2220853 -2210667 -2195568 -2177864 
3794.609 -2160490 -2146114 -2135498 -2127321 -2117726 -2102031 -2076244 
3797.984 -2038584 -1991355 -1939966 -1893518 -1862111 -1855578 -1878673 
3801.360 -1928156 -1991487 -2052105 -2095337 -2112747 -2105262 -2080168 
3804.735 -2049170 -2024996 -2017872 -2034099 -2071726 -2122639 -2174370 
3808.110 -2216897 -2244389 -2256454 -2256289 -2247652 -2232555 -2210930 
3811.485 -2180897 -2140312 -2089302 -2030933 -1971302 -1919349 -1884479 
3814.861 -1873526 -1887547 -1919547 -1955865 -1981757 -1985451 -1962726 
3818.236 -1917369 -1859274 -1800807 -1756061 -1736788 -1748702 -1788928 
3821.611 -1846340 -1906384 -1956656 -1990861 -2009363 -2017576 -2021962 
3824.986 -2027767 -2037858 -2052204 -2067340 -2079047 -2083631 -2079245 
3828.362 -2066351 -2047290 -2024337 -1999997 -1976150 -1953160 -1931917 
3831.737 -1912487 -1894640 -1878046 -1861649 -1844229 -1824333 -1801236 
3835.112 -1775201 -1747976 -1722795 -1703620 -1694148 -1697811 -1714907 
3838.487 -1744114 -1781800 -1823607 -1864816 -1902393 -1933665 -1958141 
3841.863 -1976447 -1991026 -2004878 -2021269 -2041783 -2065889 -2090423 
3845.238 -2110637 -2121748 -2120463 -2105262 -2077101 -2037858 -1989805 
3848.613 -1933566 -1869039 -1794999 -1711706 -1622455 -1535100 -1462457 
3851.988 -1422167 -1430324 -1495247 -1609911 -1752035 -1892595 -2007220 
3855.364 -2084620 -2125145 -2135729 -2125112 -2101107 -2070242 -2036341 
3858.739 -2002899 -1971895 -1945309 -1923934 -1908001 -1896718 -1888933 
3862.114 -1884149 -1882962 -1887547 -1899918 -1920998 -1948245 -1975457 
3865.489 -1994324 -1996962 -1979580 -1943990 -1898038 -1852939 -1821397 
3868.865 -1813610 -1832582 -1872734 -1920536 -1961604 -1985353 -1989739 
3872.240 -1979020 -1963154 -1951445 -1950455 -1961703 -1980966 -2000821 
3875.615 -2012365 -2010551 -1993400 -1963715 -1926969 -1890120 -1860890 
3878.990 -1844757 -1844889 -1860164 -1886360 -1915126 -1937525 -1946926 
3882.365 -1939438 -1916281 -1882829 -1847726 -1821232 -1811300 -1821957 
3885.741 -1850431 -1887646 -1921031 -1940559 -1941087 -1923967 -1895069 
3889.116 -1863497 -1838884 -1828622 -1836145 -1860164 -1895267 -1933665 
3892.491 -1968102 -1993664 -2007879 -2010254 -2001019 -1981098 -1951610 
3895.866 -1914335 -1872008 -1828556 -1787872 -1754015 -1729000 -1713158 
3899.242 -1704181 -1698768 -1693620 -1687019 -1679658 -1674245 -1674740 
3902.617 -1684906 -1706557 -1739527 -1781008 -1826511 -1870887 -1910541 
3905.992 -1942671 -1966354 -1981658 -1989377 -1989937 -1984759 -1974699 
3909.367 -1960977 -1945408 -1929014 -1912883 -1897444 -1882137 -1866202 
3912.743 -1848551 -1828820 -1807175 -1785166 -1765235 -1749527 -1740187 
3916.118 -1737976 -1742101 -1751012 -1761935 -1773122 -1782988 -1791238 
3919.493 -1797639 -1802061 -1804470 -1804239 -1800972 -1795395 -1788499 
3922.868 -1782823 -1780777 -1783747 -1791997 -1804074 -1816810 -1826643 
3926.244 -1831229 -1828985 -1820374 -1806713 -1789753 -1771241 -1752497 
3929.619 -1734940 -1719759 -1709132 -1705105 -1709462 -1723125 -1744477 
3932.994 -1770416 -1796649 -1818658 -1833869 -1841292 -1842315 -1839445 
3936.369 -1835254 -1831691 -1828754 -1825554 -1819846 -1810211 -1796022 
3939.745 -1778566 -1760615 -1745765 -1736986 -1736821 -1744973 -1759361 
3943.120 -1776124 -1790974 -1799586 -1799949 -1791766 -1776487 -1757216 
3946.495 -1737547 -1720320 -1707845 -1700056 -1696623 -1695633 -1695831 
3949.870 -1696161 -1696392 -1696656 -1697481 -1699362 -1702135 -1705468 
3953.246 -1709198 -1712762 -1715997 -1719000 -1721376 -1722795 -1722762 
3956.621 -1720452 -1715733 -1708736 -1699858 -1689758 -1679196 -1668568 
3959.996 -1657973 -1647575 -1637309 -1627538 -1618791 -1611165 -1605025 
3963.371 -1600073 -1595616 -1590929 -1585680 -1579572 -1573134 -1566994 
3966.747 -1561744 -1557452 -1553788 -1550585 -1547250 -1543982 -1541308 
3970.122 -1539657 -1539359 -1540119 -1541142 -1541407 -1539492 -1535100 
3973.497 -1528629 -1520474 -1511757 -1503271 -1494884 -1486430 -1476854 
3976.872 -1465891 -1453243 -1439703 -1426031 -1413613 -1402979 -1394821 
3980.248 -1389041 -1385738 -1384714 -1385903 -1389107 -1394259 -1400601 
3983.623 -1407834 -1415000 -1421242 -1426031 -1429036 -1430027 -1429433 
3986.998 -1427550 -1425106 -1422365 -1420153 -1418600 -1417874 -1417378 
3990.373 -1417114 -1416586 -1415991 -1415628 -1416090 -1417940 -1421341 
3993.749 -1425635 -1429961 -1433231 -1434353 -1433330 -1430754 -1427748 
3997.124 -1425569 -1425007 -1426725 -1429763 -1433891 -1438052 -1442246 
4000.499 -1446110 
##END=
