
##TITLE=Z235b_2_e
##JCAMP-DX=5.01  $$ Nicolet v. 1
##DATATYPE=INFRARED SPECTRUM
##ORIGIN=UniL
##OWNER=Nicolet
##LONGDATE=2011/09/22
##TIME=11:24:33
##SPECTROMETER/DATA SYSTEM=Nicolet iS5
##DATA PROCESSING=
Ratio against background
%Transmittance->Absorbance
Truncated
ElementMultiply or ElementDivide
##COMMENTS=
Number of sample scans: 32
Collection length: 51.14 sec
Sample gain: 2.0
Background collected on: Jeu Sep 22 11:15:12 2011 (GMT+02:00);
Number of background scans: 32
Background gain: 2.0
Sample spacing:  1.000
Number of scan points: 12415
Resolution points: 8192
Number of FFT points: 65536
Apodization: N-B fort;
Phase correction: Mertz;
Laser frequency: 15798.0 cm-1
Number of rejected sample scans: 0
Number of rejected background scans: 0
Bench serial number: ASB1000141;
##RESOLUTION=4.000
##XUNITS=1/CM
##YUNITS=ABSORBANCE
##FIRSTX=649.893372
##LASTX=4000.122314
##FIRSTY=0.112205
##MAXX=4000.122314
##MINX=649.893372
##MAXY=0.250624
##MINY=-0.003130
##XFACTOR=1.000000
##YFACTOR=1.000000E-009
##NPOINTS=6950
##DELTAX=0.482117
##ZPD=6100
##XYDATA=(X++(Y..Y))
649.893 112204504 110889360 109706864 108690872 107846696 107157808 
652.786 106603064 106168992 105853568 105660256 105590072 105628608 
655.679 105748592 105918976 106116880 106334720 106583832 106880640 
658.571 107235120 107641512 108077176 108512136 108925080 109311240 
661.464 109683912 110066896 110484240 110949888 111468936 112040184 
664.357 112664368 113347768 114093000 114888240 115690960 116409216 
667.250 116922680 117132776 117035544 116734792 116388720 116120152 
670.142 115970912 115921024 115912888 115886840 115797328 115630936 
673.035 115402512 115144136 114883800 114630608 114374424 114095456 
675.928 113778304 113422792 113042248 112653928 112266464 111872960 
678.820 111452056 110980096 110444112 109847824 109209008 108549264 
681.713 107881480 107205176 106509896 105783600 105025128 104247680 
684.606 103475072 102731408 102028368 101362952 100719688 100083104 99445656 
687.981 98815128 98210024 97652520 97155144 96717832 96327288 95967632 
691.355 95627304 95307056 95017096 94773656 94589304 94468160 94406504 
694.730 94397328 94436696 94527760 94680440 94905560 95210296 95593776 
698.105 96047064 96557656 97115288 97715336 98356936 99040736 99761968 
701.480 100508784 101264256 102010888 102736568 103439032 104122424 
704.373 104792472 105449808 106086120 106686296 107235712 107726896 
707.265 108164472 108563392 108943392 109320056 109700976 110086192 
710.158 110474544 110872552 111298592 111781736 112354176 113040616 
713.051 113843624 114739472 115674136 116576112 117364552 117963136 
715.943 118318256 118405192 118236152 117857672 117352616 116827752 
718.836 116390240 116143752 116162232 116478440 117082048 117918264 
721.729 118899760 119907848 120814728 121499080 121852408 121809288 
724.621 121356208 120543136 119473456 118287400 117134816 116131016 
727.514 115344296 114786808 114426296 114206504 114072624 113991056 
730.407 113948760 113948592 113995368 114084944 114201600 114324840 
733.300 114436640 114531480 114615504 114702184 114800488 114909960 
736.192 115018544 115110792 115175800 115214768 115240208 115271224 
739.085 115323728 115402592 115502488 115611656 115720720 115827560 
741.978 115937680 116058856 116194272 116338392 116478920 116603112 
744.870 116705712 116793840 116883952 116994120 117133472 117298168 
747.763 117472616 117637976 117780528 117900096 118007344 118117712 
750.656 118240936 118376080 118510600 118629720 118722784 118790376 
753.548 118843216 118895280 118955800 119024208 119091552 119147528 
756.441 119189376 119224296 119267632 119334704 119432200 119553824 
759.334 119684488 119808112 119917192 120018040 120126824 120259488 
762.227 120423808 120614216 120815424 121011744 121198152 121383768 
765.119 121591480 121846968 122167824 122560312 123018912 123533744 
768.012 124097768 124710520 125379072 126118096 126952960 127927664 
770.905 129121336 130641000 132607712 135116832 138174928 141642800 
773.797 145192560 148364832 150602400 151393408 150439376 147715520 
776.690 143506384 138289984 132650424 127107080 122004336 117515352 
779.583 113634816 110249024 107195976 104332696 101565608 98850328 96185144 
782.958 93590568 91097120 88735192 86536136 84531872 82750320 81213264 
786.332 79931928 78905064 78124368 77580992 77273968 77213040 77417568 
789.707 77907976 78702496 79811544 81240112 82994528 85088016 87541144 
793.082 90376296 93603056 97200904 101099368 105176480 109252464 113087216 
796.457 116419648 118965944 120448728 120653848 119442968 116797312 
799.350 112824200 107753560 101904088 95615944 89243432 83093744 77395160 
802.724 72312520 67927752 64254916 61258992 58873528 57020748 55620020 
806.099 54604392 53921320 53529964 53399924 53500992 53794052 54228596 
809.474 54737160 55238528 55653384 55906336 55939880 55721604 55241424 
812.849 54511596 53559424 52426852 51164056 49823380 48461860 47131300 
816.224 45873368 44720972 43692192 42792712 42019648 41365180 40820412 
819.598 40378132 40033844 39784012 39626080 39558276 39580672 39697124 
822.973 39917188 40255680 40730696 41357820 42146064 43091224 44172712 
826.348 45347704 46551960 47704904 48705060 49449320 49844600 49818960 
829.723 49343852 48438860 47173516 45649044 43987144 42310796 40717636 
833.098 39280612 38040840 37008876 36173784 35510080 34986396 34567092 
836.473 34218664 33913184 33628896 33354278 33087626 32835186 32606960 
839.847 32411702 32253538 32130428 32035430 31960170 31899438 31852226 
843.222 31821672 31812974 31830262 31874760 31944622 32036568 32147660 
846.597 32277520 32427338 32598994 32793730 33011078 33248994 33506006 
849.972 33782084 34079016 34400140 34748928 35127272 35536044 35975904 
853.347 36448928 36960276 37518572 38132964 38813080 39565936 40396348 
856.721 41308660 42309080 43406528 44615060 45951404 47432216 49074808 
860.096 50895224 52908568 55129796 57570272 60231552 63095988 66119320 
863.471 69225280 72300664 75215440 77833288 80026656 81706776 82828856 
866.846 83403096 83490432 83198504 82668264 82042168 81461168 81040648 
870.221 80856168 80948896 81323128 81954040 82791088 83763344 84785592 
873.596 85747752 86527080 86997280 87031968 86537064 85464344 83822496 
876.970 81678464 79147360 76379912 73527656 70738856 68143216 65834672 
880.345 63880704 62318160 61153928 60370580 59927156 59768188 59822984 
883.720 60017652 60285680 60568540 60825100 61033560 61188148 61299052 
887.095 61387740 61484916 61623088 61832468 62136600 62545904 63058212 
890.470 63659160 64329148 65047660 65800280 66582368 67398488 68259640 
893.844 69178032 70162656 71214040 72320584 73452352 74556232 75556496 
897.219 76345224 76797680 76787600 76198816 74959456 73054880 70537224 
900.594 67515328 64143600 60604544 57069000 53693520 50603032 47876680 
903.969 45559688 43663872 42175928 41065560 40292760 39817312 39599872 
907.344 39609636 39826824 40240740 40848732 41652356 42653972 43854472 
910.719 45251424 46836864 48595732 50500552 52504508 54544764 56538832 
914.093 58393336 60025640 61371440 62402388 63131584 63614240 63939208 
917.468 64208976 64537840 65030492 65767936 66806488 68162912 69812616 
920.843 71685216 73674664 75655632 77495544 79093608 80398104 81422680 
924.218 82246536 83009168 83895728 85094904 86791184 89135368 92212904 
927.593 96032272 100495672 105400528 110406432 115060864 118867128 121292640 
930.967 121895168 120410032 116789208 111241656 104185296 96207184 87919160 
934.342 79880072 72553904 66229336 61048928 57030572 54102780 52146592 
937.717 51027608 50627380 50837076 51552168 52665212 54035228 55484724 
941.092 56819072 57822448 58304920 58139504 57273288 55747444 53681148 
944.467 51258228 48679412 46129268 43761852 41671028 39899356 38447256 
947.841 37287624 36380648 35683608 35159892 34776780 34505096 34320096 
951.216 34197692 34116896 34061812 34021604 33990932 33969828 33960904 
954.591 33968464 33996268 34047692 34125320 34230244 34363524 34525008 
957.966 34713248 34925848 35159964 35412472 35681452 35966152 36267388 
961.341 36586892 36926004 37285708 37665696 38064888 38482084 38916716 
964.716 39369120 39840264 40331264 40842688 41374108 41924132 42491996 
968.090 43077572 43682336 44308968 44960724 45639992 46347788 47084324 
971.465 47849672 48644388 49471528 50335032 51240296 52191652 53191944 
974.840 54242224 55342956 56494712 57700200 58964336 60292876 61692628 
978.215 63169828 64730480 66382340 68136440 70007656 72016280 74184360 
981.590 76533856 79083712 81846488 84826552 88017064 91398176 94929480 
984.964 98542280 102143216 105602416 108763440 111470472 113570464 114946440 
988.339 115538408 115346712 114438624 112933640 111002856 108838360 
991.232 106631816 104571392 102806592 101444800 100551888 100147944 
994.125 100219304 100727712 101626152 102864536 104395560 106181184 
997.017 108186368 110378784 112728920 115205776 117776920 120409208 
999.910 123059688 125673608 128182840 130497696 132518632 134148360 
1002.803 135298416 135911280 135967968 135492656 134549936 133240568 
1005.695 131698904 130069048 128503976 127153528 126139488 125560416 
1008.588 125481768 125933632 126921040 128429096 130434784 132909936 
1011.481 135826416 139157744 142873120 146938608 151318896 155974112 
1014.374 160865088 165951088 171177248 176468768 181717184 186765312 
1017.266 191428080 195498864 198775952 201111856 202430128 202753328 
1020.159 202198992 200981424 199388544 197724880 196311840 195433120 
1023.052 195295440 196036912 197706016 200274720 203649856 207697296 
1025.945 212264464 217176192 222258832 227337696 232225696 236749824 
1028.838 240752672 244108576 246747616 248656736 249880144 250499552 
1031.731 250624272 250374112 249858480 249178720 248412720 247601696 
1034.624 246743552 245781872 244615232 243097760 241072752 238404496 
1037.517 234988688 230779392 225786800 220070560 213726432 206877760 
1040.410 199673408 192267472 184820704 177490368 170404496 163667872 
1043.303 157353312 151500144 146128752 141245488 136848576 132934512 
1046.196 129497576 126528680 124016640 121948176 120310280 119091680 
1049.089 118283440 117876280 117855936 118200048 118875448 119836712 
1051.982 121034856 122420096 123944576 125569224 127254024 128951864 
1054.875 130605232 132135824 133446632 134438160 135008304 135071984 
1057.768 134576256 133503048 131879016 129773064 127301872 124615512 
1060.661 121881088 119282248 116985656 115130656 113829160 113149768 
1063.554 113124448 113752128 115002912 116821288 119125936 121821040 
1066.448 124789000 127898576 131024104 134042008 136845840 139357232 
1069.341 141515248 143278064 144616608 145507840 145936336 145895920 
1072.234 145392432 144446672 143093568 141386048 139390848 137190832 
1075.127 134890768 132604152 130453568 128563496 127037344 125957848 
1078.020 125379024 125320960 125775488 126705584 128052992 129730640 
1080.913 131625192 133608176 135528416 137238880 138622512 139603920 
1083.806 140175808 140398608 140399424 140342672 140406384 140770624 
1086.699 141579824 142939056 144904800 147474704 150584400 154099584 
1089.592 157836496 161553744 164977648 167853664 169950144 171101136 
1092.485 171227040 170329408 168487904 165835344 162550704 158824368 
1095.378 154833280 150738560 146657584 142662624 138787872 135031376 
1098.271 131369408 127764928 124181336 120586048 116955384 113279632 
1101.164 109564624 105835384 102133488 98519032 95064728 91841288 88918824 
1104.540 86355128 84189528 82448512 81144360 80279024 79847936 79841760 
1107.915 80247176 81045160 82210176 83709296 85497992 87523952 89723712 
1111.290 92018584 94322016 96532120 98535336 100223472 101493152 102262616 
1114.665 102485248 102147952 101273376 99910288 98130528 96017224 93654240 
1118.041 91128672 88518648 85887960 83289728 80760336 78323288 75994944 
1121.416 73786728 71709912 69776432 67997840 66383032 64936860 63659744 
1124.791 62549768 61606172 60833332 60243504 59856524 59694924 59781040 
1128.166 60129668 60743232 61609684 62702328 63983388 65401732 66898660 
1131.542 68409416 69860128 71179304 72303168 73182392 73796072 74154768 
1134.917 74302640 74305992 74247920 74214080 74273512 74475320 74838552 
1138.292 75349768 75964984 76613880 77214592 77674056 77905552 77840464 
1141.667 77427032 76638784 75471336 73938648 72069432 69903208 67491720 
1145.042 64892156 62166960 59382392 56598312 53868692 51238880 48740572 
1148.418 46395788 44217100 42209964 40375040 38710556 37213504 35879588 
1151.793 34704096 33682100 32807990 32076736 31484488 31028618 30707626 
1155.168 30520398 30466016 30543078 30750374 31087520 31556174 32159578 
1158.543 32902696 33790248 34825676 36009560 37339400 38809024 40407328 
1161.919 42119156 43920856 45779432 47654984 49495960 51246332 52850936 
1165.294 54254424 55409728 56280080 56838068 57070436 56977340 56573476 
1168.669 55885196 54948436 53806280 52500956 51074452 49566524 48011288 
1172.044 46441512 44887672 43376428 41932564 40577260 39326168 38190924 
1175.420 37178276 36291020 35529464 34892600 34378660 33985664 33710780 
1178.795 33550822 33502034 33560952 33724640 33991468 34360404 34830844 
1182.170 35401504 36070080 36834532 37693808 38649596 39707216 40875164 
1185.545 42162640 43578220 45126008 46803760 48600136 50493668 52452128 
1188.921 54428136 56363332 58191780 59841464 61250176 62373008 63189140 
1192.296 63706852 63961088 64007388 63907264 63721968 63503852 63286572 
1195.671 63088208 62910660 62744552 62573032 62376144 62135916 61834264 
1199.046 61455140 60983536 60401956 59692832 58839604 57829600 56659768 
1202.422 55339796 53894948 52362744 50788844 49223928 47711932 46289212 
1205.797 44981264 43800700 42750848 41827516 41023132 40327736 39730964 
1209.172 39223196 38794528 38435636 38139476 37900604 37716936 37589560 
1212.547 37522472 37521140 37591332 37738836 37968364 38282972 38684152 
1215.923 39171412 39741420 40387768 41102456 41875932 42698824 43564484 
1219.298 44467732 45405196 46374700 47373792 48400408 49454224 50538332 
1222.673 51660980 52834844 54077936 55409128 56845812 58402132 60085300 
1226.048 61895396 63822284 65845856 67932752 70033264 72087032 74021032 
1229.424 75753648 77209008 78315584 79016016 79275712 79084304 78463632 
1232.799 77465408 76178048 74717128 73209248 71795080 70606296 69754720 
1236.174 69338928 69432064 70086488 71340784 73217720 75726744 78860880 
1239.549 82593920 86872848 91609976 96692088 101968608 107255656 112359584 
1242.925 117063440 121151120 124438528 126775368 128077016 128333048 
1245.818 127607672 126027600 123758384 121003328 117969824 114853888 
1248.711 111840168 109066176 106614584 104503696 102681968 101037016 
1251.604 99409200 97637456 95576640 93131576 90277904 87060024 83582560 
1254.979 79978376 76398128 72978592 69819384 66985360 64496480 62334604 
1258.354 60450772 58776928 57239112 55760328 54276764 52741492 51125216 
1261.729 49420176 47635200 45792688 43921628 42054800 40225180 38460652 
1265.105 36785516 35218784 33772700 32454722 31266372 30204366 29261574 
1268.480 28428566 27696062 27055302 26498950 26021154 25615192 25273906 
1271.855 24989252 24752588 24556830 24396594 24267810 24167472 24092060 
1275.230 24036584 23995124 23961930 23932204 23904090 23877974 23856410 
1278.606 23842374 23838314 23846120 23866458 23899714 23944352 23997224 
1281.981 24051012 24094404 24113634 24094300 24026184 23906856 23743884 
1285.356 23553512 23358434 23185008 23056512 22992994 23009764 23117488 
1288.731 23324484 23637334 24060434 24595610 25240790 25989316 26828510 
1292.107 27739326 28697574 29669934 30616634 31494818 32258212 32867848 
1295.482 33297572 33537936 33598896 33507294 33303190 33029310 32727454 
1298.857 32434798 32177776 31975682 31839426 31772542 31771224 31824630 
1302.232 31917374 32029186 32138992 32228946 32283482 32291904 32246932 
1305.608 32143772 31980250 31757038 31479430 31158140 30808560 30450128 
1308.983 30102042 29780386 29497442 29260086 29071956 28936290 28855972 
1312.358 28835114 28876970 28982582 29149728 29373660 29648718 29970666 
1315.733 30337514 30749982 31209440 31716578 32269880 32866418 33502966 
1319.109 34177868 34890948 35642428 36430044 37245636 38073680 38889972 
1322.484 39663144 40360968 40952200 41413512 41735660 41927168 42017016 
1325.859 42050304 42087944 42194332 42422832 42810700 43365592 44065176 
1329.234 44858756 45680040 46462272 47146408 47697140 48104336 48383108 
1332.610 48567048 48701908 48840112 49028992 49310888 49717856 50267656 
1335.985 50964112 51795872 52740628 53766076 54835564 55913988 56966344 
1339.360 57962372 58877928 59694468 60401192 60994016 61473084 61838660 
1342.735 62087824 62209824 62187260 61996928 61613540 61016936 60194672 
1346.111 59145252 57877904 56412568 54778580 53011204 51154624 49259964 
1349.486 47380072 45574664 43903444 42420020 41174360 40203916 39530984 
1352.861 39165320 39103208 39330664 39822616 40545284 41452548 42482384 
1356.236 43565144 44622808 45576468 46361244 46925744 47239340 47293904 
1359.612 47102348 46698560 46131440 45469360 44794472 44191716 43748404 
1362.987 43534120 43588804 43921188 44508956 45310116 46269236 47329340 
1366.362 48432708 49516792 50520876 51384232 52049648 52475308 52635664 
1369.737 52525188 52156752 51559704 50777224 49859804 48870332 47879672 
1373.113 46958416 46178092 45595900 45244068 45128216 45228628 45512184 
1376.488 45942640 46493100 47149728 47911416 48788060 49797332 50963888 
1379.863 52314524 53875220 55661300 57663456 59830776 62056936 64194688 
1383.238 66054276 67438152 68180976 68155352 67304000 65651676 63324944 
1386.614 60544660 57585632 54744188 52250056 50231204 48716180 47654612 
1389.989 46957200 46522272 46262120 46104064 45988420 45869720 45708788 
1393.364 45474360 45148988 44731732 44239920 43701720 43147468 42598704 
1396.739 42064068 41543360 41034712 40540880 40075084 39658608 39314016 
1400.115 39058620 38898488 38829496 38841484 38924724 39072792 39285324 
1403.490 39566372 39922892 40360568 40881060 41481128 42152928 42886660 
1406.865 43672296 44501760 45369184 46268828 47194900 48140500 49097064 
1410.240 50055964 51010804 51956388 52888436 53801140 54683492 55519964 
1413.615 56292376 56984024 57586840 58102840 58544860 58930220 59277136 
1416.991 59601108 59913380 60226948 60560428 60936980 61382168 61911060 
1420.366 62519692 63187152 63881352 64570748 65229244 65845320 66423460 
1423.741 66982692 67549200 68146784 68790656 69483192 70218344 70986824 
1427.116 71781288 72595496 73421120 74245136 75044872 75790968 76455136 
1430.492 77015976 77468176 77824008 78111792 78368328 78629584 78929304 
1433.867 79295880 79757152 80349464 81120272 82125416 83419232 85027080 
1437.242 86935144 89092656 91425648 93848144 96258800 98546808 100572728 
1440.617 102178296 103220792 103579992 103190200 102047480 100201560 
1443.510 97741688 94772712 91413584 87775120 83949952 80023584 76072984 
1446.886 72183192 68466592 65050772 62059920 59588148 57672160 56297088 
1450.261 55415228 54973368 54926812 55241572 55888888 56829232 58007624 
1453.636 59365184 60836268 62363676 63905732 65427272 66902912 68311408 
1457.011 69643072 70894208 72064888 73160736 74183808 75136248 76022808 
1460.387 76853560 77641840 78400000 79133360 79832808 80471480 81013376 
1463.762 81422640 81683216 81810608 81851488 81863496 81887736 81938912 
1467.137 82001664 82044040 82025952 81909104 81655584 81215824 80523208 
1470.512 79491320 78026288 76067616 73631600 70841000 67891376 64986004 
1473.888 62265880 59781348 57521284 55455660 53572840 51895336 50471372 
1477.263 49346596 48550004 48081236 47919704 48040896 48432784 49101336 
1480.638 50067528 51354100 52972124 54914520 57158640 59677744 62449748 
1484.013 65467724 68734104 72247400 75990600 79907272 83885272 87766728 
1487.389 91336336 94342688 96537128 97687576 97634600 96338576 93906056 
1490.764 90578584 86662000 82466864 78225360 74066296 70044320 66154012 
1494.139 62371744 58694272 55150712 51810172 48766968 46106052 43875216 
1497.514 42071772 40659884 39586952 38805436 38283080 37999140 37939512 
1500.890 38090680 38436036 38954912 39625208 40417984 41297800 42219312 
1504.265 43109040 43863780 44346948 44398108 43890652 42793440 41197564 
1507.640 39268388 37165208 34990528 32788872 30577738 28374764 26206346 
1511.015 24118048 22163160 20383758 18807756 17440046 16267704 15268952 
1514.391 14419684 13697725 13081032 12549821 12087972 11685188 11340591 
1517.766 11059856 10849042 10707570 10624509 10577077 10538952 10489086 
1521.141 10424224 10362900 10336398 10370671 10472352 10629772 10820506 
1524.516 11024442 11230037 11439404 11665651 11926309 12232927 12586316 
1527.892 12977886 13395984 13833025 14287968 14766905 15278286 15828826 
1531.267 16420530 17049740 17708368 18387494 19079248 19778694 20481454 
1534.642 21183440 21877854 22555752 23205280 23813392 24368978 24859974 
1538.017 25275732 25606088 25840964 25969794 25986220 25894912 25713648 
1541.393 25470338 25193876 24902080 24596838 24265638 23890332 23457676 
1544.768 22969764 22446876 21920472 21418756 20953746 20518898 20093648 
1548.143 19655326 19189912 18701720 18211860 17750960 17342340 16992642 
1551.518 16691152 16418396 16156955 15900103 15654808 15437596 15265108 
1554.894 15143566 15064557 15006245 14939882 14830601 14640498 14334780 
1558.269 13893437 13332121 12709874 12107221 11585980 11168939 10847377 
1561.644 10596328 10387028 10192787 9993446 9778709 9550462 9321928 9111448 
1565.501 8935703 8800635 8700089 8618696 8539344 8448116 8339578 8217932 
1569.359 8095274 7985543 7898850 7839468 7807048 7799255 7813424 7846215 
1573.216 7892136 7941604 7981661 7999751 7988647 7953550 7912989 7893486 
1577.074 7915891 7988445 8107529 8263993 8450853 8666523 8915477 9205794 
1580.931 9545009 9936896 10379087 10863718 11380079 11913470 12446494 
1584.306 12958495 13423322 13813937 14106864 14285948 14348992 14309131 
1587.682 14196414 14051897 13923715 13862614 13911364 14103647 14460240 
1591.057 14985152 15662743 16452946 17295618 18107522 18792810 19263960 
1594.432 19445532 19294720 18808414 18024210 17012178 15856249 14645878 
1597.807 13455242 12338112 11331647 10455007 9715037 9109383 8628835 8260582 
1601.665 7990673 7809106 7710576 7694927 7764611 7921796 8164584 8485856 
1605.522 8872121 9303750 9756410 10197706 10589843 10893819 11070155 
1608.897 11088373 10931874 10601557 10117387 9515678 8846758 8161714 7504550 
1612.755 6906615 6380679 5925710 5530544 5180869 4862335 4564525 4284923 
1616.612 4027772 3802760 3620864 3489543 3410523 3379233 3386379 3418772 
1620.470 3463023 3505476 3536976 3554213 3560928 3565404 3576663 3601252 
1624.327 3640009 3690131 3747812 3810348 3876971 3947818 4022321 4098877 
1628.185 4175213 4250223 4325247 4404769 4494081 4597710 4716603 4847056 
1632.042 4981905 5111833 5228219 5323537 5393177 5435450 5452628 5450347 
1635.899 5437664 5425787 5424076 5438369 5469875 5515041 5567326 5618443 
1639.757 5661544 5692999 5714048 5730433 5749536 5776767 5812865 5852458 
1643.614 5886379 5904146 5896824 5860451 5797787 5718548 5636167 5564910 
1647.472 5516752 5499034 5514839 5563635 5642074 5742553 5852122 5952683 
1651.329 6018392 6020778 5941800 5791777 5616027 5469170 5385796 5365937 
1655.187 5389252 5432061 5477189 5516148 5546955 5571421 5591760 5608072 
1659.044 5616866 5612972 5590350 5545042 5476115 5385528 5277552 5158203 
1662.901 5034528 4913570 4802060 4705416 4625739 4561947 4508778 4458494 
1666.759 4400719 4325950 4228174 4106069 3964570 3812855 3661995 3520942 
1670.616 3395429 3288213 3199783 3128858 3071593 3021008 2966927 2897241 
1674.474 2803087 2683082 2547879 2414450 2300448 2214883 2156107 2114551 
1678.331 2078327 2038244 1991574 1942713 1900047 1871660 1858716 1853924 
1682.188 1840347 1797625 1708100 1567647 1392800 1216030 1068727 964840 
1686.046 900455 861610 834686 808626 777821 740746 697501 649382 598315 
1690.385 547553 502071 467540 448734 446810 457556 470493 471289 444919 
1694.725 382104 285477 173325 71575 -165 -36445 -47412 -51917 -72623 -129137 
1699.547 -229823 -365447 -509964 -634682 -721523 -769750 -789892 -796044 
1703.404 -800641 -812316 -836127 -872866 -919158 -968156 -1012521 -1045940 
1707.262 -1065706 -1072317 -1068813 -1059757 -1049014 -1038602 -1027991 
1710.637 -1014769 -996025 -969743 -936054 -897369 -856762 -816714 -778614 
1714.494 -742032 -706770 -674317 -649769 -639909 -651522 -686061 -737235 
1718.352 -792108 -837648 -865195 -873098 -865790 -850512 -834176 -821344 
1722.209 -813605 -809736 -807818 -805999 -804246 -803386 -804312 -806958 
1726.067 -810397 -813341 -815424 -818037 -824056 -835763 -853819 -875346 
1729.924 -895253 -908512 -913372 -913438 -918762 -944022 -1002802 -1101799 
1733.781 -1232690 -1373551 -1496270 -1581949 -1627043 -1640412 -1636220 
1737.157 -1627142 -1623445 -1629783 -1646849 -1671044 -1697085 -1719198 
1740.532 -1733488 -1737712 -1731673 -1716063 -1692530 -1663089 -1630179 
1743.907 -1595716 -1560721 -1524601 -1485638 -1442444 -1393731 -1340256 
1747.282 -1284329 -1228825 -1176518 -1129295 -1088215 -1053675 -1026504 
1750.658 -1007298 -996389 -991893 -990505 -987827 -980190 -967099 -951163 
1754.515 -938500 -936021 -950271 -983595 -1032851 -1089834 -1144828 -1190463 
1758.373 -1224529 -1250102 -1272766 -1299591 -1334838 -1379694 -1431943 
1761.748 -1486628 -1538765 -1584161 -1620837 -1647773 -1664805 -1672727 
1765.123 -1673189 -1668667 -1662825 -1659128 -1659524 -1662792 -1664640 
1768.498 -1660085 -1645562 -1621366 -1592744 -1567555 -1554415 -1558179 
1771.874 -1577624 -1604332 -1626845 -1636154 -1628793 -1607237 -1577360 
1775.249 -1545005 -1512945 -1481213 -1447959 -1411269 -1371536 -1331700 
1778.624 -1295924 -1268769 -1252778 -1246897 -1247822 -1250465 -1251490 
1781.999 -1248946 -1243957 -1238010 -1233252 -1230543 -1229452 -1228924 
1785.375 -1228362 -1227007 -1224595 -1220399 -1213130 -1200838 -1182665 
1788.750 -1159401 -1134021 -1112176 -1100477 -1104542 -1127313 -1166969 
1792.125 -1217227 -1270189 -1318322 -1357135 -1386663 -1408924 -1426989 
1795.500 -1444063 -1462126 -1483062 -1507893 -1537345 -1571120 -1608326 
1798.875 -1646849 -1684015 -1717845 -1747085 -1772462 -1795362 -1817536 
1802.251 -1839379 -1860164 -1877881 -1890153 -1896092 -1896092 -1891539 
1805.626 -1884644 -1876858 -1868676 -1859274 -1848155 -1834957 -1821034 
1809.001 -1807934 -1797177 -1788664 -1781008 -1771604 -1757711 -1738339 
1812.376 -1714082 -1687316 -1660316 -1634735 -1610703 -1586901 -1562141 
1815.752 -1535728 -1508554 -1482237 -1458857 -1439505 -1423785 -1410476 
1819.127 -1397661 -1384979 -1371998 -1359579 -1347952 -1336952 -1325820 
1822.502 -1314060 -1302135 -1292257 -1287732 -1290936 -1302069 -1318124 
1825.877 -1333913 -1343988 -1345276 -1338736 -1328694 -1321889 -1323971 
1829.253 -1337084 -1358753 -1382633 -1401063 -1408824 -1404531 -1390792 
1832.628 -1371635 -1350132 -1327901 -1304282 -1277556 -1246237 -1210024 
1836.003 -1169810 -1127048 -1082398 -1034933 -982405 -922465 -853191 -774016 
1839.861 -686160 -591040 -490570 -386369 -280256 -174813 -73153 21471 107301 
1844.200 185291 260213 337933 423327 518194 620181 723819 822037 909287 
1848.540 981777 1038634 1081249 1111012 1128552 1133303 1123901 1099485 
1852.397 1060921 1011068 953351 890594 823598 750969 670553 580763 482434 
1856.737 378555 274071 173325 78468 -10403 -95249 -177495 -257805 -334458 
1861.076 -404808 -466640 -519495 -564733 -604805 -641233 -673754 -699591 
1864.934 -715668 -720068 -713749 -700881 -688112 -681396 -684440 -696845 
1868.791 -714113 -730752 -741635 -744215 -738889 -727775 -712691 -695324 
1872.649 -676798 -657941 -640042 -625153 -615029 -610429 -610959 -615558 
1876.506 -622738 -632763 -646626 -666311 -693504 -727973 -767203 -807156 
1880.364 -843832 -875115 -901337 -925870 -952651 -984686 -1021909 -1061476 
1884.221 -1099386 -1131080 -1153949 -1168125 -1174767 -1176386 -1174668 
1887.596 -1170603 -1165019 -1159038 -1154444 -1152792 -1154742 -1158608 
1890.971 -1160888 -1157848 -1146579 -1126817 -1101435 -1075226 -1051394 
1894.347 -1032090 -1015562 -997678 -974603 -944551 -908677 -870948 -836094 
1898.204 -805866 -779771 -754435 -725592 -691189 -651688 -610330 -571252 
1902.062 -537366 -508707 -482825 -456082 -426225 -392659 -357137 -321943 
1905.919 -288932 -258302 -228730 -199752 -172428 -149839 -137318 -138842 
1909.776 -155702 -185212 -222239 -260388 -294958 -323764 -347370 -367003 
1913.634 -383257 -395771 -403054 -405536 -405702 -409112 -422915 -452573 
1917.491 -498844 -557122 -618238 -673027 -715370 -744711 -765384 -783277 
1921.349 -803221 -826437 -850446 -871444 -885829 -893235 -895914 -897170 
1925.206 -900014 -905536 -912182 -918431 -923622 -928978 -936682 -948717 
1929.063 -964388 -980322 -992488 -997546 -995728 -991331 -990835 -999497 
1932.921 -1019132 -1045378 -1070499 -1087091 -1089867 -1079588 -1061046 
1936.296 -1040552 -1021711 -1004059 -982901 -952486 -909933 -856498 -797532 
1940.154 -741271 -694431 -659330 -635509 -618767 -606128 -596930 -592694 
1944.011 -595441 -605863 -621745 -638487 -650662 -655162 -651853 -642986 
1947.868 -631572 -618271 -600669 -574760 -536440 -485506 -425563 -363493 
1951.726 -306282 -258269 -218927 -184418 -150998 -115953 -81336 -51520 
1955.583 -31178 -22099 -21934 -25214 -24849 -16732 -762 19317 38636 53216 
1960.405 63257 70548 78037 87051 95701 100374 99446 93348 85858 83572 91061 
1965.709 109356 135705 165171 193910 222187 254577 295987 350102 413610 
1970.049 478586 534847 573896 593139 597784 596855 599211 610094 629704 
1974.388 654260 681571 713730 756545 817788 901783 1003263 1108056 1197257 
1978.728 1253378 1266671 1238492 1176724 1095333 1007083 920743 842155 
1982.585 774701 721396 685454 669790 673175 690465 712800 729395 732515 
1986.925 720766 698330 674171 657147 652169 658972 673872 691096 707590 
1991.264 724085 743932 770453 804676 844379 884352 920079 949399 973607 
1995.604 996422 1021198 1048897 1078193 1105697 1127987 1145096 1159016 
1999.461 1173402 1191177 1211943 1231315 1244108 1245902 1235933 1217791 
2003.319 1199051 1187057 1187655 1203171 1232511 1272553 1320574 1372657 
2007.176 1424978 1473183 1510254 1529639 1528209 1506364 1470523 1430097 
2011.034 1395625 1374019 1366740 1370696 1379570 1388645 1396024 1403171 
2014.891 1414207 1432757 1460317 1497553 1543638 1598441 1663362 1738705 
2018.749 1821714 1905538 1979591 2031553 2055123 2050795 2026360 1995768 
2022.606 1973766 1967143 1976862 1994770 2010847 2017106 2011081 1995535 
2026.463 1977627 1963049 1952897 1945009 1935590 1921812 1905072 1890396 
2030.321 1883074 1886768 1901611 1923110 1945941 1967342 1986715 2006820 
2034.178 2030721 2058052 2085052 2106194 2116882 2115883 2108292 2100867 
2038.036 2100834 2110822 2128469 2146050 2155907 2152510 2135195 2108392 
2041.893 2078394 2050329 2026959 2007585 1990476 1975098 1962716 1955460 
2045.750 1955627 1962150 1971070 1976629 1973267 1958755 1933727 1901344 
2049.608 1863574 1821015 1771208 1711826 1641643 1565153 1488543 1421521 
2053.465 1371593 1341081 1326357 1319278 1310704 1294320 1268997 1238758 
2057.323 1209351 1186293 1171807 1165461 1165030 1169481 1178684 1194699 
2061.180 1218987 1250687 1286776 1321970 1351484 1374086 1391138 1406761 
2065.038 1424180 1444625 1464373 1478469 1481395 1470324 1447318 1418728 
2068.895 1390240 1367039 1350055 1336860 1323665 1307547 1287806 1267069 
2072.752 1248029 1232278 1218721 1204135 1184432 1157222 1123237 1085833 
2076.610 1049894 1020234 997750 982175 971615 963545 957568 954546 955111 
2080.949 959095 964840 969489 969888 965139 955343 942592 928579 914168 
2085.289 897733 876948 850023 816394 778452 739783 704437 674303 649382 
2089.629 627415 606411 585010 563942 545596 532193 524696 522506 523667 
2093.968 526952 531828 539989 552928 571772 594400 616963 634217 642778 
2098.308 641916 634914 627149 622836 623931 629638 636042 639692 639228 
2102.647 636739 636573 643210 658673 681438 707523 731884 750604 763515 
2106.987 772809 781838 793655 809024 826353 844047 860846 877247 894977 
2111.327 916260 940898 967132 991075 1008511 1017279 1017810 1012596 1006418 
2115.666 1003396 1005953 1015385 1031360 1052949 1079854 1111610 1146790 
2119.524 1183269 1218289 1248527 1272586 1290996 1306084 1321040 1338688 
2123.381 1358431 1377576 1392202 1397819 1392601 1377443 1354608 1327554 
2127.239 1298740 1268698 1236864 1202606 1166159 1128818 1092975 1060323 
2131.096 1031825 1006618 983537 962715 946112 936681 937246 948370 966534 
2135.436 984898 997086 999145 991905 981943 977958 986692 1010869 1047070 
2139.775 1087959 1125828 1156325 1180146 1201975 1227726 1260390 1298208 
2143.633 1336129 1366408 1383991 1388213 1381665 1370995 1362353 1359262 
2147.490 1363150 1373454 1389143 1410085 1436281 1466899 1498750 1528209 
2151.347 1550455 1562093 1564421 1560630 1555842 1554611 1558036 1564887 
2155.205 1574464 1588963 1616799 1670513 1764122 1903940 2086717 2293220 
2159.062 2496055 2668747 2792616 2861518 2882764 2870757 2839906 2802287 
2162.920 2764805 2728260 2693084 2658545 2623309 2587442 2549179 2506619 
2166.777 2457667 2403222 2345785 2290955 2245857 2214184 2197199 2191871 
2170.635 2192004 2191538 2187475 2179583 2171258 2167662 2171990 2185044 
2174.492 2205525 2229204 2251419 2268272 2276732 2274267 2259445 2232035 
2178.349 2193603 2148548 2103198 2064810 2039875 2031453 2038244 2055689 
2182.207 2076895 2095107 2106860 2110190 2105162 2093176 2075397 2053192 
2186.064 2029056 2006853 1991441 1987813 1999064 2024795 2061181 2102732 
2189.922 2143686 2181348 2216515 2251319 2288457 2328529 2368139 2401456 
2193.779 2422480 2427478 2415849 2391094 2358778 2324532 2293286 2267606 
2197.636 2248654 2237863 2235898 2242559 2257247 2275799 2292221 2300681 
2201.494 2297017 2280629 2255349 2228604 2206957 2196600 2198631 2211220 
2205.351 2230969 2254283 2278930 2304878 2332327 2360877 2389328 2414883 
2209.209 2434775 2447870 2454234 2454468 2448970 2437474 2417382 2386830 
2213.066 2345652 2295985 2243525 2196667 2161001 2140889 2136294 2143420 
2216.924 2157239 2173522 2189074 2202828 2214617 2223475 2227638 2225973 
2220.781 2217248 2202594 2184944 2167495 2152410 2139291 2125173 2106028 
2224.638 2079293 2045368 2008218 1973900 1947938 1932728 1926870 1924973 
2228.496 1920381 1908666 1888066 1859847 1828402 1797458 1769711 1745957 
2232.353 1726197 1710296 1698920 1693664 1695028 1702712 1715053 1728259 
2236.211 1740102 1749384 1756869 1765153 1776831 1792468 1810634 1828768 
2240.068 1843608 1853125 1857518 1858516 1858449 1859048 1860512 1862210 
2243.926 1863208 1863707 1864772 1868332 1875820 1886602 1899248 1910363 
2247.783 1917951 1920780 1920114 1917851 1916454 1916320 1916354 1914290 
2251.640 1908400 1897917 1885071 1873191 1865204 1863108 1866070 1871094 
2255.498 1875021 1875054 1869763 1859847 1846936 1832095 1816191 1799688 
2259.355 1783119 1767482 1755439 1748419 1747854 1753110 1761593 1769711 
2263.213 1774834 1775500 1772805 1769644 1768680 1771940 1779858 1790738 
2267.070 1802316 1812664 1820516 1825574 1827570 1826073 1820250 1809503 
2270.927 1793865 1775101 1756237 1740136 1729657 1725731 1727661 1732883 
2274.785 1739736 1746889 1754241 1762824 1773537 1786579 1800786 1814161 
2278.642 1824742 1831696 1835722 1838151 1841013 1845938 1853558 1864040 
2282.500 1877118 1892459 1909931 1929400 1949635 1969107 1985749 1997599 
2286.357 2003791 2004955 2002958 2000062 1998564 1999363 2002659 2008417 
2290.215 2016506 2027725 2043537 2064944 2092244 2124773 2160269 2196234 
2294.072 2231136 2264242 2296085 2328163 2361243 2394892 2427944 2458633 
2297.929 2485325 2508019 2527582 2545712 2564344 2584176 2604742 2625109 
2301.787 2643810 2660512 2675181 2688783 2702020 2715589 2729026 2741563 
2305.644 2752867 2763204 2773175 2783879 2796318 2809857 2823931 2837071 
2309.502 2848210 2857215 2865420 2874326 2885533 2900076 2917455 2936802 
2313.359 2956751 2976434 2995751 3015236 3035789 3057778 3081570 3106532 
2317.217 3132363 3159230 3187066 3216673 3248419 3282404 3317928 3354322 
2321.074 3389685 3422178 3449664 3469002 3477152 3471073 3449230 3412026 
2324.931 3362570 3306509 3250422 3200985 3163301 3139471 3129125 3129559 
2328.789 3137202 3149083 3163235 3178955 3196379 3215605 3236268 3257766 
2332.646 3279199 3299965 3319797 3338929 3357394 3375125 3392323 3409087 
2336.504 3425985 3444554 3466163 3491815 3521810 3554814 3588556 3620997 
2340.361 3650501 3676330 3699120 3719038 3735480 3746308 3748046 3736750 
2344.219 3710616 3670550 3620964 3569814 3526854 3501134 3499831 3527389 
2348.076 3584681 3670750 3782204 3914483 4061818 4217133 4373976 4525685 
2351.933 4667870 4797771 4915011 5020953 5117097 5204778 5285132 5359160 
2355.791 5428807 5496719 5565850 5638818 5717003 5799836 5885069 5969983 
2359.648 6052461 6131022 6205161 6274842 6339323 6397895 6448438 6489804 
2363.506 6521959 6545874 6563601 6577259 6587855 6594886 6597443 6593507 
2367.363 6581598 6561145 6532083 6494681 6448875 6394869 6332599 6263447 
2371.220 6189903 6115867 6045707 5983790 5932663 5893902 5867739 5853801 
2375.078 5852223 5863709 5889301 5929942 5985973 6056459 6140062 6234673 
2378.935 6338819 6451195 6571237 6698378 6831514 6969203 7109091 7248754 
2382.793 7386036 7518945 7645925 7765589 7876446 7976600 8064287 8138047 
2386.650 8196762 8240557 8269531 8284357 8285809 8274293 8250215 8214285 
2390.508 8167724 8111546 8047511 7976667 7899592 7816797 7728621 7636146 
2394.365 7541398 7447345 7357322 7274630 7201757 7140011 7089860 7051231 
2398.222 7023785 7007656 7003177 7010585 7029914 7061064 7103904 7158403 
2402.080 7224766 7303439 7394529 7497807 7611732 7734759 7865177 8001844 
2405.937 8144664 8294422 8452609 8620453 8798505 8986508 9183593 9389131 
2409.795 9602220 9822597 10049767 10282416 10518041 10753455 10984272 
2413.170 11206474 11416170 11609699 11783976 11936050 12062761 12161841 
2416.545 12232109 12274677 12292435 12289776 12272189 12244003 12207878 
2419.920 12164805 12114069 12054415 11984958 11905910 11818499 11725014 
2423.296 11628076 11530684 11435627 11345693 11263938 11193214 11136032 
2426.671 11094457 11069509 11061725 11071073 11097755 11142150 11204808 
2430.046 11286382 11386916 11505948 11641928 11793850 11959959 12139965 
2433.421 12333271 12539931 12759382 12991405 13235234 13490856 13759145 
2436.797 14041015 14338444 14652802 14984295 15332860 15697405 16077178 
2440.172 16473010 16886462 17319790 17775640 18255606 18759872 19287618 
2443.547 19837684 20408484 20999474 21609972 22238658 22883206 23539732 
2446.922 24203590 24869940 25534816 26195858 26851984 27503104 28149012 
2450.298 28789510 29423438 30049310 30664882 31267584 31854082 32419414 
2453.673 32958064 33463418 33928768 34348500 34717200 35030860 35285448 
2457.048 35476248 35597680 35644332 35610664 35492752 35289216 35000688 
2460.423 34629740 34179196 33652564 33053086 32384318 31650890 30859110 
2463.799 30017034 29134634 28222234 27290190 26348592 25405940 24470658 
2467.174 23551100 22655090 21791094 20966752 20188396 19460430 18785198 
2470.549 18163248 17593558 17074344 16603187 16176626 15790787 15440687 
2473.924 15120853 14826282 14553290 14299165 14063329 13845784 13646400 
2477.300 13464060 13296213 13139565 12990551 12846640 12706189 12569159 
2480.675 12436060 12307501 12184160 12066237 11953828 11847952 11749592 
2484.050 11660137 11580330 11510678 11449813 11396577 11349196 11306412 
2487.425 11268223 11235035 11207494 11186108 11170945 11161290 11156429 
2490.801 11155918 11159658 11167886 11181450 11200320 11224597 11254383 
2494.176 11289204 11328824 11373174 11421748 11473865 11528030 11582610 
2497.551 11635734 11685937 11732435 11775738 11816116 11854388 11890994 
2500.926 11926241 11960163 11992963 12025051 12057311 12090016 12123848 
2504.302 12158228 12192645 12226418 12259442 12291924 12324715 12358430 
2507.677 12393101 12427741 12460576 12488914 12510125 12522436 12524141 
2511.052 12515035 12495222 12464634 12424263 12375134 12318341 12255830 
2514.427 12189544 12121020 12051621 11981688 11911087 11839679 11767294 
2517.802 11694685 11622972 11553925 11488937 11428994 11374705 11325967 
2521.178 11282369 11243842 11210418 11182165 11159318 11141912 11129640 
2524.553 11122332 11119341 11120292 11124440 11131170 11139737 11149697 
2527.928 11161052 11174515 11191140 11212560 11239354 11271487 11307364 
2531.303 11344604 11381032 11415149 11446989 11478901 11513842 11554775 
2534.679 11603369 11659796 11722188 11787994 11854626 11920622 11985470 
2538.054 12050156 12115671 12183137 12252967 12324852 12398385 12473295 
2541.429 12549480 12627112 12706462 12787295 12868893 12949995 13029541 
2544.804 13106131 13179182 13248044 13312817 13373875 13431695 13487198 
2548.180 13541137 13594397 13647152 13699811 13751689 13802171 13850538 
2551.555 13896208 13939453 13980616 14020653 14060008 14099026 14137431 
2554.930 14174402 14209355 14241264 14269546 14293002 14310877 14321527 
2558.305 14324198 14317794 14302316 14278688 14248488 14213224 14174539 
2561.681 14133118 14088826 14041220 13989546 13933124 13872397 13807815 
2565.056 13740472 13671771 13603560 13537137 13474757 13418674 13370595 
2568.431 13331950 13302944 13282206 13267994 13257678 13249274 13241691 
2571.806 13234858 13229598 13227276 13228949 13235268 13246438 13262939 
2575.182 13285007 13313125 13347804 13389218 13436547 13488258 13542230 
2578.557 13596107 13648760 13699674 13749432 13799230 13850675 13904624 
2581.932 13961660 14021850 14084959 14151054 14219900 14291666 14366390 
2585.307 14443832 14523482 14604379 14685874 14766493 14845619 14922324 
2588.683 14996401 15067644 15136600 15203714 15269913 15335983 15402133 
2592.058 15468394 15534358 15599439 15663223 15725987 15788211 15850648 
2595.433 15914332 15979951 16047815 16118268 16191071 16266637 16345246 
2598.808 16427515 16514068 16605115 16700655 16800418 16903892 17011352 
2602.184 17122630 17238316 17358858 17484162 17614606 17749684 17888772 
2605.559 18031532 18177550 18326248 18477032 18629082 18781496 18933270 
2608.934 19083920 19232754 19379838 19524510 19665970 19802274 19931232 
2612.309 20050132 20156222 20248138 20324970 20387440 20436546 20473708 
2615.685 20500244 20517232 20525012 20523900 20513862 20495106 20468046 
2619.060 20433454 20392752 20347644 20300458 20253622 20209362 20169652 
2622.435 20135744 20108258 20087366 20073242 20065748 20065366 20072444 
2625.810 20087400 20110340 20141020 20178574 20222796 20272892 20328754 
2629.186 20390496 20458322 20532272 20611970 20696824 20786284 20879794 
2632.561 20976976 21077794 21182120 21289774 21399960 21512298 21625850 
2635.936 21740442 21856144 21973550 22093044 22215084 22339632 22466102 
2639.311 22594074 22723026 22852438 22982200 23111932 23240794 23367806 
2642.687 23491812 23611760 23727120 23838628 23947432 24055074 24162990 
2646.062 24272294 24383030 24495126 24608234 24722212 24837380 24954612 
2649.437 25074684 25198686 25327292 25460782 25599340 25742618 25890514 
2652.812 26042684 26198742 26358240 26520998 26687022 26856462 27030090 
2656.188 27208410 27391850 27580418 27773410 27970024 28169022 28369882 
2659.563 28571932 28775278 28980280 29186866 29395002 29604270 29814098 
2662.938 30023886 30233456 30442844 30651832 30860462 31068264 31274776 
2666.313 31479716 31683038 31885352 32087476 32290760 32496072 32704230 
2669.688 32915704 33130396 33348304 33569148 33792720 34018704 34246628 
2673.064 34475248 34703700 34930444 35154292 35373864 35588440 35797152 
2676.439 35999124 36194164 36382052 36563356 36739360 36912080 37084076 
2679.814 37258304 37437340 37624104 37821176 38030568 38254460 38494868 
2683.189 38752832 39029072 39323956 39636608 39966160 40311520 40672256 
2686.565 41047968 41438260 41842912 42260872 42691256 43132460 43583272 
2689.940 44042880 44510940 44987660 45473184 45967980 46471892 46984888 
2693.315 47506844 48038084 48578868 49129752 49690960 50262260 50842964 
2696.690 51431860 52027576 52628708 53234456 53844312 54458028 55075440 
2700.066 55696364 56320668 56948512 57579424 58213112 58848636 59483988 
2703.441 60116388 60742128 61356940 61956268 62535724 63090892 63617656 
2706.816 64111912 64569408 64986468 65359092 65684752 65961160 66187464 
2710.191 66363276 66489100 66565684 66593952 66575028 66509992 66399596 
2713.567 66244156 66043632 65797932 65506676 65170140 64789176 64365036 
2716.942 63899972 63396252 62856316 62282784 61678804 61047976 60394680 
2720.317 59724276 59042336 58354832 57666864 56983648 56309952 55649772 
2723.692 55007852 54388588 53796116 53234040 52705536 52212052 51755296 
2727.068 51335416 50952976 50608244 50301920 50033472 49802980 49609008 
2730.443 49450216 49324768 49231200 49168268 49135352 49132052 49157764 
2733.818 49211568 49291884 49396860 49524036 49671452 49837020 50018788 
2737.193 50214500 50421952 50638176 50860208 51084700 51308228 51527692 
2740.569 51739728 51941080 52129068 52301556 52457364 52597100 52722824 
2743.944 52837428 52944536 53047444 53148580 53248948 53349344 53449912 
2747.319 53550952 53653436 53758428 53866968 53979508 54096172 54215796 
2750.694 54337968 54462464 54590376 54723816 54866168 55021240 55193036 
2754.070 55385376 55601452 55843668 56113696 56412152 56738792 57092088 
2757.445 57469768 57868896 58285748 58716504 59157100 59602972 60049040 
2760.820 60490040 60919784 61331792 61720012 62078000 62399860 62680468 
2764.195 62915368 63100620 63234328 63316048 63347256 63330888 63271656 
2767.571 63174428 63044152 62885648 62703012 62500440 62282556 62053880 
2770.946 61820016 61585896 61356408 61135504 60926112 60730428 60549496 
2774.321 60383832 60233528 60097664 59974968 59862952 59758836 59658656 
2777.696 59558772 59454084 59339504 59209540 59058200 58880092 58671328 
2781.072 58429500 58155148 57851064 57522452 57174968 56814956 56448300 
2784.447 56079540 55713012 55352440 55000292 54659104 54329968 54013280 
2787.822 53708552 53414612 53130640 52856248 52591788 52338220 52096756 
2791.197 51868116 51652176 51447900 51253792 51068376 50890344 50718756 
2794.573 50553036 50391924 50233732 50075932 49915740 49749732 49575360 
2797.948 49390588 49194020 48985112 48763556 48529216 48281936 48021872 
2801.323 47749212 47464076 47166864 46857276 46535252 46200240 45852336 
2804.698 45492244 45121380 44742308 44358620 43974128 43592396 43217292 
2808.073 42851952 42499376 42162276 41843460 41545296 41269888 41018288 
2811.449 40790892 40587120 40406204 40246880 40108044 39989008 39889548 
2814.824 39809576 39749444 39709360 39689608 39690372 39711900 39754056 
2818.199 39816912 39899900 40003032 40125960 40268656 40431660 40615424 
2821.574 40820524 41046912 41294120 41560716 41844808 42143616 42454764 
2824.950 42775308 43102492 43433400 43764932 44093416 44414548 44723908 
2828.325 45016144 45286764 45530988 45744532 45924668 46069728 46179344 
2831.700 46255080 46299608 46316308 46308896 46281324 46237280 46180780 
2835.075 46116040 46047364 45979068 45915164 45858412 45810472 45772036 
2838.451 45743760 45726200 45721412 45732824 45764964 45823100 45912328 
2841.826 46037380 46202708 46413008 46674320 46994524 47382584 47848672 
2845.201 48401668 49045760 49778864 50589592 51456520 52345584 53214268 
2848.576 54013988 54690668 55195596 55488264 55540484 55342132 54900832 
2851.952 54241172 53399664 52421920 51358312 50255156 49157060 48101632 
2855.327 47116936 46224196 45435584 44755200 44180340 43702564 43310232 
2858.702 42988892 42723976 42502300 42311964 42143980 41991284 41849116 
2862.077 41715196 41588392 41469392 41359716 41261724 41178184 41111708 
2865.453 41065160 41041232 41042544 41071496 41130280 41219828 41339668 
2868.828 41487692 41660524 41852432 42057280 42268684 42479644 42684528 
2872.203 42877916 43055656 43215792 43357720 43484160 43599280 43709932 
2875.578 43823792 43948168 44090116 44254556 44444352 44660852 44903548 
2878.954 45170936 45460600 45770156 46096656 46437232 46789148 47150432 
2882.329 47518856 47892404 48268712 48644536 49015456 49376332 49721608 
2885.704 50046336 50346936 50621388 50870452 51096480 51304092 51498448 
2889.079 51686284 51874424 52069856 52280252 52514160 52780252 53089304 
2892.455 53453244 53885048 54400040 55013684 55741152 56596088 57586840 
2895.830 58713464 59963824 61311720 62713540 64107188 65421880 66578740 
2899.205 67501048 68130080 68427560 68385016 68022800 67388272 66547296 
2902.580 65569440 64527460 63485064 62491336 61585284 60792700 60128376 
2905.956 59600200 59209804 58954924 58830500 58831180 58951888 59188880 
2909.331 59539920 60003536 60577304 61257084 62035340 62900284 63836984 
2912.706 64825372 65841688 66860012 67849928 68779168 69617824 70336536 
2916.081 70913552 71335744 71599760 71711912 71685288 71538024 71288264 
2919.457 70951904 70541976 70066560 69530432 68936184 68285744 67582256 
2922.832 66831448 66042124 65226816 64401200 63581640 62784828 62025632 
2926.207 61314964 60660012 60064448 59528448 59049928 58625324 58250696 
2929.582 57920876 57629972 57371704 57138760 56923848 56719496 56518944 
2932.958 56316368 56106760 55886328 55652744 55404764 55142812 54868384 
2936.333 54584628 54295308 54004232 53715452 53432636 53159288 52899324 
2939.708 52657172 52437432 52245536 52086032 51962140 51874908 51822268 
2943.083 51798524 51794232 51797256 51793036 51765076 51699200 51583324 
2946.458 51410080 51178708 50895076 50571500 50223168 49867236 49519616 
2949.834 49190752 48886612 48606996 48347148 48098304 47850596 47594752 
2953.209 47322356 47028236 46709776 46367216 46003340 45622584 45230832 
2956.584 44833188 44435064 44040716 43652844 43273552 42903884 42544212 
2959.959 42194772 41855460 41526372 41207732 40900352 40605492 40325260 
2963.335 40062256 39818984 39598240 39401844 39231140 39086824 38969012 
2966.710 38877904 38813260 38774496 38760728 38769892 38799240 38844928 
2970.085 38902508 38968180 39038536 39111444 39186172 39263128 39343800 
2973.460 39429708 39522168 39621000 39723808 39824936 39915376 39983232 
2976.836 40013496 39991264 39903352 39739752 39496328 39174820 38783552 
2980.211 38335016 37845616 37333440 36815416 36307336 35821868 35367320 
2983.586 34948256 34565512 34216656 33897708 33604944 33336136 33091776 
2986.961 32875210 32691620 32545674 32439190 32368432 32322098 32282088 
2990.337 32225024 32124400 31957850 31709202 31372960 30955170 30473410 
2993.712 29953874 29424042 28911674 28438330 28016778 27651884 27340998 
2997.087 27076956 26850258 26651580 26473416 26309586 26155984 26009720 
3000.462 25868816 25732248 25599832 25472306 25350930 25236998 25131660 
3003.838 25034738 24945592 24862886 24785352 24712394 24643898 24581024 
3007.213 24525032 24477250 24438584 24409526 24389936 24379142 24376478 
3010.588 24380718 24390460 24404130 24420184 24437184 24454394 24471920 
3013.963 24490500 24511746 24537198 24568436 24606410 24651684 24704150 
3017.339 24763464 24828574 24898324 24970826 25044250 25116388 25185168 
3020.714 25249218 25307340 25359080 25404044 25441844 25471990 25494092 
3024.089 25508006 25514366 25514716 25511870 25509200 25509938 25516966 
3027.464 25531760 25554742 25584614 25619550 25657122 25694454 25729504 
3030.840 25760654 25786918 25808226 25825070 25838750 25850564 25862380 
3034.215 25875568 25891570 25911618 25936588 25967260 26003986 26047048 
3037.590 26096164 26150882 26210604 26275016 26344086 26418306 26497964 
3040.965 26583306 26674268 26769760 26868162 26967540 27066482 27163754 
3044.341 27259212 27352996 27445568 27537310 27627978 27717428 27805308 
3047.716 27891720 27977374 28062868 28148730 28235106 28320930 28404760 
3051.091 28484924 28559758 28628378 28690600 28746886 28798080 28845348 
3054.466 28889754 28932464 28974576 29017508 29062356 29110222 29161704 
3057.842 29216882 29275468 29336934 29400464 29465706 29532198 29599552 
3061.217 29667236 29734646 29801358 29867334 29932752 29998784 30066246 
3064.592 30136170 30209266 30285606 30364698 30446220 30529712 30615140 
3067.967 30702646 30792270 30883834 30977054 31071468 31166934 31263702 
3071.343 31362702 31464860 31571172 31681970 31796820 31914630 32034214 
3074.718 32154224 32274452 32394848 32516212 32639108 32763894 32890436 
3078.093 33018086 33145916 33273068 33398754 33522256 33643576 33762204 
3081.468 33878256 33991792 34103280 34213500 34323036 34432672 34542620 
3084.844 34653032 34764112 34876048 34988980 35103852 35221264 35341728 
3088.219 35465388 35591932 35720700 35850800 35981844 36113284 36245524 
3091.594 36378452 36512388 36647420 36783536 36920596 37059068 37199608 
3094.969 37343188 37490504 37641952 37797320 37955492 38114588 38272660 
3098.344 38427820 38578544 38724068 38864784 39001708 39137040 39272776 
3101.720 39411060 39553088 39699560 39849596 40001616 40154012 40305340 
3105.095 40454680 40602328 40749184 40896348 41044580 41194032 41344372 
3108.470 41494908 41644988 41794352 41942896 42091304 42240200 42390244 
3111.845 42542060 42695860 42852392 43011936 43174948 43341460 43510712 
3115.221 43681456 43851868 44020256 44185404 44346984 44505908 44663860 
3118.596 44822940 44984756 45150496 45320268 45493164 45668184 45843612 
3121.971 46018076 46190768 46361208 46529388 46695940 46861668 47027052 
3125.346 47192280 47357384 47521628 47684492 47845676 48004964 48162784 
3128.722 48319744 48475864 48630936 48783984 48933932 49080408 49223520 
3132.097 49364972 49507400 49653324 49805096 49963580 50127884 50295744 
3135.472 50464524 50631736 50795884 50956328 51113548 51268108 51420860 
3138.847 51572208 51722372 51871476 52020180 52169384 52319756 52471832 
3142.223 52625752 52781188 52937388 53093608 53249248 53403932 53557848 
3145.598 53710876 53863364 54015380 54167032 54318512 54469976 54621564 
3148.973 54773316 54924860 55075552 55224716 55371976 55517480 55662012 
3152.348 55807048 55954052 56104500 56258884 56417400 56578992 56742040 
3155.724 56904660 57064920 57221500 57373520 57521132 57665160 57807080 
3159.099 57948780 58091552 58236604 58384128 58533864 58685096 58837292 
3162.474 58990068 59143584 59297684 59452488 59607344 59761228 59913156 
3165.849 60062204 60207536 60349792 60489088 60626220 60761488 60894512 
3169.225 61024984 61152364 61276160 61396364 61513204 61627060 61738040 
3172.600 61845996 61950228 62050516 62146312 62237656 62324320 62406248 
3175.975 62483188 62554628 62620492 62681616 62739192 62795736 62853368 
3179.350 62914224 62979220 63048788 63121236 63195968 63271620 63347868 
3182.726 63424820 63502280 63580140 63657940 63734560 63809388 63882008 
3186.101 63952796 64022704 64092368 64162112 64231640 64300448 64367616 
3189.476 64433208 64497708 64561984 64627424 64694488 64763516 64834064 
3192.851 64905428 64977384 65049468 65121712 65193624 65264284 65332016 
3196.227 65395264 65452620 65504244 65551832 65597916 65645552 65696968 
3199.602 65752900 65812656 65873892 65934120 65991284 66043900 66092276 
3202.977 66137612 66181748 66226864 66274992 66327444 66385008 66446660 
3206.352 66510536 66574336 66634900 66690104 66738940 66782176 66822364 
3209.728 66861944 66903376 66947520 66993752 67039960 67083844 67123976 
3213.103 67159984 67193520 67226552 67261752 67300048 67341920 67386144 
3216.478 67431144 67475304 67517264 67556552 67593208 67627440 67660080 
3219.853 67691592 67722728 67754288 67786600 67819440 67852672 67885560 
3223.229 67917720 67948904 67979864 68011720 68045632 68082136 68121320 
3226.604 68161832 68201792 68239216 68272672 68301136 68324440 68342784 
3229.979 68356592 68366824 68374616 68381720 68390440 68403248 68421552 
3233.354 68445832 68474536 68505032 68534168 68559384 68580104 68597184 
3236.729 68613088 68630664 68651624 68676384 68704016 68732592 68760344 
3240.105 68786160 68809608 68831000 68850256 68866992 68880728 68890824 
3243.480 68897584 68902360 68907024 68913392 68923328 68937312 68954672 
3246.855 68974672 68996184 69018904 69043424 69070416 69100056 69131992 
3250.230 69164744 69196408 69224968 69249144 69268576 69284120 69297096 
3253.606 69308952 69320816 69333520 69347200 69361824 69376864 69391472 
3256.981 69405160 69417096 69426816 69434480 69440808 69446760 69453216 
3260.356 69460336 69467256 69472728 69474368 69470832 69461104 69445984 
3263.731 69426472 69404896 69382848 69361584 69341488 69322328 69303280 
3267.107 69283696 69262392 69238608 69211792 69181568 69147840 69111472 
3270.482 69073680 69035224 68997232 68959600 68921736 68882640 68841592 
3273.857 68798496 68754288 68710264 68667736 68626904 68587016 68546152 
3277.232 68502824 68456152 68406888 68357016 68309160 68265376 68226144 
3280.608 68190128 68154808 68117800 68077640 68034704 67990288 67946736 
3283.983 67905480 67867200 67831096 67796080 67761456 67726872 67693032 
3287.358 67661048 67631464 67603976 67577496 67550552 67521832 67491560 
3290.733 67460488 67431032 67404872 67383744 67368536 67359288 67355464 
3294.109 67356888 67363312 67374144 67388736 67406304 67425496 67445424 
3297.484 67465904 67486992 67510064 67536080 67565920 67599328 67635648 
3300.859 67673160 67710448 67746584 67781016 67813904 67846360 67879056 
3304.234 67913808 67951696 67994472 68043184 68098568 68159928 68225640 
3307.610 68293224 68360160 68424112 68484624 68542000 68597872 68653640 
3310.985 68710544 68768568 68827312 68885976 68944032 69001464 69059112 
3314.360 69117416 69176592 69235888 69293800 69348520 69398904 69444072 
3317.735 69484472 69520368 69552720 69581656 69607640 69630936 69651664 
3321.111 69670528 69687960 69704216 69718848 69731224 69740128 69744760 
3324.486 69744952 69741064 69733672 69723320 69709824 69692712 69670920 
3327.861 69643776 69611136 69573688 69532264 69487584 69439800 69388328 
3331.236 69332432 69271256 69204608 69132688 69055968 68974280 68886752 
3334.612 68792096 68689000 68576656 68456112 68329248 68199080 68067832 
3337.987 67936240 67803248 67666312 67522136 67368696 67205240 67032956 
3341.362 66854328 66672332 66489256 66306376 66123448 65939524 65753208 
3344.737 65563240 65368412 65168024 64961836 64749748 64532996 64313396 
3348.113 64093596 63876556 63665152 63461400 63265720 63077256 62894152 
3351.488 62714308 62535800 62357404 62178772 61999796 61821316 61643936 
3354.863 61468428 61296076 61128104 60966144 60811452 60665156 60527824 
3358.238 60399672 60279932 60167800 60062204 59961500 59864548 59770128 
3361.614 59677248 59585756 59496108 59409328 59326740 59249300 59177756 
3364.989 59111612 59050044 58992080 58936896 58884680 58836076 58792332 
3368.364 58754360 58722116 58694844 58670340 58645992 58619028 58586684 
3371.739 58546644 58497316 58437384 58366088 58283548 58190116 58086736 
3375.115 57974112 57852428 57721280 57579540 57425516 57257748 57075348 
3378.490 56878408 56668036 56444980 56209816 55962456 55701376 55424484 
3381.865 55130056 54816544 54484024 54133704 53768324 53391004 53005028 
3385.240 52613524 52219524 51824728 51430556 51037296 50645064 50253224 
3388.615 49860916 49467220 49071876 48674484 48275752 47876680 47478676 
3391.991 47083808 46694536 46312544 45939508 45575736 45220536 44871472 
3395.366 44525436 44179792 43832148 43482000 43130340 42779332 42431452 
3398.741 42088748 41751780 41419852 41091344 40764400 40437372 40109640 
3402.116 39780964 39452060 39123188 38794564 38466516 38139080 37812284 
3405.492 37486968 37164016 36843908 36527060 36213180 35901760 35592576 
3408.867 35285480 34981008 34680264 34384644 34094816 33811060 33532780 
3412.242 33258900 32987878 32718662 32450438 32183092 31916908 31652816 
3415.617 31391516 31133756 30879814 30629362 30381754 30135460 29888844 
3418.993 29640736 29390466 29138674 28886958 28637366 28391848 28151488 
3422.368 27916100 27684336 27454250 27223968 26992398 26759328 26525576 
3425.743 26291912 26059500 25828904 25600078 25372850 25147072 24922432 
3429.118 24699416 24478124 24258876 24041592 23826132 23612704 23401338 
3432.494 23192452 22986356 22783396 22583290 22385472 22189626 21995090 
3435.869 21802210 21611816 21425126 21243318 21067082 20896622 20730916 
3439.244 20568540 20407788 20247096 20085526 19922110 19757262 19591402 
3442.619 19425848 19262160 19101546 18944486 18790870 18639112 18487510 
3445.995 18334230 18178518 18021102 17864292 17711580 17565784 17428696 
3449.370 17300100 17177814 17058700 16939342 16818054 16694147 16568797 
3452.745 16443379 16319202 16196676 16075080 15953481 15830750 15706852 
3456.120 15582816 15459983 15339827 15223206 15110149 14999694 14890570 
3459.496 14781679 14672199 14561650 14449895 14337143 14223666 14110082 
3462.871 13997314 13886252 13777955 13672455 13569680 13468537 13368305 
3466.246 13268336 13169345 13072393 12979627 12892205 12810295 12732529 
3469.621 12656244 12578130 12495597 12407591 12313978 12216841 12118192 
3472.997 12020316 11924743 11832561 11743940 11659558 11579582 11504111 
3476.372 11432872 11364910 11299237 11234525 11169585 11104009 11037560 
3479.747 10970611 10903299 10835350 10766666 10697586 10628992 10562818 
3483.122 10501204 10445945 10397378 10354416 10314105 10272915 10227999 
3486.498 10177659 10122407 10064585 10007483 9953914 9906217 9865032 9830121 
3490.355 9801177 9777692 9759868 9747600 9740756 9738248 9738620 9739840 
3494.212 9740281 9739332 9737197 9735232 9735300 9738790 9746855 9760003 
3498.070 9778912 9803279 9833680 9870218 9913268 9962729 10018130 10078590 
3501.927 10143096 10210460 10280108 10351634 10425275 10501917 10582849 
3505.302 10669162 10762353 10863344 10972310 11088816 11211846 11339911 
3508.678 11471586 11606194 11743430 11883604 12027401 12174516 12324852 
3512.053 12477661 12632160 12787909 12945114 13103945 13264544 13426227 
3515.428 13586978 13744473 13895456 14037901 14170362 14293002 14406428 
3518.803 14511970 14609691 14698933 14778183 14845344 14898046 14934429 
3522.179 14952948 14952331 14932440 14892833 14833619 14755215 14658147 
3525.554 14542805 14409510 14258418 14089545 13903803 13702855 13489386 
3528.929 13266457 13037189 12803675 12567386 12328431 12086404 11840972 
3532.304 11592173 11339537 11083581 10823563 10559152 10290558 10018503 
3535.680 9745161 9474327 9210194 8956301 8714388 8484436 8264804 8052978 
3539.537 7846958 7646094 7450480 7261321 7078644 6901935 6728865 6557042 
3543.395 6383907 6208220 6029748 5849536 5668694 5488061 5308510 5130307 
3547.252 4954590 4783232 4618103 4461674 4314873 4177086 4046166 3918996 
3551.109 3793034 3666840 3540984 3417102 3297428 3183595 3075531 2972631 
3554.967 2873625 2777510 2684116 2594509 2508919 2427844 2350283 2274734 
3558.824 2199431 2123208 2046533 1971037 1898782 1831630 1770642 1715319 
3562.682 1664326 1615701 1567414 1517237 1462910 1401576 1329781 1245071 
3566.539 1146757 1036973 921374 807199 701749 610625 534980 473511 422399 
3570.879 377361 334981 293169 251493 210054 169248 128844 87681 44932 -530 
3575.700 -48571 -98264 -148315 -197102 -244029 -288832 -332141 -374915 
3579.558 -417586 -460385 -502253 -542231 -578730 -610363 -635972 -654566 
3583.415 -666774 -673490 -677261 -681463 -690461 -708225 -738327 -781359 
3587.273 -836094 -898394 -962569 -1023198 -1075820 -1118026 -1149685 
3590.648 -1171991 -1187687 -1199451 -1211015 -1225421 -1245642 -1272964 
3594.023 -1307751 -1348480 -1392245 -1435807 -1476854 -1513507 -1545501 
3597.398 -1573233 -1598092 -1620837 -1642657 -1663617 -1684015 -1703455 
3600.774 -1721772 -1738900 -1754972 -1769261 -1781371 -1790413 -1795065 
3604.149 -1794372 -1788334 -1777411 -1763387 -1749098 -1738834 -1736062 
3607.524 -1743784 -1763024 -1792063 -1826973 -1862573 -1894442 -1920569 
3610.899 -1941252 -1959328 -1978855 -2002569 -2031592 -2063680 -2094974 
3614.275 -2120627 -2136487 -2141960 -2138762 -2131179 -2124320 -2123562 
3617.650 -2132530 -2152247 -2182018 -2218644 -2258299 -2297259 -2332359 
3621.025 -2362019 -2385416 -2402551 -2413458 -2418104 -2416127 -2405780 
3624.400 -2385778 -2354967 -2313475 -2263408 -2210139 -2161874 -2129794 
3627.776 -2124024 -2152049 -2212381 -2294886 -2382417 -2459223 -2515691 
3631.151 -2549719 -2565333 -2569318 -2568725 -2569318 -2574028 -2584107 
3634.526 -2598303 -2615068 -2632786 -2650339 -2667168 -2682349 -2695356 
3637.901 -2705432 -2712083 -2716101 -2718570 -2721435 -2725880 -2732334 
3641.277 -2739610 -2745372 -2746294 -2739709 -2723904 -2699011 -2666608 
3644.652 -2629559 -2591057 -2555023 -2523992 -2500735 -2486766 -2483834 
3648.027 -2492532 -2513681 -2546853 -2590859 -2642304 -2696113 -2745570 
3651.402 -2784650 -2808189 -2814510 -2804996 -2784321 -2759267 -2738063 
3654.778 -2728448 -2735890 -2761736 -2802263 -2850029 -2896933 -2935737 
3658.153 -2963645 -2980658 -2988885 -2991221 -2989609 -2985298 -2978453 
3661.528 -2969601 -2959070 -2947947 -2937383 -2927641 -2918393 -2907960 
3664.903 -2893873 -2873860 -2846178 -2811152 -2770164 -2727823 -2689396 
3668.279 -2661701 -2650899 -2660516 -2689494 -2731379 -2775498 -2810658 
3671.654 -2828435 -2826130 -2806543 -2777572 -2748862 -2732334 -2736812 
3675.029 -2765983 -2815333 -2873794 -2929155 -2972760 -3002607 -3021165 
3678.404 -3032945 -3041236 -3046567 -3048080 -3043605 -3032287 -3015176 
3681.780 -2995302 -2976347 -2961177 -2949658 -2939160 -2924778 -2902364 
3685.155 -2869647 -2828073 -2782708 -2741520 -2712478 -2701678 -2710733 
3688.530 -2736812 -2772732 -2811251 -2847692 -2880838 -2911382 -2941233 
3691.905 -2970424 -2997572 -3020310 -3036597 -3044922 -3046797 -3044428 
3695.281 -3041138 -3039525 -3041236 -3045283 -3050021 -3052292 -3050317 
3698.656 -3043737 -3034195 -3024521 -3018401 -3019322 -3028634 -3045810 
3702.031 -3067920 -3090719 -3110524 -3124045 -3130328 -3129275 -3121841 
3705.406 -3109175 -3091608 -3069104 -3040710 -3006128 -2965290 -2919676 
3708.781 -2872610 -2828698 -2793868 -2773457 -2771448 -2789095 -2823958 
3712.157 -2870766 -2921881 -2969963 -3009616 -3037782 -3054299 -3060418 
3715.532 -3058247 -3050383 -3038341 -3023699 -3007707 -2991155 -2975459 
3718.907 -2962065 -2952488 -2947552 -2947025 -2950185 -2954957 -2958972 
3722.282 -2960749 -2959794 -2957227 -2954693 -2954298 -2957622 -2964895 
3725.658 -2974965 -2985397 -2993163 -2995104 -2989444 -2975426 -2954430 
3729.033 -2928431 -2900916 -2875868 -2856744 -2845684 -2842984 -2846079 
3732.408 -2850161 -2850391 -2844170 -2832352 -2819184 -2810790 -2813720 
3735.783 -2830344 -2859312 -2894333 -2928694 -2956306 -2974142 -2981942 
3739.159 -2980724 -2971115 -2952949 -2924975 -2886500 -2839034 -2787482 
3742.534 -2741257 -2712018 -2710997 -2743034 -2800650 -2865368 -2915661 
3745.909 -2937712 -2928727 -2894794 -2847001 -2798148 -2758443 -2735067 
3749.284 -2730292 -2742211 -2766049 -2797259 -2833373 -2873597 -2916188 
3752.660 -2958412 -2995532 -3022514 -3035873 -3035018 -3021527 -2999777 
3756.035 -2974899 -2951732 -2933828 -2924054 -2923395 -2931360 -2946795 
3759.410 -2967495 -2990168 -3010471 -3024357 -3028996 -3023863 -3010701 
3762.785 -2993558 -2977104 -2965126 -2959696 -2960452 -2964764 -2969206 
3766.161 -2970983 -2969404 -2965751 -2962361 -2961736 -2965586 -2973978 
3769.536 -2985858 -2999119 -3012248 -3024324 -3035281 -3044823 -3053147 
3772.911 -3059135 -3061636 -3059135 -3050778 -3036136 -3015901 -2991517 
3776.286 -2965389 -2940246 -2919610 -2906347 -2902957 -2910263 -2927707 
3779.662 -2952126 -2978848 -3003232 -3021527 -3031727 -3034458 -3031497 
3783.037 -3025772 -3019651 -3015473 -3013827 -3015571 -3019882 -3026529 
3786.412 -3034787 -3043901 -3052884 -3060879 -3066538 -3069696 -3070190 
3789.787 -3068479 -3065748 -3062524 -3058905 -3054496 -3048113 -3038802 
3793.163 -3026463 -3011886 -2997177 -2984574 -2975985 -2971872 -2970983 
3796.538 -2969667 -2964401 -2952028 -2931031 -2903319 -2873400 -2848185 
3799.913 -2835348 -2841141 -2868199 -2912172 -2962756 -3006588 -3033372 
3803.288 -3038045 -3022679 -2994347 -2963282 -2940081 -2933466 -2947289 
3806.664 -2979572 -3021889 -3063018 -3093055 -3106873 -3104241 -3088581 
3810.039 -3063939 -3033833 -2999645 -2961703 -2919610 -2873531 -2825669 
3813.414 -2780798 -2744384 -2722884 -2720710 -2737766 -2767860 -2801111 
3816.789 -2826163 -2835380 -2826756 -2804370 -2776749 -2754558 -2748138 
3820.165 -2765687 -2809242 -2873070 -2944820 -3010734 -3059826 -3088285 
3823.540 -3097793 -3094239 -3084140 -3072789 -3062985 -3054792 -3046073 
3826.915 -3033734 -3015670 -2991682 -2963348 -2933302 -2904306 -2878008 
3830.290 -2855197 -2835677 -2818197 -2801802 -2785967 -2770559 -2755612 
3833.666 -2741619 -2728843 -2718504 -2711721 -2710898 -2718208 -2735396 
3837.041 -2762197 -2796305 -2832549 -2865302 -2889594 -2903319 -2907038 
3840.416 -2903681 -2896901 -2890351 -2886401 -2886302 -2890351 -2897822 
3843.791 -2907795 -2918590 -2928990 -2937383 -2941628 -2940542 -2932676 
3847.167 -2917307 -2893807 -2862504 -2823398 -2776683 -2723871 -2666707 
3850.542 -2609897 -2559799 -2525376 -2517107 -2542670 -2604133 -2693084 
3853.917 -2792848 -2884393 -2954397 -2998000 -3017743 -3019290 -3008365 
3857.292 -2989247 -2964764 -2936560 -2905853 -2874584 -2844696 -2818295 
3860.667 -2797490 -2782708 -2774082 -2770888 -2772568 -2778922 -2790214 
3864.043 -2805852 -2823661 -2839660 -2848548 -2845618 -2828994 -2801012 
3867.418 -2767860 -2737964 -2721534 -2725979 -2753603 -2799465 -2852103 
3870.793 -2899303 -2931985 -2947124 -2948013 -2941694 -2935507 -2934421 
3874.168 -2940410 -2950942 -2960716 -2963842 -2956240 -2936692 -2906676 
3877.544 -2870207 -2832714 -2799827 -2776683 -2766345 -2768814 -2781852 
3880.919 -2799695 -2816156 -2826328 -2827414 -2820106 -2807498 -2795383 
3884.294 -2789852 -2795481 -2813950 -2841865 -2872741 -2897888 -2910527 
3887.669 -2907861 -2890976 -2864150 -2833471 -2806016 -2787284 -2780963 
3891.045 -2787284 -2802889 -2822509 -2840022 -2850621 -2851543 -2842030 
3894.420 -2823661 -2798872 -2770724 -2742573 -2717516 -2697990 -2685214 
3897.795 -2679517 -2679780 -2684028 -2690318 -2696377 -2701579 -2706519 
3901.170 -2711919 -2719756 -2731379 -2747380 -2767267 -2789358 -2811415 
3904.546 -2831430 -2847560 -2859048 -2865928 -2868824 -2868100 -2864249 
3907.921 -2857863 -2849173 -2838870 -2827678 -2816057 -2804765 -2793868 
3911.296 -2782807 -2770987 -2757291 -2741388 -2723509 -2704938 -2687650 
3914.671 -2673952 -2665818 -2664138 -2668287 -2676981 -2687782 -2698451 
3918.047 -2707243 -2713730 -2717747 -2719657 -2719525 -2717484 -2713005 
3921.422 -2706222 -2697760 -2689396 -2683304 -2681526 -2685312 -2694236 
3924.797 -2706584 -2719591 -2729930 -2735791 -2735988 -2731477 -2723443 
3928.172 -2714191 -2705037 -2697068 -2690581 -2685279 -2681097 -2678232 
3931.548 -2676981 -2677903 -2681196 -2686827 -2693907 -2701382 -2708132 
3934.923 -2713466 -2716562 -2717319 -2715837 -2712347 -2707144 -2700493 
3938.298 -2692689 -2684094 -2674972 -2665883 -2657321 -2649780 -2644148 
3941.673 -2640657 -2639933 -2642106 -2646849 -2653369 -2660581 -2667431 
3945.049 -2673062 -2676586 -2678068 -2677771 -2675861 -2672832 -2669078 
3948.424 -2664961 -2660944 -2657222 -2654851 -2653929 -2654753 -2656827 
3951.799 -2659066 -2660120 -2658869 -2654291 -2646618 -2636804 -2626199 
3955.174 -2616583 -2609172 -2604166 -2601300 -2599456 -2597447 -2594548 
3958.550 -2590596 -2586413 -2582987 -2580978 -2580912 -2582197 -2583481 
3961.925 -2582922 -2579364 -2571657 -2560029 -2545668 -2530614 -2516975 
3965.300 -2506170 -2498824 -2494508 -2491905 -2489039 -2484559 -2477904 
3968.675 -2469107 -2459454 -2450328 -2443079 -2438170 -2435600 -2434414 
3972.051 -2433491 -2432041 -2429636 -2426506 -2423343 -2420575 -2418466 
3975.426 -2416818 -2415105 -2412337 -2408120 -2401727 -2393127 -2382615 
3978.801 -2370521 -2357340 -2343696 -2330349 -2318319 -2308366 -2301016 
3982.176 -2296798 -2295347 -2296073 -2298446 -2301412 -2304576 -2307509 
3985.552 -2309981 -2312090 -2313738 -2314859 -2315584 -2316210 -2317232 
3988.927 -2319275 -2322999 -2328437 -2335259 -2342510 -2348574 -2352462 
3992.302 -2353583 -2352198 -2349364 -2347090 -2347090 -2350584 -2357636 
3995.677 -2367423 -2377672 -2386438 -2391578 -2392303 -2389008 -2383307 
3999.052 -2376947 -2372268 -2370422 -2371642 
##END=
