
##TITLE=Z235b_2_d
##JCAMP-DX=5.01  $$ Nicolet v. 1
##DATATYPE=INFRARED SPECTRUM
##ORIGIN=UniL
##OWNER=Nicolet
##LONGDATE=2011/09/22
##TIME=11:22:47
##SPECTROMETER/DATA SYSTEM=Nicolet iS5
##DATA PROCESSING=
Ratio against background
%Transmittance->Absorbance
Truncated
ElementMultiply or ElementDivide
##COMMENTS=
Number of sample scans: 32
Collection length: 51.17 sec
Sample gain: 2.0
Background collected on: Jeu Sep 22 11:15:12 2011 (GMT+02:00);
Number of background scans: 32
Background gain: 2.0
Sample spacing:  1.000
Number of scan points: 12415
Resolution points: 8192
Number of FFT points: 65536
Apodization: N-B fort;
Phase correction: Mertz;
Laser frequency: 15798.0 cm-1
Number of rejected sample scans: 0
Number of rejected background scans: 0
Bench serial number: ASB1000141;
##RESOLUTION=4.000
##XUNITS=1/CM
##YUNITS=ABSORBANCE
##FIRSTX=649.893372
##LASTX=4000.122314
##FIRSTY=0.110040
##MAXX=4000.122314
##MINX=649.893372
##MAXY=0.261556
##MINY=-0.003515
##XFACTOR=1.000000
##YFACTOR=1.000000E-009
##NPOINTS=6950
##DELTAX=0.482117
##ZPD=6100
##XYDATA=(X++(Y..Y))
649.893 110040392 108801744 107721752 106819200 106082016 105479968 
652.786 104980192 104565864 104239840 104015896 103906360 103907840 
655.679 103999104 104149880 104334592 104542848 104782720 105071464 
658.571 105422448 105832800 106283752 106747936 107204752 107651104 
661.464 108100216 108574712 109093392 109660672 110266824 110895176 
664.357 111532792 112177608 112830944 113487368 114119408 114661280 
667.250 115025240 115142408 115021136 114754616 114474936 114281128 
670.142 114202632 114216592 114268320 114301728 114273408 114169056 
673.035 114001312 113799448 113589664 113381232 113164296 112918120 
675.928 112625104 112281088 111895976 111485552 111060952 110620408 
678.820 110150504 109634992 109066208 108450112 107804176 107146824 
681.713 106488728 105827864 105153640 104455696 103734928 103005936 
684.606 102293264 101620912 100998800 100420424 99866080 99313608 98748448 
687.981 98171728 97597840 97047792 96537328 96071416 95644072 95245440 
691.355 94867920 94513144 94190536 93913704 93693208 93533272 93431320 
694.730 93382184 93384408 93441304 93561672 93753848 94021320 94359776 
698.105 94759272 95206872 95693752 96217728 96780728 97385168 98027784 
701.480 98696952 99375544 100045720 100694832 101320688 101928384 102525768 
704.855 103116000 103693984 104247432 104763152 105233808 105662376 
707.747 106061288 106447744 106836232 107234016 107643040 108065104 
710.640 108509752 108998792 109564248 110240176 111051928 112000816 
713.533 113058888 114163584 115232648 116170984 116887544 117317488 
716.425 117428368 117231112 116777936 116163448 115510872 114946176 
719.318 114592560 114542136 114840848 115486064 116421480 117548664 
722.211 118726656 119798864 120612248 121029120 120964152 120398584 
725.104 119392408 118070744 116603888 115173376 113918224 112923024 
727.996 112206608 111735024 111445672 111274912 111179928 111138624 
730.889 111145432 111197688 111284544 111385976 111479424 111548384 
733.782 111591440 111620400 111654296 111706488 111778056 111856920 
736.674 111926376 111974056 112000472 112018480 112047688 112104384 
739.567 112193352 112307352 112431816 112554344 112669128 112778616 
742.460 112888352 113000088 113107936 113200944 113269096 113311376 
745.352 113340368 113378312 113448304 113562856 113719744 113902504 
748.245 114090152 114265432 114424392 114574008 114726568 114889200 
751.138 115058624 115220808 115359768 115465488 115539968 115596216 
754.031 115651912 115719808 115802168 115891680 115977920 116056088 
756.923 116130720 116213720 116317648 116447552 116597304 116753440 
759.816 116902296 117039536 117173088 117320312 117497024 117710624 
762.709 117955392 118217272 118482880 118750440 119032408 119353200 
765.601 119738528 120204600 120754992 121381456 122072536 122819760 
768.494 123621608 124484152 125421928 126462520 127657992 129103448 
771.387 130928200 133278536 136269824 139910816 144037456 148261232 
774.279 152035968 154698752 155641088 154510432 151285616 146318528 
777.172 140192144 133614344 127214464 121408880 116410296 112215576 
780.065 108688192 105628568 102854792 100240048 97714136 95259728 92887960 
783.440 90623200 88492528 86524936 84751272 83199592 81891984 80840440 
786.815 80044504 79497128 79192048 79132688 79335688 79828464 80639800 
790.189 81794728 83309560 85193544 87457688 90120640 93209176 96751288 
793.564 100757720 105202480 109997960 114994840 119974968 124650040 
796.457 128708560 131815288 133646624 133955392 132588416 129535392 
799.350 124934056 119065960 112312976 105076992 97770360 90745808 84259400 
802.724 78491528 73525616 69368232 65970920 63252880 61123412 59491396 
806.099 58284532 57448284 56942204 56737320 56803360 57098020 57564328 
809.474 58123480 58680092 59140508 59416088 59439112 59172784 58607088 
812.849 57758024 56659392 55361024 53920608 52397620 50855328 49349716 
816.224 47926736 46621120 45452836 44428056 43544224 42793992 42169068 
819.598 41663512 41273568 40997276 40833116 40779684 40837484 41011116 
822.973 41310080 41749996 42349584 43124960 44084868 45224176 46519064 
826.348 47921260 49358104 50737188 51940856 52848840 53350916 53361332 
829.723 52844948 51823688 50378564 48628860 46717780 44790760 42963360 
833.098 41322180 39915884 38757180 37832420 37109444 36548292 36102520 
836.473 35727428 35386048 35049680 34704024 34349072 33996664 33664412 
839.847 33368874 33121168 32922998 32768756 32648894 32555278 32483608 
843.222 32433588 32407560 32407880 32434620 32486002 32559994 32655894 
846.597 32774974 32920386 33094384 33297426 33527448 33780648 34054860 
849.972 34350432 34670684 35021020 35406180 35828420 36287632 36782740 
853.347 37314304 37887300 38511304 39197632 39957984 40801232 41732960 
856.721 42757280 43880420 45111896 46467544 47966884 49630220 51478788 
860.096 53532284 55808932 58326748 61099120 64127968 67392648 70840336 
863.471 74380424 77877520 81174760 84107928 86522304 88309808 89415848 
866.846 89851856 89690232 89058856 88124240 87053472 86010648 85129248 
870.221 84495608 84157072 84119672 84357688 84820192 85437840 86129016 
873.596 86790456 87308176 87564160 87439936 86846336 85736000 84115528 
876.970 82046488 79636336 77026968 74361032 71778160 69400304 67315912 
880.345 65588900 64253992 63318348 62764152 62549652 62617160 62891432 
883.720 63292816 63749096 64195952 64588316 64902700 65133452 65293320 
887.095 65407820 65513724 65650216 65854184 66154740 66565760 67085236 
890.470 67695664 68372064 69086656 69817872 70554960 71297752 72053816 
893.844 72832688 73641408 74479256 75334792 76181008 76971112 77639384 
897.219 78091728 78219416 77912248 77069152 75628776 73581976 70980696 
900.594 67928720 64571096 61078064 57608256 54306088 51286380 48621932 
903.969 46354868 44497280 43038500 41952636 41203796 40755152 40569732 
907.344 40617716 40879460 41343896 42007856 42872212 43939152 45208772 
910.719 46678636 48340668 50180060 52170128 54265800 56406304 58512520 
914.093 60495752 62278728 63803672 65048812 66032476 66813672 67482656 
917.468 68140664 68899336 69859896 71099448 72668816 74577400 76789104 
920.843 79216144 81730696 84183536 86419808 88324752 89844520 91005552 
924.218 91913344 92743376 93723472 95081272 97035360 99759504 103347640 
927.593 107799600 112989472 118669608 124431640 129739792 134011640 
930.485 136630576 137094048 135114448 130663472 124010872 115661688 
933.378 106305640 96647008 87318984 78839776 71526344 65532140 60872972 
936.753 57466740 55180208 53863252 53383028 53615912 54441692 55734900 
940.128 57330224 59019748 60575172 61743808 62303820 62107088 61092748 
943.502 59309840 56897744 54070280 51059060 48076056 45297428 42830268 
946.877 40722872 38976840 37562824 36436824 35551760 34867032 34345880 
950.252 33955784 33669248 33460234 33305944 33189688 33099358 33028308 
953.627 32974936 32940154 32925822 32934114 32966536 33024200 33107400 
957.002 33216692 33351668 33511806 33695744 33902040 34129084 34375824 
960.377 34641652 34926496 35230536 35553632 35895140 36254096 36629032 
963.751 37019052 37424156 37844964 38283008 38739864 39216564 39713316 
967.126 40229796 40765452 41320176 41894724 42490424 43108896 43751336 
970.501 44418252 45109652 45826192 46569256 47342532 48150644 48999024 
973.876 49892284 50833464 51823836 52863732 53953924 55096356 56295056 
977.251 57554720 58881304 60280312 61757752 63321568 64982580 66755904 
980.625 68661328 70720064 72953312 75379336 78010104 80850776 83896008 
984.000 87129192 90514552 93990792 97472744 100841504 103952160 106658456 
987.375 108815584 110310992 111083680 111128960 110504072 109316392 
990.268 107722696 105901048 104031136 102291176 100824664 99736368 99091896 
993.643 98912896 99187976 99881008 100946256 102333904 103996576 105896056 
997.017 107997072 110267256 112677848 115198512 117798000 120444880 
999.910 123099056 125709368 128212672 130525216 132553624 134206248 
1002.803 135399424 136077600 136221504 135852576 135030144 133848592 
1005.695 132434936 130926368 129470248 128212720 127273752 126752440 
1008.588 126716184 127198424 128207816 129733488 131755280 134247376 
1011.481 137183344 140537200 144278368 148372704 152784144 157472656 
1014.374 162399936 167527200 172804448 178164336 183508880 188693968 
1017.266 193547744 197875248 201482080 204221552 206009456 206852464 
1020.159 206846528 206180368 205116624 203939392 202955536 202441856 
1023.052 202605888 203592592 205461552 208197536 211721632 215913120 
1025.945 220630528 225708352 230979072 236270368 241394272 246172272 
1028.838 250439552 254059680 256952112 259093728 260519712 261305392 
1031.731 261556384 261392448 260925648 260265088 259499008 258680336 
1034.624 257818224 256864464 255719952 254234608 252241584 249590352 
1037.517 246159264 241886704 236770576 230863200 224259488 217087952 
1040.410 209508480 201689744 193809712 186042912 178531328 171389600 
1043.303 164695744 158488048 152781984 147575408 142857616 138616256 
1046.196 134838112 131510184 128619536 126154376 124105616 122467792 
1049.089 121237968 120412480 119981656 119925488 120211240 120792448 
1051.982 121617784 122635632 123797376 125064088 126398592 127758472 
1054.875 129091752 130326880 131373584 132137480 132520528 132439520 
1057.768 131841272 130704832 129051656 126943272 124486536 121821080 
1060.661 119103144 116506256 114189616 112287448 110909504 110124832 
1063.554 109967864 110441848 111522512 113161160 115284624 117805480 
1066.448 120615352 123591832 126616256 129570304 132350760 134880096 
1069.341 137096928 138958112 140433168 141497376 142132752 142329808 
1072.234 142090160 141428544 140374112 138973264 137286272 135390352 
1075.127 133384240 131375504 129481272 127819984 126489160 125566304 
1078.020 125100416 125108464 125581576 126485616 127769816 129359272 
1080.913 131157432 133054000 134917392 136617504 138048912 139141712 
1083.806 139887136 140337760 140608656 140850192 141226864 141906128 
1086.699 143023472 144677856 146922400 149753968 153108384 156851008 
1089.592 160796336 164698320 168276528 171268624 173435888 174608640 
1092.485 174708816 173745760 171812384 169057792 165679088 161883392 
1095.378 157860432 153780272 149763664 145881488 142161264 138590592 
1098.271 135131760 131730944 128334344 124892792 121368000 117739776 
1101.164 114008120 110197168 106352616 102542848 98851568 95361072 92153016 
1104.540 89295248 86834080 84801256 83212024 82069096 81367936 81098832 
1107.915 81248024 81796048 82717928 83981312 85542896 87352088 89347096 
1111.290 91451496 93581400 95637792 97510232 99093472 100286544 101008840 
1114.665 101213760 100886768 100047976 98742872 97039504 95016856 92754984 
1118.041 90337416 87839160 85322608 82840168 80428728 78113456 75912424 
1121.416 73838528 71903304 70117528 68489168 67021704 65712580 64553984 
1124.791 63536032 62651528 61901284 61297372 60862756 60625304 60614332 
1128.166 60850904 61342324 62079912 63038716 64181776 65458784 66813016 
1131.542 68182648 69497504 70690120 71699680 72478688 73005792 73289032 
1134.917 73368264 73305072 73177328 73066360 73038488 73142192 73398168 
1138.292 73797288 74301464 74847600 75360376 75752432 75940792 75858360 
1141.667 75452840 74696504 73583120 72125056 70349472 68294464 66009604 
1145.042 63549452 60972968 58342704 55714332 53138204 50655972 48296040 
1148.418 46077240 44009436 42095976 40336572 38729500 37273000 35964784 
1151.793 34802700 33783480 32903482 32158758 31546268 31064028 30711110 
1155.168 30487022 30391064 30422302 30579302 30861528 31270220 31808622 
1158.543 32481932 33294994 34251472 35352296 36595040 37973356 39477024 
1161.919 41091784 42796040 44559728 46346276 48108148 49793132 51349552 
1165.294 52725552 53876380 54767112 55370924 55673724 55673688 55381988 
1168.669 54821092 54022884 53026856 51872112 50598676 49244228 47841572 
1172.044 46421784 45014232 43644492 42337132 41113676 39990500 38980212 
1175.420 38090608 37325208 36685164 36170036 35779088 35510984 35364012 
1178.795 35336084 35424116 35625236 35937212 36359032 36890944 37533276 
1182.170 38286232 39148968 40120396 41200696 42392324 43701536 45137556 
1185.545 46710108 48427896 50294328 52305292 54445820 56688424 58993180 
1188.921 61302108 63544048 65640116 67504720 69065016 70269376 71095264 
1192.296 71554352 71689168 71566352 71258312 70837144 70363848 69877720 
1195.671 69400184 68934200 68470424 67992304 67481344 66922544 66303440 
1199.046 65615260 64850800 64001320 63056564 62005532 60839200 59555316 
1202.422 58162044 56681064 55144916 53593720 52071952 50617812 49261968 
1205.797 48024652 46914084 45929528 45063812 44307392 43649144 43078232 
1209.172 42585512 42161508 41797964 41488892 41230392 41022184 40867336 
1212.547 40771932 40743436 40789732 40918736 41136804 41449196 41859548 
1215.923 42369200 42976892 43678052 44465788 45331560 46266952 47265460 
1219.298 48322628 49435584 50602248 51820700 53088780 54406384 55776868 
1222.673 57209024 58716424 60317620 62032016 63876248 65862440 67994864 
1226.048 70268672 72667632 75164136 77715696 80261368 82729032 85032432 
1229.424 87076992 88775728 90047824 90830016 91085600 90806656 90022184 
1232.799 88796336 87235456 85476808 83670536 81981736 80564448 79548944 
1236.174 79049600 79150776 79912776 81379640 83576896 86514904 90183560 
1239.549 94549928 99548352 105071464 110981200 117095680 123194448 129047560 
1242.925 134400416 139002880 142644672 145159056 146457680 146538512 
1245.818 145486032 143455344 140642864 137285968 133623776 129879800 
1248.711 126262144 122923872 119954312 117368544 115102544 113023896 
1251.604 110948688 108693768 106097032 103055928 99549896 95636552 91440696 
1254.979 87116592 82836160 78753184 74978080 71581864 68585536 65969148 
1258.354 63680224 61647260 59792944 58037580 56315084 54576436 52789940 
1261.729 50945148 49047540 47115200 45172408 43246648 41365804 39553160 
1265.105 37829960 36213684 34716300 33346050 32105490 30992140 29999176 
1268.480 29117166 28336564 27648706 27047122 26526528 26081704 25706442 
1271.855 25393470 25134504 24922572 24752274 24619492 24521070 24452710 
1275.230 24408476 24380998 24362774 24347774 24333478 24320336 24311400 
1278.606 24310068 24319564 24341958 24377878 24427544 24489378 24560056 
1281.981 24631834 24692716 24727194 24718846 24655330 24532498 24357376 
1285.356 24146734 23924992 23720752 23559458 23462782 23447220 23523326 
1288.731 23699336 23981116 24372376 24874430 25484710 26196316 26996946 
1292.107 27868756 28789546 29728722 30649770 31512740 32273774 32895152 
1295.482 33350952 33630580 33742548 33711176 33573804 33370130 33138904 
1298.857 32914310 32720630 32575886 32491144 32470826 32512568 32606676 
1302.232 32738242 32886076 33027668 33143162 33215154 33231646 33185076 
1305.608 33070962 32887790 32637392 32326452 31966872 31575664 31174266 
1308.983 30783342 30420738 30099876 29828152 29609556 29446876 29342924 
1312.358 29301344 29324986 29414256 29566174 29775204 30034930 30340536 
1315.733 30689774 31083320 31522468 32007356 32535888 33103682 33706704 
1319.109 34342112 35009740 35710408 36443380 37202280 37974332 38738232 
1322.484 39466248 40129664 40701148 41160772 41501324 41731612 41879108 
1325.859 41986028 42109156 42308716 42634304 43119580 43768452 44555140 
1329.234 45424548 46306352 47130192 47834504 48383852 48769416 49009816 
1332.610 49142332 49217288 49290844 49413456 49630184 49975660 50469736 
1335.985 51118472 51912624 52832036 53846596 54922604 56027932 57131504 
1339.360 58206560 59231220 60187324 61062124 61847640 62538096 63127792 
1342.735 63606688 63955864 64149900 64156696 63942388 63480496 62754736 
1346.111 61762752 60515560 59036220 57357752 55518536 53565232 51550752 
1349.486 49530644 47567948 45726860 44066312 42641908 41495456 40652392 
1352.861 40123668 39905820 39984868 40336460 40928388 41717240 42644028 
1356.236 43641668 44634120 45543240 46304032 46864696 47193316 47280236 
1359.612 47136248 46792172 46293820 45706540 45110056 44588256 44228252 
1362.987 44100236 44245312 44673704 45365104 46280476 47368248 48575756 
1366.362 49848504 51124284 52338184 53419444 54295760 54908016 55213468 
1369.737 55193148 54852672 54220336 53344400 52284364 51116048 49925252 
1373.113 48797216 47818228 47057444 46554800 46319364 46329984 46550300 
1376.488 46939812 47469364 48125284 48910012 49838656 50935984 52234212 
1379.863 53767052 55565940 57648964 60004336 62570504 65219888 67775752 
1383.238 70010416 71686976 72607280 72619072 71654848 69744336 67037440 
1386.614 63793348 60333460 57002800 54068064 51678148 49867348 48579424 
1389.989 47713040 47153088 46800624 46573908 46407920 46255152 46076728 
1393.364 45843428 45540040 45166524 44738600 44280864 43818880 43370240 
1396.739 42941192 42530800 42136428 41759880 41411360 41107812 40866972 
1400.115 40702788 40619752 40614440 40678700 40804944 40989304 41233236 
1403.490 41542744 41927016 42394188 42947884 43586204 44301228 45082080 
1406.865 45917192 46796860 47714556 48664956 49642924 50642232 51654412 
1410.240 52670300 53682384 54684616 55672220 56638744 57571972 58454364 
1413.615 59264604 59981816 60595096 61105376 61527444 61882940 62195864 
1416.991 62487588 62773876 63070396 63396364 63774696 64230180 64777792 
1420.366 65414296 66119320 66861204 67608664 68336456 69035072 69711840 
1423.741 70389368 71096400 71857320 72684912 73577856 74525584 75515208 
1427.116 76537448 77584872 78647528 79708976 80740784 81705096 82565304 
1430.492 83293576 83881984 84344856 84717600 85046704 85378752 85758688 
1433.867 86225544 86817936 87584312 88584232 89883688 91540712 93574456 
1437.242 95956464 98617984 101469296 104412032 107333064 110108056 112577400 
1440.617 114556320 115875848 116391584 116022976 114764200 112673552 
1443.510 109857592 106441432 102566808 98365544 93948344 89417680 84866224 
1446.886 80395240 76135840 72234296 68829792 66024692 63854328 62296324 
1450.261 61291040 60775092 60696436 61016900 61705728 62722460 64010344 
1453.636 65509564 67155152 68893704 70691216 72521088 74361704 76184640 
1457.011 77958560 79650984 81237712 82712280 84076760 85339072 86511064 
1460.387 87608672 88649120 89646160 90605480 91514776 92340432 93036656 
1463.762 93555920 93873192 94001984 93996224 93927320 93851600 93796000 
1467.137 93752168 93690704 93571784 93356512 93005704 92467216 91668408 
1470.512 90513280 88894152 86737896 84053440 80967216 77689184 74442640 
1473.888 71386160 68580928 66020904 63679272 61547948 59655616 58058368 
1477.263 56807704 55935696 55441352 55301332 55488564 55990308 56814392 
1480.638 57985248 59529092 61458464 63764872 66422260 69399912 72672648 
1484.013 76232384 80080800 84214304 88609656 93196616 97838592 102345520 
1487.389 106460608 109885968 112330184 113525072 113292408 111598472 
1490.282 108582624 104541168 99840432 94847272 89832136 84942616 80239208 
1493.657 75712984 71334376 67097104 63031316 59212804 55745412 52722520 
1497.032 50195976 48161344 46576820 45382536 44523604 43962212 43673872 
1500.407 43641264 43848640 44276792 44902148 45699512 46635696 47669256 
1503.783 48747320 49783844 50657500 51207784 51246260 50625220 49309552 
1507.158 47409416 45122628 42639056 40081152 37502244 34923156 32364220 
1510.533 29854630 27445144 25194966 23149988 21339922 19768878 18420820 
1513.908 17270448 16290270 15454936 14739756 14122198 13584142 13114259 
1517.284 12711409 12382328 12134410 11968099 11871958 11821939 11789491 
1520.659 11751158 11701867 11659082 11654623 11714801 11845944 12035679 
1524.034 12260771 12500337 12743209 12992941 13264510 13577269 13943730 
1527.409 14364301 14829264 15325788 15845528 16387532 16958530 17568408 
1530.785 18225164 18931886 19685974 20479474 21302578 22144856 22997396 
1534.160 23851580 24699906 25533586 26343558 27117866 27843848 28510786 
1537.535 29106430 29619842 30040184 30355636 30552498 30619548 30557048 
1540.910 30380262 30117880 29802636 29456556 29085420 28678708 28218486 
1544.286 27691754 27102066 26472430 25838398 25231870 24666342 24134544 
1547.661 23613124 23076184 22508082 21914408 21319840 20760284 20263380 
1551.036 19837164 19469580 19138214 18822496 18514096 18220120 17958764 
1554.411 17748476 17596182 17492302 17412072 17322892 17185604 16957360 
1557.787 16599124 16088627 15443193 14729027 14035847 13432686 12945352 
1561.162 12564112 12261385 12005328 11766410 11522008 11261116 10985733 
1564.537 10710796 10456806 10242518 10074521 9946320 9841137 9740417 9629828 
1568.395 9504231 9368884 9236830 9122242 9033800 8973958 8940742 8931305 
1572.252 8943448 8975176 9022399 9076699 9125694 9156419 9160886 9143120 
1576.109 9120990 9121159 9164913 9261234 9407043 9594157 9815887 10071401 
1579.967 10366191 10709167 11108156 11566821 12082078 12644918 13243399 
1583.342 13861177 14478397 15071521 15610533 16063871 16404150 16612584 
1586.717 16686194 16640265 16509732 16342837 16196195 16129650 16193168 
1590.093 16425863 16850602 17470468 18265178 19186554 20163650 21099814 
1593.468 21884892 22418580 22615086 22426186 21849106 20928224 19745022 
1596.843 18397140 16988368 15604934 14308857 13142945 12128789 11273629 
1600.218 10573852 10018706 9593107 9281239 9072063 8959717 8944023 9028116 
1604.076 9213985 9499049 9874930 10325574 10827843 11353107 11863514 
1607.451 12315035 12662350 12859985 12872784 12682205 12288993 11716436 
1610.826 11006191 10216329 9405553 8625286 7912483 7282919 6736471 6262203 
1614.684 5844801 5469271 5124540 4806951 4519257 4269162 4065731 3914717 
1618.541 3817067 3767899 3757872 3774149 3803228 3832176 3852367 3861660 
1622.398 3864335 3869282 3884761 3915653 3961025 4016168 4076635 4140221 
1626.256 4206627 4277360 4352422 4430308 4507874 4583344 4657487 4734691 
1630.113 4821190 4922216 5039523 5169603 5304686 5434980 5551183 5645666 
1633.971 5714048 5755412 5772335 5770085 5756655 5741881 5734092 5739229 
1637.828 5758837 5790333 5827439 5861861 5886278 5896488 5893600 5883759 
1641.686 5875329 5875128 5884867 5900048 5911502 5908479 5881543 5826163 
1645.543 5744735 5646673 5545411 5454541 5385562 5345240 5336719 5359798 
1649.400 5412065 5487155 5573804 5655736 5709180 5707804 5634085 5496551 
1653.258 5335277 5199681 5121020 5099194 5115689 5148647 5182245 5208702 
1657.115 5226307 5236938 5242639 5243880 5237911 5220338 5186905 5134933 
1660.973 5064530 4977883 4878486 4770502 4658391 4547081 4442158 4348707 
1664.830 4269798 4205390 4151628 4101352 4045129 3974166 3882621 3769403 
1668.688 3639408 3501368 3364974 3237804 3124253 3026380 2944675 2878395 
1672.545 2824664 2777610 2727493 2662579 2573710 2459066 2328396 2198365 
1676.402 2087050 2003657 1947239 1908599 1875820 1839815 1797392 1752611 
1680.260 1713722 1688508 1678496 1676567 1666588 1628406 1544536 1410850 
1684.117 1242712 1071251 926255 821241 752595 707424 673042 639991 604221 
1688.457 564838 522672 478619 433344 388604 347814 315716 297015 293268 
1692.796 301392 312234 312466 288196 229944 139980 34858 -61492 -130462 
1697.136 -166400 -178357 -183490 -202534 -253302 -343927 -466475 -598187 
1700.993 -713088 -794886 -842278 -864103 -872403 -878356 -889731 -911884 
1704.851 -946435 -991397 -1040619 -1087455 -1125164 -1149884 -1161351 
1708.226 -1162078 -1156229 -1147868 -1139044 -1129395 -1115944 -1095618 
1711.601 -1065673 -1026239 -979761 -929772 -879281 -830306 -782748 -736772 
1715.459 -693537 -658304 -637759 -638950 -663730 -705910 -752616 -790785 
1719.316 -811423 -812878 -799285 -777787 -755461 -737235 -724633 -717024 
1723.174 -712823 -710772 -710905 -713816 -719770 -727610 -735350 -740477 
1727.031 -742561 -743057 -745968 -754998 -772065 -795415 -819856 -839798 
1730.888 -852199 -859606 -871213 -901667 -964850 -1068648 -1205696 -1354822 
1734.746 -1487454 -1583501 -1638234 -1659260 -1660250 -1653649 -1649622 
1738.121 -1653385 -1666291 -1685665 -1707482 -1726722 -1739362 -1743223 
1741.496 -1737613 -1722861 -1700485 -1672628 -1641997 -1610538 -1578747 
1744.872 -1545732 -1509049 -1466650 -1417477 -1362585 -1305009 -1248351 
1748.247 -1195849 -1148892 -1107946 -1072284 -1041842 -1017480 -1000224 
1751.622 -989744 -984091 -979595 -973049 -962966 -951461 -943757 -946336 
1755.479 -965413 -1003166 -1056683 -1117563 -1176155 -1225322 -1262855 
1758.855 -1291795 -1318322 -1349703 -1390494 -1442147 -1502148 -1565871 
1762.230 -1627770 -1683619 -1731013 -1768865 -1796748 -1814962 -1824960 
1765.605 -1828919 -1829744 -1831097 -1834594 -1839478 -1841919 -1837267 
1768.980 -1822386 -1797507 -1767611 -1739890 -1722399 -1719759 -1731409 
1772.356 -1750253 -1766522 -1772825 -1766159 -1748735 -1725072 -1698999 
1775.731 -1671638 -1641832 -1607072 -1565673 -1518955 -1471075 -1427187 
1779.106 -1392443 -1369653 -1358026 -1354162 -1353435 -1352609 -1350033 
1782.481 -1346664 -1343559 -1342072 -1342072 -1342700 -1342601 -1341313 
1785.857 -1338736 -1334970 -1329652 -1321427 -1308213 -1289053 -1264705 
1789.232 -1238373 -1215674 -1203217 -1206687 -1228362 -1266654 -1315613 
1792.607 -1368233 -1418237 -1462225 -1500200 -1533813 -1564980 -1595716 
1795.982 -1626746 -1659260 -1694412 -1732927 -1775399 -1820836 -1866598 
1799.358 -1909683 -1947058 -1977272 -2001118 -2021269 -2040694 -2060745 
1802.733 -2081421 -2100382 -2115055 -2124024 -2127156 -2125837 -2122012 
1806.108 -2117132 -2110768 -2101767 -2088742 -2071298 -2050951 -2030570 
1809.483 -2012728 -1998875 -1988453 -1979119 -1967904 -1952896 -1934193 
1812.859 -1913246 -1892166 -1872371 -1853302 -1833242 -1810376 -1783186 
1816.234 -1752200 -1719099 -1686259 -1655365 -1626515 -1599182 -1572309 
1819.609 -1545897 -1520474 -1497657 -1478670 -1463976 -1452682 -1444162 
1822.984 -1437854 -1435080 -1437755 -1447398 -1463778 -1483723 -1502610 
1826.360 -1515719 -1520738 -1519087 -1515158 -1514992 -1523049 -1540020 
1829.735 -1562041 -1582114 -1592876 -1590665 -1575709 -1552566 -1525822 
1833.110 -1499011 -1472792 -1445384 -1413778 -1375631 -1330511 -1279935 
1836.485 -1226148 -1170736 -1113432 -1052022 -983728 -906296 -818632 -721523 
1840.343 -616418 -505463 -390077 -272541 -155437 -41945 64748 162917 254179 
1844.682 343470 437258 540487 654724 776958 900688 1017810 1121941 1208886 
1849.022 1277936 1330645 1369067 1393963 1404301 1397720 1372557 1328817 
1852.879 1269063 1197523 1118121 1033287 943256 846404 741310 628045 508540 
1857.219 386514 265418 147173 31975 -81237 -192764 -301779 -405305 -499473 
1861.559 -581510 -650761 -709151 -760422 -807090 -850049 -887383 -916117 
1865.416 -933739 -940154 -937707 -931656 -927028 -927028 -932384 -940749 
1869.273 -949080 -954469 -955759 -953015 -947064 -937971 -925771 -910529 
1873.131 -893235 -875975 -862351 -854844 -854547 -860433 -869923 -880207 
1876.988 -890789 -902990 -920250 -946303 -982670 -1028223 -1079192 -1130584 
1880.846 -1178865 -1222580 -1263152 -1303126 -1344285 -1386498 -1427286 
1884.221 -1463315 -1491978 -1512780 -1527539 -1538930 -1549727 -1560655 
1887.596 -1571022 -1579275 -1584986 -1588420 -1591292 -1595022 -1598786 
1890.971 -1599908 -1594527 -1579473 -1553986 -1521035 -1485704 -1453243 
1894.347 -1426989 -1406645 -1388678 -1368299 -1342039 -1309138 -1271676 
1897.722 -1233021 -1195254 -1158707 -1121529 -1081109 -1036255 -987728 
1901.097 -938500 -891483 -848859 -810761 -775174 -740808 -707001 -675475 
1904.955 -648776 -628925 -615591 -605996 -595838 -582205 -565031 -547956 
1908.812 -537697 -539683 -556560 -586176 -623300 -660786 -694000 -721457 
1912.669 -744579 -766078 -787246 -808182 -826470 -841087 -852761 -865525 
1916.527 -884870 -915455 -958172 -1009050 -1060187 -1104509 -1137954 
1919.902 -1162474 -1183458 -1207612 -1239199 -1278085 -1319676 -1358291 
1923.277 -1389239 -1411797 -1428739 -1444063 -1460772 -1479199 -1496204 
1926.653 -1508752 -1515521 -1518096 -1520672 -1527011 -1538567 -1552863 
1930.028 -1564815 -1569569 -1565310 -1554976 -1545170 -1543057 -1552335 
1933.403 -1571319 -1593966 -1612948 -1622554 -1622026 -1614664 -1605487 
1936.778 -1597993 -1591226 -1580530 -1560028 -1526549 -1481345 -1430126 
1940.154 -1381081 -1341610 -1314523 -1298865 -1289945 -1283503 -1277160 
1943.529 -1270883 -1266258 -1264242 -1263350 -1260873 -1253604 -1240289 
1946.904 -1222514 -1203680 -1186696 -1172454 -1157980 -1138846 -1111152 
1950.279 -1073970 -1030272 -985281 -943559 -906726 -872040 -834473 -790653 
1954.137 -741370 -692413 -652713 -630215 -628726 -645368 -672365 -700220 
1957.994 -721424 -734027 -739452 -741271 -741965 -740113 -732538 -716230 
1961.852 -690759 -660223 -631406 -608941 -594812 -585712 -575124 -557288 
1965.709 -530814 -498281 -465648 -438175 -416527 -396168 -371141 -336279 
1969.566 -292408 -245851 -205382 -178688 -168023 -167957 -169712 -164379 
1973.424 -147620 -120524 -87266 -51288 -10138 43208 117940 219900 344399 
1977.763 476297 593836 676195 710676 695111 636706 549245 446644 340221 
1982.103 238464 147239 71674 16865 -14545 -23292 -15274 99 12789 15440 8416 
1987.407 -3379 -10105 -4307 16799 48974 84798 115321 135804 147338 155592 
1992.229 167524 188175 218607 256500 297048 337501 376532 414140 450458 
1996.568 483628 510464 527914 534847 534184 531198 531961 539890 554222 
2000.908 569483 578275 575024 558734 533222 506284 485021 474440 475302 
2005.248 486282 504825 530534 563710 604653 651904 699658 739385 763880 
2009.587 769191 757375 735170 712137 695443 687545 686881 689270 691859 
2013.927 695078 702280 718907 748347 790568 843085 901086 961021 1022692 
2018.266 1086564 1152039 1216462 1272985 1313961 1335065 1337525 1328351 
2022.124 1319212 1320807 1336960 1364945 1394063 1412944 1413975 1395526 
2025.981 1362187 1323067 1284948 1250720 1219552 1189150 1159049 1132605 
2029.839 1115763 1114068 1129250 1158152 1193004 1225333 1251252 1272253 
2033.696 1294286 1323998 1363981 1411382 1459220 1499349 1526746 1542973 
2037.553 1553281 1564488 1580549 1601002 1620889 1634027 1636421 1627508 
2041.411 1610746 1590859 1570407 1549956 1526846 1498750 1466567 1434386 
2045.268 1408955 1396656 1400213 1417365 1441500 1464107 1478702 1480796 
2049.126 1468728 1441633 1398185 1336594 1256569 1160378 1056304 954712 
2052.983 868449 807199 773838 763914 767266 771880 768826 754255 730922 
2057.323 704005 678418 656616 638365 621940 607141 594964 589058 593106 
2061.662 608170 632956 663253 694282 724184 752960 782966 815763 851252 
2066.002 885049 911479 924528 921407 903311 875753 844014 812942 784261 
2070.342 756877 729494 701749 675199 653696 639925 634449 634317 633686 
2074.681 626486 608535 579304 541681 500446 460310 423792 392252 365423 
2079.021 343735 327985 319927 319794 325597 334152 340652 341481 335578 
2083.360 324536 311770 299834 289489 278514 262534 237868 202661 158542 
2087.700 109488 60175 14148 -27400 -65335 -101312 -136192 -169315 -198659 
2092.040 -222504 -239691 -250553 -255951 -255785 -249361 -234360 -209356 
2095.897 -175044 -135563 -97204 -67256 -49797 -45126 -48571 -53077 -52911 
2100.237 -45722 -32967 -19813 -11497 -10669 -16003 -23822 -28726 -27169 
2104.576 -18389 -3512 14811 35057 57557 83837 114625 149659 185988 219502 
2109.398 247548 269330 287201 305072 326691 352954 381971 409265 430292 
2113.738 442863 447904 448402 449297 454339 464588 480145 499351 520980 
2118.077 544965 571407 600306 630633 660167 686549 708685 727238 744795 
2122.417 764345 787713 813439 837640 855003 861245 854837 837441 812610 
2126.756 784460 755184 724251 689602 649282 602197 549477 493613 437291 
2131.096 382568 330173 280835 237039 202562 182441 180584 196595 224541 
2135.436 254544 276392 282659 273475 254941 237702 230972 239426 261373 
2139.775 290550 319065 342144 359487 374675 392451 415268 440873 465119 
2144.115 482268 489466 487874 481372 475568 474042 477160 483164 489931 
2148.454 496532 504427 515739 531364 548349 561919 566431 558136 539060 
2152.794 514876 492982 479813 476397 479614 486315 496797 520284 572602 
2157.134 673739 836312 1059160 1322003 1591125 1830565 2012312 2123674 
2160.991 2169593 2166396 2132731 2086584 2039742 1996434 1959021 1926172 
2164.848 1896253 1868199 1839249 1807340 1770276 1727827 1681722 1635457 
2168.706 1593053 1556474 1525383 1497354 1468628 1437345 1404334 1372657 
2172.563 1347030 1331210 1325925 1329282 1337990 1348393 1357866 1365477 
2176.421 1370762 1372490 1368668 1358032 1341347 1322336 1308078 1306549 
2180.278 1322901 1356436 1400412 1443528 1473715 1483556 1472019 1444957 
2184.135 1411415 1380501 1357866 1345501 1341746 1344770 1353578 1368302 
2187.993 1389642 1417365 1448448 1479400 1506530 1529207 1549956 1572934 
2191.850 1602099 1638516 1678330 1714587 1739703 1749284 1742631 1724334 
2195.708 1701281 1680126 1665624 1658606 1657442 1660069 1664526 1669715 
2199.565 1675502 1680226 1681556 1677465 1666821 1651255 1635324 1625346 
2203.423 1626211 1640811 1667021 1699851 1733549 1763323 1786978 1805776 
2207.280 1821747 1835989 1849465 1861078 1869763 1876019 1880412 1884272 
2211.137 1887068 1886668 1878183 1857484 1822812 1776897 1726995 1683785 
2214.995 1655313 1646166 1654481 1674006 1695959 1712990 1722138 1724567 
2218.852 1724267 1724899 1728592 1734879 1741200 1744926 1744227 1738738 
2222.710 1729257 1715385 1696857 1673008 1643639 1610746 1577690 1548626 
2226.567 1526514 1511385 1500878 1490139 1474745 1452870 1425277 1395359 
2230.425 1367073 1343175 1324230 1308876 1295649 1283851 1275178 1272121 
2234.282 1277039 1289866 1308577 1328883 1346565 1359228 1367106 1372657 
2238.139 1379205 1388213 1399847 1412412 1423848 1433089 1440935 1449146 
2241.997 1459718 1473249 1489075 1504935 1519232 1531069 1541344 1551619 
2245.854 1562725 1573233 1581148 1582445 1575162 1559466 1538717 1517403 
2249.712 1500280 1489408 1484487 1482957 1482459 1481661 1482459 1487878 
2253.569 1500546 1521726 1549058 1577390 1601600 1616799 1621089 1615602 
2257.427 1602798 1585804 1566948 1547196 1527611 1508858 1492699 1480663 
2261.284 1473848 1472052 1473382 1475244 1475543 1473715 1471255 1471188 
2265.141 1476142 1487546 1504669 1524918 1544735 1561595 1573965 1582212 
2268.999 1586868 1588963 1588664 1585937 1580682 1573599 1566649 1561495 
2272.856 1560198 1563424 1571072 1582245 1596379 1613506 1634027 1658306 
2276.714 1685581 1714155 1740734 1762192 1776298 1783252 1785281 1785747 
2280.571 1787843 1794165 1805078 1819951 1837453 1856719 1877184 1898715 
2284.428 1920514 1941182 1958788 1971337 1977860 1979225 1977860 1976995 
2288.286 1979625 1987414 2000329 2017605 2038178 2061481 2087749 2117748 
2292.143 2151744 2189806 2230603 2272002 2312573 2351216 2388029 2423746 
2296.001 2458799 2493189 2526249 2557111 2584709 2609275 2631276 2651511 
2299.858 2670714 2688683 2704520 2717490 2726892 2733328 2738196 2743431 
2303.716 2750700 2760970 2773708 2788047 2802887 2817727 2832402 2847343 
2307.573 2862919 2878595 2894072 2908281 2920423 2930598 2939571 2947944 
2311.430 2956485 2965926 2976067 2987077 2999221 3013268 3030151 3050304 
2315.288 3073829 3099557 3126222 3152454 3178087 3203488 3229892 3258401 
2319.145 3289549 3323003 3357628 3392289 3426152 3458615 3488742 3514461 
2323.003 3532466 3538245 3527923 3499363 3453805 3396163 3333453 3273624 
2326.860 3223516 3186465 3162767 3149717 3143410 3140306 3138937 3139004 
2330.718 3142008 3149384 3161900 3179523 3201152 3225920 3252792 3281002 
2334.575 3310082 3338963 3367211 3394393 3420608 3446992 3474780 3505109 
2338.432 3538312 3573222 3607733 3639842 3668311 3692905 3714727 3734645 
2342.290 3752759 3767297 3775252 3772277 3756368 3727693 3689964 3650501 
2346.147 3618525 3602688 3609838 3644052 3706071 3794571 3905857 4035263 
2350.005 4176885 4323741 4469776 4609129 4737974 4854562 4959315 5054172 
2353.862 5141069 5221948 5298548 5372680 5446421 5522491 5602903 5688668 
2357.719 5779185 5872239 5964843 6054477 6140331 6223110 6303922 6383907 
2361.577 6462159 6536859 6604440 6662846 6711031 6750167 6782711 6810881 
2365.434 6835520 6855682 6868945 6872985 6865815 6847503 6818556 6780018 
2369.292 6732735 6677113 6613726 6544259 6472080 6401662 6338146 6286003 
2373.149 6247245 6222303 6210203 6209968 6221396 6246001 6285768 6342820 
2377.007 6417903 6510220 6617292 6736336 6865310 7002638 7148432 7302799 
2380.864 7465379 7635100 7809409 7985205 8159317 8328837 8491159 8643808 
2384.721 8784270 8909220 9016140 9102515 9167180 9210804 9234935 9242110 
2388.579 9234698 9214255 9181935 9138281 9083500 9018001 8942772 8858390 
2392.436 8765371 8664461 8556241 8442609 8326203 8211246 8102161 8003532 
2396.294 7918354 7848172 7792947 7751557 7722684 7705719 7700593 7707810 
2400.151 7728047 7761811 7809241 7870238 7945046 8033840 8136832 8254132 
2404.009 8384943 8527990 8681835 8844830 9016445 9196555 9385847 9585418 
2407.866 9795484 10016061 10246725 10486743 10735759 10993243 11258871 
2411.241 11531024 11807025 12083032 12353657 12613467 12857562 13080929 
2414.616 13280122 13452166 13594774 13706547 13787326 13838292 13862100 
2417.992 13862203 13843081 13808260 13760034 13699948 13628449 13545478 
2421.367 13451756 13348453 13237591 13121601 13003388 12885924 12772007 
2424.742 12664568 12566943 12482264 12413659 12363645 12333817 12325090 
2428.117 12337771 12371793 12427161 12503781 12601392 12719598 12857596 
2431.493 13014177 13188883 13380914 13590364 13817290 14061309 14321800 
2434.868 14597526 14887039 15189852 15506131 15836662 16183401 16547697 
2438.243 16930280 17331270 17750236 18187052 18643192 19120484 19621560 
2441.618 20148898 20703566 21285216 21892244 22522878 23175432 23849200 
2444.994 24543860 25258700 25992376 26741674 27502856 28271068 29042306 
2448.369 29812820 30580084 31342048 32096676 32842044 33576164 34297220 
2451.744 35003348 35692460 36361592 37006132 37620128 38196208 38726532 
2455.119 39203760 39621544 39974004 40255788 40461372 40584100 40618440 
2458.495 40558960 40402240 40147180 39794976 39348696 38811740 38188568 
2461.870 37483676 36702076 35850228 34935832 33967716 32956098 31910990 
2465.245 30842246 29760124 28674036 27593728 26530014 25493176 24494006 
2468.620 23542424 22646050 21810362 21038250 20330180 19684344 19097772 
2471.996 18566382 18085002 17647700 17248866 16882224 16543325 16228870 
2475.371 15936846 15666967 15418852 15191567 14982923 14789736 14608217 
2478.746 14435030 14267389 14103989 13944517 13789310 13638536 13492872 
2482.121 13352861 13219077 13093018 12976179 12869882 12774566 12690324 
2485.497 12615957 12550435 12492562 12441857 12398010 12360884 12329760 
2488.872 12303786 12281801 12263055 12247751 12236846 12232450 12235994 
2492.247 12248877 12270690 12300138 12335658 12375509 12418604 12464873 
2495.622 12514046 12565851 12619334 12673096 12725705 12775897 12823024 
2498.998 12867596 12909750 12949892 12987752 13022985 13055115 13084276 
2502.373 13111356 13137549 13164120 13192025 13221229 13251187 13281147 
2505.748 13310631 13339535 13368374 13397248 13425885 13453123 13477149 
2509.123 13496120 13507980 13511877 13507023 13493009 13469392 13435591 
2512.499 13391029 13336358 13272264 13201077 13125289 13047023 12967747 
2515.874 12887427 12805824 12722157 12636560 12550435 12465759 12385226 
2519.249 12310501 12242163 12180173 12123405 12070972 12022598 11979407 
2522.624 11942385 11913164 11892322 11879688 11874445 11875227 11880335 
2526.000 11888610 11899236 11911564 11925492 11941125 11959107 11980360 
2529.375 12006486 12037961 12075094 12116761 12161057 12206140 12250273 
2532.750 12293117 12335964 12380521 12428798 12482059 12540476 12603030 
2536.125 12668422 12735429 12803435 12872682 12943509 13016431 13091276 
2539.500 13167501 13244491 13322178 13401280 13482857 13568142 13657957 
2542.876 13752236 13849990 13949376 14048989 14147050 14242359 14333821 
2546.251 14420711 14502103 14577309 14646119 14708975 14766973 14821756 
2549.626 14874660 14927125 14979493 15031764 15083321 15133821 15182955 
2553.001 15230618 15276846 15321430 15363924 15403643 15440069 15472687 
2556.377 15501186 15525361 15545039 15559599 15568117 15569558 15562759 
2559.752 15547133 15522133 15487864 15444670 15393103 15333889 15268437 
2563.127 15198328 15125484 15051557 14978052 14905280 14833276 14762003 
2566.502 14691153 14621719 14555586 14495286 14443387 14401633 14370671 
2569.878 14349609 14336800 14330294 14328581 14330601 14336253 14345568 
2573.253 14358889 14376356 14398208 14424993 14457603 14496896 14543525 
2576.628 14597286 14656982 14720527 14785039 14848258 14908676 14965911 
2580.003 15020411 15073717 15127338 15182852 15241702 15305332 15374807 
2583.379 15451227 15534908 15625371 15721280 15820406 15920382 16019210 
2586.754 16115859 16209848 16301347 16390903 16478723 16564941 16649526 
2590.129 16732404 16813954 16894556 16974586 17054048 17132384 17209012 
2593.504 17283274 17354996 17424868 17494268 17564854 17638280 17715548 
2596.880 17797008 17882246 17971024 18062928 18158066 18256850 18359772 
2600.255 18467594 18580838 18699714 18824850 18956286 19094412 19239196 
2603.630 19390336 19547140 19708788 19874484 20043644 20216028 20391328 
2607.005 20569202 20748954 20929684 21109622 21287580 21462376 21632954 
2610.381 21798516 21958320 22110792 22254492 22387356 22507138 22612364 
2613.756 22701730 22774702 22831274 22871820 22897142 22908390 22906992 
2617.131 22895012 22874300 22846884 22814510 22778438 22739472 22697994 
2620.506 22654810 22610584 22566258 22523366 22483060 22446912 22416104 
2623.882 22391856 22375146 22366946 22367540 22377168 22395484 22421754 
2627.257 22454902 22494890 22541618 22595890 22658790 22731128 22813184 
2630.632 22904338 23003022 23107494 23215904 23326966 23439982 23554808 
2634.007 23671520 23790186 23910882 24033608 24158540 24285750 24415942 
2637.383 24548874 24684756 24823206 24963384 25104804 25246934 25389992 
2640.758 25533938 25678918 25823946 25967508 26107916 26243090 26371900 
2644.133 26494406 26611734 26726134 26839612 26954284 27071278 27190844 
2647.508 27312736 27436954 27563082 27691754 27823678 27959598 28100794 
2650.884 28247870 28401434 28561774 28728902 28902254 29081096 29264516 
2654.259 29451768 29642438 29836458 30034396 30237044 30445118 30658802 
2657.634 30878000 31101864 31329688 31560734 31794470 32030684 32269132 
2661.009 32509356 32750678 32992416 33233720 33474118 33713540 33952236 
2664.385 34190380 34428224 34665516 34902076 35137908 35373324 35609120 
2667.760 35846160 36085668 36328372 36574928 36825296 37079388 37337052 
2671.135 37597872 37861524 38127068 38393648 38659520 38923528 39184032 
2674.510 39440336 39691572 39937496 40177312 40410200 40635692 40853100 
2677.885 41063048 41267228 41468152 41669244 41874000 42085424 42306084 
2681.261 42538112 42783500 43044096 43322168 43619540 43937684 44277636 
2684.636 44639112 45021176 45422636 45842396 46279628 46733500 47203252 
2688.011 47687596 48185000 48693532 49212276 49740408 50278220 50826796 
2691.386 51386768 51958892 52542988 53138656 53744888 54361320 54987920 
2694.762 55625140 56273552 56933100 57603376 58283096 58970368 59663144 
2698.137 60360032 61059916 61762296 62467268 63175192 63886956 64603276 
2701.512 65324396 66050148 66779120 67508632 68234520 68951984 69655440 
2704.887 70339496 70999080 71629256 72225176 72782064 73294712 73758608 
2708.263 74169464 74524376 74821744 75061496 75244088 75370616 75442000 
2711.638 75459072 75422536 75333056 75191520 74998560 74754824 74460528 
2715.013 74115736 73720640 73275608 72781872 72241256 71656496 71030024 
2718.388 70365368 69665672 68935136 68178536 67401696 66611104 65814160 
2721.764 65017408 64227492 63450164 62690036 61951912 61239684 60557684 
2725.139 59909884 59300000 58730800 58204624 57722416 57284288 56890228 
2728.514 56539664 56231916 55966676 55742996 55560064 55416884 55312248 
2731.889 55244772 55213164 55216292 55252788 55321128 55419668 55546208 
2735.265 55698436 55874268 56070980 56286188 56516868 56760164 57012396 
2738.640 57269960 57528580 57784220 58033224 58271804 58496824 58706072 
2742.015 58898076 59072512 59230504 59374488 59507472 59633000 59754124 
2745.390 59873104 59991284 60109500 60228276 60348080 60469892 60594636 
2748.766 60722884 60855096 60991084 61130276 61272688 61418732 61570244 
2752.141 61730020 61901396 62088664 62295328 62524512 62778892 63060360 
2755.516 63370452 63709772 64078428 64475880 64900160 65349044 65819056 
2758.891 66305636 66804356 67309104 67813200 68309704 68790856 69248600 
2762.267 69676016 70066128 70413096 70712384 70960256 71153736 71290992 
2765.642 71371280 71395760 71366400 71287360 71163176 70999776 70803288 
2769.017 70579792 70335448 70076672 69808648 69537400 69267600 69003760 
2772.392 68749824 68508992 68283840 68076016 67886104 67713784 67557632 
2775.768 67415160 67283336 67158592 67037016 66914820 66786700 66647416 
2779.143 66490688 66309536 66097716 65850600 65565392 65242528 64885080 
2782.518 64498900 64090104 63666068 63233720 62798724 62366772 61942436 
2785.893 61528896 61128600 60742544 60369972 60009816 59660636 59321312 
2789.269 58991964 58673336 58367072 58074544 57796784 57534068 57285572 
2792.644 57050368 56827380 56615224 56412568 56217924 56028420 55841600 
2796.019 55653500 55461344 55262308 55054676 54836956 54608712 54368908 
2799.394 54116400 53850052 53568680 53271760 52959212 52631436 52289408 
2802.770 51933124 51562732 51178224 50779568 50367736 49944396 49512708 
2806.145 49076400 48639420 48205840 47779424 47363372 46961220 46575936 
2809.520 46210708 45868212 45550488 45259112 44994200 44755900 44543648 
2812.895 44356968 44195348 44058612 43946080 43857108 43790916 43746868 
2816.271 43724440 43723448 43744448 43787948 43854472 43943952 44056448 
2819.646 44191496 44348928 44529220 44733056 44961272 45214360 45492168 
2823.021 45792980 46114344 46452536 46803908 47164796 47531684 47901392 
2826.396 48270932 48637012 48995500 49341884 49670524 49975772 50251772 
2829.771 50492960 50694956 50855104 50972420 51048400 51086380 51090888 
2833.147 51067036 51020492 50956812 50880772 50797336 50711232 50626224 
2836.522 50546076 50473420 50409968 50357096 50315836 50288120 50276884 
2839.897 50286480 50322080 50389540 50494520 50642384 50838716 51089136 
2843.272 51400980 51783704 52247556 52804160 53463888 54231748 55105948 
2846.648 56074036 57111660 58179548 59227348 60196876 61022808 61646116 
2850.023 62017416 62102312 61888216 61383768 60617876 59632848 58481888 
2853.398 57223616 55912028 54599584 53331212 52140988 51055408 50090360 
2856.773 49251800 48537664 47938724 47441900 47030672 46688412 46399736 
2860.149 46150528 45929416 45727340 45537760 45356864 45183032 45017024 
2863.524 44860964 44718180 44592076 44485648 44401632 44342140 44309412 
2866.899 44305704 44333152 44393296 44486640 44611680 44765524 44942644 
2870.274 45136376 45340092 45546112 45748212 45940944 46120388 46284272 
2873.650 46432588 46567784 46693760 46816864 46944204 47082108 47237088 
2877.025 47413924 47615496 47843604 48098820 48380148 48686268 49015008 
2880.400 49363672 49729260 50108844 50499696 50899660 51306068 51716292 
2883.775 52126528 52532108 52927356 53306412 53664052 53996692 54302820 
2887.151 54583312 54841392 55081944 55310628 55534272 55759804 55993740 
2890.526 56243008 56514828 56816356 57156564 57545568 57995280 58520064 
2893.901 59135308 59856184 60696820 61665860 62764152 63980320 65289928 
2897.276 66651976 68008464 69293408 70433360 71356792 72008728 72352832 
2900.652 72380584 72110464 71586200 70869472 70025552 69123168 68222184 
2904.027 67368728 66599360 65938288 65399424 64990700 64714900 64571208 
2907.402 64557024 64669140 64904584 65261276 65738060 66334240 67047924 
2910.777 67875296 68808944 69836552 70942304 72104792 73297264 74490696 
2914.153 75650232 76738960 77722352 78567008 79247600 79749224 80067968 
2917.528 80210824 80192928 80035336 79759224 79383384 78922984 78386864 
2920.903 77779504 77102032 76354072 75537056 74655776 73719456 72742768 
2924.278 71744968 70746032 69766856 68825560 67935120 67104340 66337756 
2927.654 65635920 64997360 64419492 63898900 63431376 63012012 62634996 
2931.029 62293568 61981340 61691408 61417736 61155608 60900228 60648088 
2934.404 60396628 60143672 59888852 59632584 59376504 59122892 58873712 
2937.779 58630636 58394780 58167196 57948968 57742812 57551960 57381420 
2941.155 57236128 57120620 57037296 56985988 56962452 56958640 56963096 
2944.530 56961204 56936348 56873116 56758200 56583140 56346620 56054316 
2947.905 55719268 55357864 54989012 54630356 54293772 53986188 53707544 
2951.280 53452384 53210408 52969764 52718708 52446592 52146032 51813496 
2954.656 51448608 51054664 50637060 50202636 49757948 49309140 48861064 
2958.031 48417112 47979836 47551056 47132224 46724460 46328580 45945180 
2961.406 45574372 45216640 44872572 44543576 44231848 43940068 43671348 
2964.781 43428276 43213048 43027268 42871920 42747556 42654008 42590480 
2968.156 42555176 42545016 42555540 42581560 42617456 42658576 42701564 
2971.532 42744596 42787632 42832056 42880040 42933696 42994928 43064328 
2974.907 43140108 43217624 43288784 43341900 43361636 43331724 43236692 
2978.282 43063452 42804776 42459912 42035120 41542560 40999316 40425512 
2981.657 39840736 39263600 38709904 38190344 37711048 37273864 36876660 
2985.033 36514840 36184404 35882360 35609048 35368148 35165320 35005756 
2988.408 34891164 34816844 34768992 34726424 34661676 34544164 34348392 
2991.783 34056508 33663016 33176028 32616318 32014132 31401026 30807922 
2995.158 30259176 29768464 29341188 28974222 28659522 28386294 28144382 
2998.534 27925180 27722162 27530920 27348656 27173276 27003786 26839682 
3001.909 26681208 26528920 26383272 26244922 26113898 25990266 25873880 
3005.284 25764838 25663592 25570628 25486888 25412720 25347944 25292380 
3008.659 25245144 25205358 25172246 25145176 25123304 25106174 25093148 
3012.035 25083810 25078088 25076440 25079492 25088128 25102732 25123374 
3015.410 25149706 25181272 25217788 25259576 25307586 25362276 25423928 
3018.785 25491420 25562368 25633432 25700784 25761534 25813502 25856192 
3022.160 25889496 25914010 25930048 25937434 25935958 25926004 25908594 
3025.536 25886470 25863084 25842266 25827848 25822326 25826898 25841034 
3028.911 25863154 25890726 25920338 25949322 25974790 25994734 26008104 
3032.286 26014786 26015772 26012886 26008104 26003528 26001030 26002016 
3035.661 26007644 26018902 26036598 26061296 26093420 26132900 26179352 
3039.037 26232356 26291524 26356726 26428132 26505994 26590282 26680398 
3042.412 26774906 26871688 26968422 27063062 27154052 27240902 27323710 
3045.787 27403532 27481324 27558386 27635888 27714568 27795098 27877482 
3049.162 27960764 28043816 28124654 28201160 28271704 28335148 28391210 
3052.538 28440560 28484180 28523242 28558910 28592138 28623670 28654144 
3055.913 28684654 28715874 28748762 28784378 28822970 28865212 28911392 
3059.288 28961436 29015418 29072702 29132578 29193598 29254308 29313394 
3062.663 29370364 29425530 29479996 29535462 29593806 29656238 29723472 
3066.039 29795538 29871664 29951284 30033580 30117560 30202874 30288768 
3069.414 30374896 30461288 30548730 30638108 30730956 30828374 30931010 
3072.789 31038546 31150238 31264630 31380654 31497598 31615362 31734046 
3076.164 31854186 31975542 32097604 32219884 32341660 32462794 32583530 
3079.540 32704122 32824568 32944624 33063348 33179890 33293314 33403582 
3082.915 33511092 33616656 33721204 33825172 33928696 34032068 34135500 
3086.290 34239960 34347064 34458140 34574696 34696704 34823376 34952712 
3089.665 35082620 35211456 35338280 35463304 35587216 35711096 35836048 
3093.041 35962692 36091396 36222688 36357124 36495380 36637720 36784328 
3096.416 36934700 37087864 37242388 37396744 37549856 37700784 37848980 
3099.791 37994368 38137128 38277764 38417176 38556312 38696324 38838188 
3103.166 38982280 39128376 39276188 39424880 39573704 39722648 39871752 
3106.542 40021200 40171424 40322500 40474208 40626372 40778920 40931700 
3109.917 41084716 41238044 41391352 41544528 41697360 41849880 42002928 
3113.292 42158112 42316676 42479972 42648084 42819880 42993428 43166420 
3116.667 43336736 43503536 43667172 43828812 43990368 44153272 44317996 
3120.042 44484288 44651304 44817760 44982404 45144832 45304856 45463104 
3123.418 45620300 45777444 45935456 46094892 46255632 46417396 46579220 
3126.793 46740252 46900128 47058916 47217288 47376156 47536228 47697140 
3130.168 47857884 48016656 48171892 48322448 48468976 48613480 48758364 
3133.543 48906268 49058704 49215464 49375144 49535620 49694748 49851588 
3136.919 50005924 50158528 50310104 50461400 50612636 50763404 50913480 
3140.294 51063048 51212556 51362676 51514040 51666840 51820812 51975064 
3143.669 52128992 52282048 52434032 52585396 52736252 52886900 53037412 
3147.044 53187752 53337844 53487720 53637620 53787376 53937040 54086716 
3150.420 54236176 54385392 54535036 54685480 54837292 54990700 55145220 
3153.795 55299752 55453440 55605180 55754300 55901136 56046288 56190356 
3157.170 56333604 56476300 56618244 56759448 56900804 57043268 57188160 
3160.545 57337032 57490380 57647832 57808480 57970628 58132684 58293024 
3163.921 58450840 58605644 58756900 58904904 59049736 59191884 59332136 
3167.296 59471104 59609664 59747924 59885316 60021036 60153568 60281836 
3170.671 60405268 60523516 60636884 60745596 60849224 60947464 61039512 
3174.046 61124904 61203404 61275396 61341984 61404264 61463732 61521296 
3177.422 61578108 61634696 61692020 61750072 61809356 61869416 61930204 
3180.797 61991160 62052772 62115156 62179540 62246720 62316860 62389112 
3184.172 62462412 62534688 62604716 62672012 62737240 62801868 62867536 
3187.547 62935324 63005268 63077064 63149364 63221300 63293084 63364812 
3190.923 63437508 63511520 63586780 63662544 63737936 63812116 63884920 
3194.298 63956244 64026624 64095512 64162760 64227408 64288304 64345784 
3197.673 64400472 64453928 64508280 64564788 64623616 64684444 64745560 
3201.048 64805596 64863728 64920200 64975380 65030492 65086296 65143272 
3204.424 65201864 65262124 65324396 65388524 65454392 65520732 65585972 
3207.799 65648092 65705144 65756752 65803752 65847552 65890736 65934972 
3211.174 65980828 66027424 66073372 66117048 66157752 66196264 66233888 
3214.549 66272944 66314480 66359452 66407168 66456668 66506244 66554868 
3217.925 66601992 66647260 66690756 66732684 66773096 66812164 66850072 
3221.300 66887140 66923516 66959696 66995880 67032300 67068920 67106076 
3224.675 67143904 67182496 67221256 67259392 67295528 67328720 67357976 
3228.050 67383392 67405648 67425496 67443768 67461032 67477472 67493152 
3231.426 67509016 67526400 67547064 67572424 67603008 67637464 67673208 
3234.801 67706976 67735704 67758200 67774816 67787800 67800152 67813784 
3238.176 67829896 67848024 67866736 67884712 67900944 67915592 67928608 
3241.551 67940504 67950456 67957392 67960184 67958288 67952360 67944296 
3244.927 67937056 67933256 67935080 67942976 67956816 67975256 67997416 
3248.302 68022416 68049776 68079192 68109776 68140504 68170208 68197376 
3251.677 68221608 68242736 68261080 68277400 68292368 68305936 68317968 
3255.052 68328312 68336576 68342856 68347160 68349648 68350112 68349024 
3258.427 68346392 68343168 68340608 68339912 68341960 68346656 68353176 
3261.803 68359496 68364032 68364808 68361088 68353096 68341624 68327960 
3265.178 68313112 68297600 68281512 68264256 68245408 68224016 68199592 
3268.553 68171792 68140976 68107560 68073144 68039272 68007296 67978280 
3271.928 67952080 67927368 67902688 67876152 67846936 67814632 67780008 
3275.304 67743648 67706152 67667160 67625888 67582104 67536224 67489584 
3278.679 67444880 67404488 67369928 67341104 67315912 67291384 67264928 
3282.054 67234832 67201528 67166488 67132184 67100160 67071392 67045212 
3285.429 67021048 66997892 66975816 66954940 66936000 66918956 66902756 
3288.805 66886412 66868512 66848836 66828160 66808492 66791996 66780360 
3292.180 66773944 66771856 66773212 66776692 66782444 66791296 66804820 
3295.555 66823760 66848412 66877788 66909632 66942184 66974000 67005120 
3298.930 67036396 67069308 67104800 67143320 67184240 67226512 67268640 
3302.306 67309720 67349272 67387960 67426504 67466640 67509640 67557256 
3305.681 67610128 67669064 67733144 67801240 67871120 67941120 68009472 
3309.056 68075584 68139384 68201216 68261504 68320256 68377336 68432448 
3312.431 68485792 68538120 68590624 68645064 68702232 68762008 68823344 
3315.807 68884344 68942976 68997936 69048512 69094656 69136384 69173800 
3319.182 69206512 69234880 69259096 69279728 69298264 69315912 69333320 
3322.557 69349848 69364576 69375728 69382032 69383632 69381408 69377288 
3325.932 69372976 69369120 69365280 69360224 69351864 69338840 69319992 
3329.308 69295080 69263720 69225824 69180904 69128688 69069448 69003680 
3332.683 68932536 68857160 68777696 68692800 68600592 68498936 68386184 
3336.058 68263136 68131632 67995520 67857864 67720952 67584776 67448016 
3339.433 67308376 67163504 67012584 66855796 66694236 66529304 66362040 
3342.809 66192052 66018284 65839456 65654032 65461248 65260580 65052004 
3346.184 64836412 64614812 64388940 64161384 63934944 63712344 63495264 
3349.559 63285148 63081352 62882968 62688740 62497576 62309020 62122804 
3352.934 61938880 61756296 61575244 61394380 61213664 61034172 60857228 
3356.310 60685272 60520204 60363576 60215680 60076056 59943924 59818232 
3359.685 59698992 59585644 59477752 59374108 59273604 59174376 59075816 
3363.060 58977580 58881380 58788840 58702392 58623088 58551308 58486060 
3366.435 58425900 58369236 58315380 58264112 58215612 58170112 58127420 
3369.811 58086816 58046860 58005844 57962144 57913948 57859352 57796368 
3373.186 57723512 57639468 57544168 57438452 57323644 57201008 57071228 
3376.561 56933896 56787464 56629720 56458680 56272912 56072340 55857232 
3379.936 55627588 55383756 55124716 54849172 54556336 54246164 53919668 
3383.312 53579024 53226964 52866392 52499388 52127724 51752384 51374200 
3386.687 50994260 50612784 50230868 49848876 49466960 49085084 48703504 
3390.062 48322260 47942316 47564768 47190468 46820588 46456076 46096844 
3393.437 45743096 45394492 45050436 44709512 44370104 44030632 43689700 
3396.813 43347100 43003452 42660768 42321644 41988112 41661364 41340948 
3400.188 41025028 40711192 40397332 40082168 39765600 39448864 39133048 
3403.563 38818808 38506092 38193888 37880828 37566692 37251408 36936180 
3406.938 36622436 36311908 36005208 35703072 35405064 35111000 34820796 
3410.313 34535336 34254944 33980288 33711356 33447314 33186934 32929108 
3413.689 32672756 32417520 32163684 31911596 31661548 31413530 31167184 
3417.064 30921618 30676012 30429232 30180708 29930410 29678660 29426452 
3420.439 29175348 28926656 28681928 28441974 28206854 27975642 27747132 
3423.814 27519554 27291600 27062214 26831470 26599546 26367322 26135644 
3427.190 25905180 25676244 25449222 25223828 25000166 24777670 24556094 
3430.565 24334914 24114054 23893518 23673968 23456522 23242122 23031704 
3433.940 22825790 22623604 22424896 22228544 22034060 21841928 21653260 
3437.315 21469058 21290712 21118700 20952218 20789620 20628786 20467144 
3440.691 20303130 20135362 19964224 19790206 19615460 19441408 19269746 
3444.066 19101268 18935936 18772708 18610404 18447888 18284842 18122308 
3447.441 17962286 17807952 17661640 17524592 17396346 17274552 17155926 
3450.816 17037196 16916432 16792532 16666396 16539022 16411789 16284835 
3454.192 16157987 16030625 15902268 15773710 15646633 15522922 15404226 
3457.567 15290848 15182063 15075294 14967935 14857654 14743286 14624769 
3460.942 14502857 14379473 14256398 14134761 14016340 13901990 13792150 
3464.317 13687056 13586158 13488463 13393079 13299014 13206063 13114736 
3467.693 13025956 12940505 12858517 12778593 12698888 12616469 12529461 
3471.068 12436742 12338589 12236846 12133730 12031148 11930702 11833414 
3474.443 11739379 11649177 11563044 11481180 11403652 11330014 11259007 
3477.818 11189304 11119782 11049829 10979379 10909584 10840752 10773460 
3481.194 10707401 10641861 10576534 10511659 10447778 10386315 10328220 
3484.569 10273493 10221350 10170163 10118304 10064382 10008398 9951575 
3487.944 9895606 9842560 9793350 9748583 9707650 9670347 9635994 9605370 
3491.802 9578169 9555136 9536135 9520284 9506669 9494714 9483572 9473853 
3495.659 9466166 9461560 9460985 9465319 9474835 9490007 9511072 9538337 
3499.516 9571395 9610113 9652797 9697960 9743873 9789553 9834629 9880454 
3503.374 9928862 9982054 10042103 10110334 10187123 10272237 10364597 
3506.749 10462882 10565466 10671166 10779167 10889300 11002453 11119578 
3510.124 11242278 11371712 11507446 11648973 11794292 11941363 12088278 
3513.500 12233812 12377827 12520049 12660303 12797907 12931596 13060271 
3516.875 13183144 13300142 13412113 13519840 13623594 13722894 13815374 
3520.250 13898192 13968195 14022637 14059598 14077840 14076984 14056724 
3523.625 14016580 13956082 13875100 13773954 13653580 13515055 13359900 
3527.000 13189463 13005027 12808315 12601631 12386896 12166713 11943134 
3530.376 11717559 11490740 11262986 11033515 10801924 10567028 10327881 
3533.751 10083237 9832697 9576069 9314515 9050614 8787990 8531134 8284121 
3537.608 8049130 7826952 7616824 7416403 7223789 7037390 6856153 6679771 
3541.466 6507529 6338247 6170409 6002502 5833047 5661946 5489806 5318036 
3545.323 5147574 4979022 4812278 4647072 4483702 4323540 4168455 4021050 
3549.181 3882588 3753160 3630654 3511722 3392723 3271588 3147448 3021709 
3553.038 2897107 2776643 2662146 2554511 2453301 2357612 2266540 2179816 
3556.896 2097171 2018570 1943545 1871061 1800020 1729590 1659404 1590027 
3560.753 1522457 1457690 1396323 1338621 1284084 1231547 1179980 1127389 
3564.610 1071251 1008810 936382 851716 754089 646395 534184 425152 326559 
3568.950 243404 176640 124171 81351 43308 5665 -34259 -77029 -121816 -167659 
3573.772 -213661 -259494 -305620 -352668 -401299 -451150 -502220 -553615 
3577.629 -605301 -657279 -709383 -761778 -813870 -864203 -911587 -954337 
3581.487 -991397 -1022339 -1047329 -1066434 -1080844 -1091322 -1099221 
3584.862 -1106657 -1116539 -1131873 -1156030 -1191124 -1236985 -1291134 
3588.237 -1349009 -1404531 -1453078 -1491615 -1519747 -1539194 -1553788 
3591.612 -1566730 -1582312 -1603209 -1630641 -1664277 -1702795 -1743487 
3594.988 -1783978 -1822320 -1857789 -1890252 -1920107 -1948146 -1974864 
3598.363 -2000360 -2025260 -2049170 -2071990 -2093259 -2112219 -2128211 
3601.738 -2140806 -2149280 -2153731 -2154456 -2152313 -2148093 -2143345 
3605.113 -2139224 -2137113 -2138399 -2144895 -2157654 -2177534 -2204139 
3608.489 -2235291 -2268056 -2298478 -2324021 -2344124 -2359745 -2374080 
3611.864 -2390952 -2412272 -2438499 -2467361 -2494706 -2516119 -2528373 
3615.239 -2531305 -2526990 -2520138 -2515592 -2518590 -2532689 -2558942 
3618.614 -2596261 -2641678 -2690713 -2738096 -2779975 -2812962 -2835117 
3621.990 -2846605 -2847889 -2840318 -2825340 -2803810 -2775827 -2741619 
3625.365 -2701217 -2655938 -2609172 -2567210 -2538750 -2532392 -2554990 
3628.740 -2605549 -2675993 -2752056 -2820007 -2871655 -2905129 -2923889 
3632.115 -2933762 -2940509 -2948638 -2959959 -2974406 -2990497 -3007082 
3635.490 -3023271 -3039427 -3056404 -3074434 -3093220 -3111610 -3127894 
3638.866 -3141118 -3150625 -3157236 -3161578 -3164604 -3166085 -3165098 
3642.241 -3159703 -3147828 -3127960 -3100030 -3064992 -3025245 -2983916 
3645.616 -2944557 -2910099 -2883373 -2865994 -2858851 -2862274 -2876724 
3648.991 -2901772 -2937152 -2981020 -3029819 -3077724 -3118847 -3147072 
3652.367 -3159045 -3154375 -3136183 -3109866 -3083811 -3066472 -3064926 
3655.742 -3082824 -3118551 -3165887 -3216606 -3262123 -3298296 -3323319 
3659.117 -3338741 -3347158 -3351136 -3352451 -3351531 -3348440 -3342686 
3662.492 -3334104 -3322662 -3308654 -3292048 -3272712 -3250415 -3224072 
3665.868 -3193550 -3159506 -3123683 -3089864 -3063018 -3049034 -3052654 
3669.243 -3075980 -3115623 -3162894 -3206114 -3233873 -3239233 -3221638 
3672.618 -3186379 -3143026 -3102760 -3077823 -3076902 -3103649 -3152927 
3675.993 -3213613 -3273534 -3323484 -3360671 -3386710 -3404332 -3415970 
3679.369 -3421854 -3421657 -3414523 -3401406 -3384869 -3368496 -3355279 
3682.744 -3346960 -3341733 -3336077 -3324963 -3305037 -3274915 -3237260 
3686.119 -3196938 -3161315 -3136907 -3128157 -3136183 -3157828 -3187202 
3689.494 -3218612 -3248310 -3275178 -3300170 -3324207 -3347947 -3370337 
3692.870 -3389866 -3404956 -3413898 -3417087 -3415180 -3410249 -3404397 
3696.245 -3399828 -3397724 -3398283 -3400485 -3403148 -3405154 -3406140 
3699.620 -3406765 -3408967 -3415016 -3426325 -3443189 -3463668 -3484573 
3702.995 -3501829 -3512347 -3514713 -3509060 -3496899 -3480267 -3460446 
3706.371 -3438159 -3412682 -3382962 -3348604 -3309936 -3269391 -3231143 
3709.746 -3200358 -3181906 -3179900 -3194865 -3224532 -3264129 -3306648 
3713.121 -3345415 -3375927 -3395916 -3405482 -3406403 -3401636 -3394075 
3716.496 -3386118 -3379346 -3374447 -3371258 -3369417 -3368628 -3369154 
3719.872 -3371225 -3374447 -3378557 -3382107 -3383028 -3380200 -3372540 
3723.247 -3361756 -3350150 -3341272 -3338017 -3342324 -3353832 -3369515 
3726.622 -3384935 -3394798 -3395192 -3383916 -3361263 -3329402 -3292212 
3729.997 -3254690 -3221013 -3194931 -3178419 -3170624 -3168979 -3169900 
3733.373 -3171084 -3172203 -3175755 -3185261 -3204568 -3234432 -3272252 
3736.748 -3312436 -3348966 -3376979 -3394436 -3401373 -3399400 -3389340 
3740.123 -3371915 -3346336 -3312863 -3272876 -3230682 -3194405 -3173485 
3743.498 -3176577 -3207167 -3258012 -3312962 -3353602 -3368759 -3356331 
3746.874 -3322004 -3275770 -3229104 -3191313 -3169539 -3166183 -3180163 
3750.249 -3207035 -3241930 -3280999 -3321577 -3360638 -3394831 -3419914 
3753.624 -3432045 -3429612 -3413537 -3387138 -3355345 -3323911 -3298263 
3756.999 -3282216 -3277908 -3285767 -3303820 -3329304 -3358172 -3386118 
3760.375 -3407981 -3420309 -3420572 -3409953 -3391181 -3369614 -3350544 
3763.750 -3338543 -3335978 -3342555 -3355147 -3369614 -3381680 -3389603 
3767.125 -3393187 -3394140 -3394436 -3395916 -3399006 -3403280 -3407488 
3770.500 -3410512 -3412057 -3412419 -3411860 -3411235 -3410414 -3409066 
3773.875 -3406403 -3401472 -3393088 -3380858 -3365011 -3346566 -3327594 
3777.251 -3311054 -3299907 -3296980 -3303393 -3318552 -3339562 -3362282 
3780.626 -3382206 -3396540 -3403839 -3404924 -3401669 -3396113 -3390064 
3784.001 -3384836 -3380825 -3378655 -3378721 -3381384 -3387138 -3395652 
3787.376 -3405877 -3416167 -3424484 -3429612 -3431059 -3429711 -3426752 
3790.752 -3423465 -3420440 -3417153 -3412156 -3403937 -3391872 -3376453 
3794.127 -3359718 -3344330 -3332888 -3326871 -3325753 -3326607 -3326147 
3797.502 -3320919 -3309443 -3292541 -3274225 -3259919 -3256368 -3268470 
3800.877 -3298099 -3340911 -3387302 -3425569 -3446936 -3447298 -3428955 
3804.253 -3398381 -3365110 -3338905 -3327791 -3335716 -3361131 -3396573 
3807.628 -3431880 -3457751 -3469880 -3467744 -3455055 -3436187 -3414622 
3811.003 -3392233 -3368496 -3342193 -3311811 -3278006 -3243279 -3212429 
3814.378 -3190655 -3183090 -3190655 -3209765 -3232524 -3249593 -3253901 
3817.754 -3243081 -3220355 -3192760 -3169440 -3159605 -3170756 -3204700 
3821.129 -3256433 -3315362 -3369811 -3410611 -3434182 -3442203 -3439836 
3824.504 -3432406 -3423859 -3416528 -3409986 -3402228 -3391313 -3375795 
3827.879 -3356200 -3334630 -3313586 -3295073 -3280275 -3269127 -3260347 
3831.255 -3251895 -3242160 -3229860 -3214929 -3197858 -3179801 -3162335 
3834.630 -3147532 -3137203 -3133914 -3139605 -3155592 -3181248 -3214337 
3838.005 -3250481 -3284748 -3313060 -3332986 -3343969 -3347223 -3344462 
3841.380 -3338083 -3330027 -3322004 -3316085 -3313257 -3314507 -3319308 
3844.756 -3326772 -3334795 -3340812 -3342587 -3338741 -3328219 -3310791 
3848.131 -3286754 -3255874 -3217889 -3173025 -3122236 -3068545 -3017480 
3851.506 -2977269 -2957787 -2968219 -3012182 -3084370 -3170722 -3253704 
3854.881 -3319078 -3360671 -3379379 -3379181 -3365307 -3342127 -3312896 
3858.257 -3279979 -3245317 -3210949 -3179308 -3152302 -3131973 -3119176 
3861.632 -3113649 -3115097 -3122236 -3134440 -3150789 -3170262 -3190721 
3865.007 -3208910 -3220881 -3223250 -3214567 -3196839 -3174768 -3155098 
3868.382 -3145526 -3152368 -3177038 -3216047 -3260248 -3299710 -3326871 
3871.758 -3339201 -3339201 -3332460 -3325391 -3322300 -3324963 -3331540 
3875.133 -3337656 -3338543 -3330783 -3313521 -3288332 -3258998 -3229827 
3878.508 -3205357 -3189372 -3183452 -3187004 -3197793 -3211278 -3222559 
3881.883 -3228315 -3226473 -3217593 -3204173 -3190918 -3182893 -3184636 
3885.259 -3198155 -3221178 -3247916 -3270147 -3281295 -3277645 -3259656 
3888.634 -3231241 -3198516 -3168913 -3148421 -3141480 -3148289 -3165920 
3892.009 -3188715 -3210291 -3225914 -3232393 -3228742 -3215718 -3194767 
3895.384 -3168091 -3138388 -3108616 -3081902 -3060616 -3046632 -3040216 
3898.760 -3040151 -3044527 -3051206 -3058773 -3066999 -3076638 -3089206 
3902.135 -3105754 -3126413 -3150361 -3175097 -3198418 -3218448 -3233675 
3905.510 -3244002 -3249757 -3251402 -3249330 -3243936 -3235616 -3225289 
3908.885 -3213613 -3201444 -3189471 -3178025 -3166183 -3153453 -3138585 
3912.260 -3121019 -3101214 -3080521 -3060912 -3044823 -3034392 -3031003 
3915.636 -3034689 -3044559 -3058806 -3074862 -3090489 -3103681 -3113649 
3919.011 -3119867 -3122236 -3120656 -3114933 -3104866 -3090686 -3073151 
3922.386 -3054068 -3036104 -3022054 -3014124 -3013465 -3019685 -3030576 
3925.761 -3042980 -3054035 -3061537 -3065090 -3065123 -3063544 -3061965 
3929.137 -3061372 -3062294 -3064301 -3066571 -3068742 -3070683 -3072756 
3932.512 -3075224 -3078711 -3082560 -3086015 -3088318 -3088515 -3086311 
3935.887 -3081804 -3075421 -3068051 -3060254 -3052226 -3044559 -3037584 
3939.262 -3031563 -3027351 -3025772 -3026989 -3031201 -3037617 -3044625 
3942.638 -3050778 -3054792 -3055417 -3052489 -3046731 -3039131 -3031168 
3946.013 -3023896 -3018237 -3014716 -3012840 -3012347 -3012709 -3013465 
3949.388 -3014288 -3015571 -3017381 -3019750 -3022317 -3024061 -3023501 
3952.763 -3019849 -3012347 -3001422 -2988720 -2976248 -2966047 -2959794 
3956.139 -2957820 -2959268 -2962262 -2964764 -2965224 -2962657 -2957984 
3959.514 -2952192 -2946729 -2943175 -2941694 -2942056 -2942813 -2942912 
3962.889 -2940871 -2935869 -2927970 -2917767 -2906215 -2894630 -2883998 
3966.264 -2874980 -2867639 -2861451 -2855789 -2850259 -2843906 -2837191 
3969.640 -2830410 -2824122 -2819118 -2815530 -2813127 -2811152 -2808650 
3973.015 -2804666 -2798609 -2790444 -2780502 -2769506 -2758114 -2747051 
3976.390 -2736219 -2725880 -2716035 -2706486 -2697266 -2688671 -2680900 
3979.765 -2674149 -2668650 -2664797 -2662524 -2662129 -2663611 -2666707 
3983.141 -2671317 -2676882 -2682645 -2687947 -2692129 -2694961 -2696278 
3986.516 -2696640 -2696607 -2696904 -2698023 -2700295 -2703687 -2707243 
3989.891 -2710371 -2711919 -2711524 -2708725 -2704411 -2699406 -2695290 
3993.266 -2693150 -2693973 -2698089 -2705070 -2713664 -2722719 -2730589 
3996.642 -2736417 -2739709 -2740631 -2739808 -2738524 -2737635 -2738227 
4000.017 -2740730 -2745207 
##END=
