
##TITLE=Z235b_1_a
##JCAMP-DX=5.01  $$ Nicolet v. 1
##DATATYPE=INFRARED SPECTRUM
##ORIGIN=UniL
##OWNER=Nicolet
##LONGDATE=2011/09/22
##TIME=10:52:10
##SPECTROMETER/DATA SYSTEM=Nicolet iS5
##DATA PROCESSING=
Ratio against background
%Transmittance->Absorbance
Truncated
ElementMultiply or ElementDivide
##COMMENTS=
Number of sample scans: 32
Collection length: 51.18 sec
Sample gain: 2.0
Background collected on: Jeu Sep 22 10:47:11 2011 (GMT+02:00);
Number of background scans: 32
Background gain: 2.0
Sample spacing:  1.000
Number of scan points: 12415
Resolution points: 8192
Number of FFT points: 65536
Apodization: N-B fort;
Phase correction: Mertz;
Laser frequency: 15798.0 cm-1
Number of rejected sample scans: 0
Number of rejected background scans: 0
Bench serial number: ASB1000141;
##RESOLUTION=4.000
##XUNITS=1/CM
##YUNITS=ABSORBANCE
##FIRSTX=649.893372
##LASTX=4000.122314
##FIRSTY=0.114793
##MAXX=4000.122314
##MINX=649.893372
##MAXY=0.262100
##MINY=-0.002494
##XFACTOR=1.000000
##YFACTOR=1.000000E-009
##NPOINTS=6950
##DELTAX=0.482117
##ZPD=6100
##XYDATA=(X++(Y..Y))
649.893 114792768 113535696 112494704 111669672 111026432 110517440 
652.786 110101360 109761632 109508168 109365664 109352368 109466432 
655.679 109679648 109950752 110239536 110524840 110808016 111106144 
658.571 111437240 111807672 112209784 112628760 113055960 113497832 
661.464 113975248 114512888 115125992 115809648 116539888 117282072 
664.357 118006960 118698824 119348664 119948160 120472648 120873192 
667.250 121093128 121102112 120936704 120690424 120470464 120341840 
670.142 120309488 120337200 120369160 120357664 120275008 120123672 
673.035 119928944 119725168 119533632 119353376 119161600 118929872 
675.928 118639696 118292624 117908008 117510104 117114336 116717200 
678.820 116299416 115836864 115315256 114737656 114121960 113489784 
681.713 112855824 112219904 111571520 110897408 110193624 109469032 
684.606 108743392 108035872 107355000 106695736 106043312 105383336 
687.498 104712672 104043304 103397576 102800632 102267232 101797592 
690.391 101379312 100997008 100639728 100308200 100012136 99765512 99577984 
693.766 99451024 99378584 99353840 99374664 99446736 99582616 99793192 
697.141 100083144 100446480 100869424 101335456 101833912 102362888 
700.034 102927696 103534320 104182608 104861640 105553144 106236568 
702.926 106897384 107532752 108149768 108758968 109365920 109965608 
705.819 110543384 111081712 111567968 112000944 112391560 112757608 
708.712 113116280 113477912 113847936 114231080 114639496 115098912 
711.604 115645856 116319200 117148008 118135544 119250680 120422712 
714.497 121557992 122547800 123288264 123707544 123771824 123498648 
717.390 122952280 122242592 121508320 120886240 120506104 120460800 
720.282 120792368 121491184 122493184 123692304 124939800 126071768 
723.175 126928640 127366064 127294544 126693832 125627144 124226328 
726.068 122672416 121158960 119835272 118793688 118055608 117585456 
728.961 117314496 117171224 117104312 117085048 117103704 117156592 
731.853 117235144 117323000 117401800 117459424 117496336 117524088 
734.746 117559176 117611256 117677600 117743640 117792048 117812256 
737.639 117808000 117795008 117795088 117824424 117886232 117970000 
740.531 118058960 118139464 118206920 118267264 118330480 118403496 
743.424 118484920 118566112 118637384 118696088 118749872 118814592 
746.317 118905560 119028352 119175072 119327288 119464696 119575336 
749.209 119661656 119738568 119825232 119933000 120060496 120194104 
752.102 120316616 120416280 120493416 120558928 120627552 120708216 
754.995 120798584 120886896 120959424 121010208 121044968 121078728 
757.888 121128256 121202624 121298776 121403936 121503760 121591784 
760.780 121673072 121762400 121873984 122014480 122178496 122353600 
763.673 122528600 122703400 122892080 123119608 123410728 123781032 
766.566 124232976 124758696 125348192 125995624 126703096 127479408 
769.458 128340032 129310904 130440024 131815600 133559240 135810208 
772.351 138679680 142176528 146143664 150205328 153832480 156381072 
775.244 157257920 156116080 152928448 148029520 141979776 135465136 
778.136 129098176 123289456 118254072 113999160 110401688 107276728 
781.029 104452696 101809368 99278664 96842016 94507576 92296424 90231648 
784.404 88338152 86642344 85166856 83929816 82938896 82192080 81681424 
787.779 81401856 81357216 81564064 82048360 82836440 83950840 85405736 
791.154 87209904 89375016 91921040 94875344 98265904 102102464 106357952 
794.528 110945864 115721280 120474832 124932864 128801856 131767664 
797.421 133527192 133849144 132588912 129733760 125409096 119874136 
800.314 113482424 106608272 99638208 92905272 86655576 81066768 76227488 
803.689 72153768 68809800 66126384 64021060 62408892 61219236 60397044 
807.063 59900108 59697280 59756020 60031652 60464904 60975184 61465108 
810.438 61840988 62016040 61927724 61547028 60874232 59936472 58777084 
813.813 57452028 56019940 54536616 53055868 51622580 50271304 49028216 
817.188 47907604 46915488 46051968 45314052 44698308 44201656 43821556 
820.563 43554956 43397956 43347100 43400668 43562504 43841860 44255108 
823.938 44822204 45560204 46479564 47576412 48828768 50190104 51589592 
827.312 52936604 54115912 55008944 55507876 55528848 55038240 54058156 
830.687 52668992 50987736 49154388 47310348 45567120 44007020 42674880 
834.062 41580116 40706860 40021492 39483844 39048720 38674008 38325604 
837.437 37978564 37621104 37254732 36891376 36547352 36237816 35972664 
840.812 35753508 35575604 35431416 35314556 35222268 35155692 35117212 
844.186 35109636 35133596 35188096 35271428 35383100 35524000 35695048 
847.561 35896112 36124808 36376180 36645472 36929900 37230868 37553648 
850.936 37905412 38292852 38719468 39185376 39689500 40231904 40816628 
854.311 41452512 42150484 42921588 43774460 44714028 45743536 46867500 
857.686 48094304 49437480 50916200 52551400 54366428 56384912 58628964 
861.060 61120936 63877092 66900900 70171888 73636032 77202272 80734120 
864.435 84074752 87059744 89534328 91389912 92570256 93085632 93006816 
867.810 92460864 91614104 90633688 89683632 88896672 88357160 88108944 
871.185 88153584 88460720 88974544 89621840 90318648 90961504 91438248 
874.560 91635264 91440696 90772752 89591744 87910600 85793888 83349704 
877.935 80717040 78034296 75436048 73039904 70931344 69172592 67798408 
881.309 66816336 66210040 65939984 65950476 66169404 66520036 66932520 
884.684 67344088 67710728 68007728 68228120 68382648 68494944 68600904 
888.059 68738992 68946752 69254272 69676672 70213600 70848728 71557944 
891.434 72313384 73091888 73880552 74675960 75481896 76305528 77151856 
894.809 78019744 78898504 79761848 80564648 81242072 81701896 81838048 
898.183 81543832 80722392 79316560 77319216 74781192 71801728 68518256 
901.558 65091880 61672960 58400464 55387332 52708456 50410824 48512732 
904.933 47009444 45879736 45091052 44608012 44394180 44419576 44664120 
908.308 45115680 45770156 46627244 47687448 48949768 50410304 52059996 
911.683 53884032 55855540 57930568 60049800 62136528 64104348 65877824 
915.058 67399496 68646040 69632528 70412592 71070016 71700496 72410568 
918.432 73298368 74439056 75884008 77643864 79685888 81927112 84246528 
921.807 86503376 88551840 90285040 91654000 92686720 93484576 94214616 
925.182 95092280 96330888 98134176 100661576 103996944 108135736 112957232 
928.557 118229192 123574568 128501608 132478448 134941616 135429744 
931.450 133672136 129630312 123535064 115835128 107154712 98141608 89387024 
934.824 81384152 74442160 68719696 64244816 60950132 58717072 57407968 
938.199 56899408 57075500 57823656 59026620 60529384 62136220 63630348 
941.574 64770252 65341188 65196900 64273164 62611460 60341416 57666484 
944.949 54809516 51977228 49342288 47010472 45030292 43402972 42099516 
948.324 41075940 40285308 39687832 39247604 38933096 38716968 38572860 
951.698 38477272 38413124 38368240 38337764 38322528 38326688 38355316 
955.073 38412324 38500296 38619504 38769388 38948244 39154300 39385628 
958.448 39639584 39914104 40207044 40517496 40845236 41191848 41559112 
961.823 41948548 42360508 42793956 43246832 43716744 44201948 44702532 
965.198 45219652 45755024 46310300 46885768 47481040 48095416 48728784 
968.573 49382380 50059124 50762288 51494680 52257644 53050892 53873792 
971.947 54726184 55609884 56528640 57488264 58494396 59551552 60662604 
975.322 61828652 63050812 64330532 65670872 67075840 68550312 70099304 
978.697 71728168 73444424 75258384 77184072 79239728 81444416 83816184 
982.072 86369480 89112224 92044632 95157032 98428672 101820840 105270624 
985.447 108693640 111974056 114973904 117556312 119588472 120970584 
988.339 121652288 121636816 120985032 119802744 118241984 116474288 
991.232 114672584 113008984 111622760 110615536 110051360 109950496 
994.125 110300664 111064416 112195032 113641576 115355528 117297048 
997.017 119429008 121716304 124127584 126629112 129187136 131767704 
999.910 134329312 136820496 139179776 141328208 143180608 144656784 
1002.803 145687424 146232640 146286144 145879184 145075232 143966224 
1005.695 142671920 141318784 140042208 138976144 138231088 137897904 
1008.588 138038176 138681184 139832592 141478704 143597168 146159568 
1011.481 149135472 152494640 156199296 160207232 164473488 168947776 
1014.374 173582016 178328864 183131328 187920016 192601680 197048592 
1017.266 201116656 204652096 207513248 209604864 210890032 211406800 
1020.159 211260208 210625472 209730464 208815232 208135184 207919456 
1023.052 208338624 209508560 211470160 214199024 217612384 221591152 
1025.945 226000016 230684528 235492576 240270896 244854880 249090384 
1028.838 252836400 255979008 258454320 260249824 261403984 261988496 
1031.731 262099616 261843056 261315936 260611408 259805056 258941232 
1034.624 258026544 257016576 255820960 254303456 252312896 249713392 
1037.517 246395808 242306560 237445968 231863536 225646832 218912816 
1040.410 211806448 204480464 197095936 189811808 182757696 176038288 
1043.303 169724992 163853280 158437696 153477968 148966640 144895536 
1046.196 141256672 138041952 135243712 132854776 130870256 129288152 
1049.089 128108352 127328696 126939688 126919896 127234128 127831712 
1051.982 128657176 129654168 130769984 131962344 133191880 134415232 
1054.875 135581600 136622448 137453584 137988512 138139728 137835792 
1057.768 137033776 135722112 133928832 131718472 129198376 126505184 
1060.661 123790864 121222728 118952656 117107000 115786768 115052360 
1063.554 114930552 115416944 116482336 118074272 120117552 122524688 
1066.448 125188336 127987624 130806880 133530928 136060704 138323120 
1069.341 140262016 141839760 143032000 143821552 144199520 144166736 
1072.234 143736560 142936336 141805344 140398192 138778560 137020960 
1075.127 135215984 133458120 131847768 130484360 129447248 128796232 
1078.020 128563272 128751128 129337816 130280136 131522728 132992920 
1080.913 134604592 136264800 137867328 139310592 140515824 141436160 
1083.806 142075680 142489632 142784224 143093072 143560416 144331312 
1086.699 145522848 147220304 149469056 152264000 155543904 159181744 
1089.592 163000896 166766448 170208960 173075616 175135392 176223760 
1092.485 176265056 175268752 173326976 170587312 167245664 163508512 
1095.378 159564720 155583872 151685504 147939104 144369456 140961424 
1098.271 137673712 134448592 131228640 127960760 124602888 121131280 
1101.164 117542680 113858224 110121848 106401760 102782752 99349720 96188048 
1104.540 93369280 90943120 88943344 87385392 86270528 85590832 85332576 
1107.915 85477176 86000552 86873696 88060768 89515472 91184832 93005584 
1111.290 94901280 96789712 98577072 100161592 101450120 102356720 102818016 
1114.665 102801976 102306768 101360360 100010304 98321288 96364888 94210992 
1118.041 91931032 89588488 87235944 84917952 82666624 80504056 78447584 
1121.416 76509904 74702640 73036176 71517784 70149800 68928376 67845000 
1124.791 66889540 66055008 65342540 64764292 64342900 64105152 64078808 
1128.166 64283192 64724556 65393336 66264264 67300328 68451960 69662832 
1131.542 70873104 72015880 73028888 73857768 74462376 74827488 74964728 
1134.917 74913856 74731840 74488688 74255744 74089912 74032072 74098248 
1138.292 74279368 74541128 74828792 75077720 75214176 75169544 74889808 
1141.667 74335168 73486408 72342384 70916792 69233984 67326320 65234704 
1145.042 63003808 60681616 58319244 55962756 53653364 51425596 49302576 
1148.418 47300112 45426680 43685672 42077868 40603092 39261024 38051472 
1151.793 36973516 36026156 35208148 34518188 33955424 33519824 33211398 
1155.168 33029954 32974328 33042398 33232324 33543340 33976420 34535196 
1158.543 35224212 36047972 37008552 38104536 39331248 40679860 42137852 
1161.919 43689192 45311772 46976136 48647536 50282052 51832424 53252920 
1165.294 54497956 55529224 56316744 56838220 57081960 57047384 56745548 
1168.669 56197636 55433296 54489244 53401236 52205736 50936544 49622940 
1172.044 48292376 46971264 45682544 44449088 43291124 42224276 41261580 
1175.420 40411076 39677556 39063552 38569852 38196856 37943848 37809212 
1178.795 37790416 37883976 38086880 38397088 38814456 39340172 39975784 
1182.170 40722216 41578692 42543556 43615332 44794948 46086636 47498268 
1185.545 49038860 50716968 52536144 54492588 56571064 58743660 60969692 
1188.921 63190640 65336220 67329456 69088984 70547160 71657976 72404456 
1192.296 72801848 72894288 72748056 72433592 72020624 71567640 71112248 
1195.671 70674560 70256480 69847528 69428760 68978864 68478968 67913072 
1199.046 67269144 66538768 65713352 64784752 63745380 62589912 61319772 
1202.422 59945372 58489432 56983460 55465784 53978124 52555664 51227320 
1205.797 50012132 48918208 47946012 47089940 46341888 45692000 45130088 
1209.172 44646528 44231772 43876976 43575948 43324988 43124228 42977220 
1212.547 42890608 42871956 42929084 43069308 43298520 43621740 44042368 
1215.923 44561860 45179208 45889900 46687268 47562476 48506912 49513600 
1219.298 50576860 51693228 52859692 54073432 55331776 56633760 57981948 
1222.673 59383988 60852236 62403040 64053348 65816900 67702520 69711488 
1226.048 71836488 74059072 76350600 78669056 80955688 83142680 85150648 
1229.424 86894704 88299048 89296136 89836168 89894480 89473456 88608480 
1232.799 87365504 85847584 84184136 82514216 80990016 79752096 78919128 
1236.174 78593928 78851696 79744536 81307992 83559504 86500632 90111840 
1239.549 94351536 99146888 104386248 109932488 115610752 121215896 126538288 
1242.925 131351608 135437568 138617168 140752208 141775600 141695824 
1245.818 140597744 138626704 135962800 132821576 129419088 125957280 
1248.711 122624560 119559936 116845184 114494088 112448352 110585352 
1251.604 108734416 106723360 104398928 101661200 98486328 94923624 91086048 
1254.979 87115296 83171056 79396952 75896792 72737320 69938672 67482512 
1258.354 65320276 63385516 61606936 59911292 58238004 56542152 54794856 
1261.729 52986424 51122048 49219512 47302588 45399200 43537780 41743208 
1265.105 40037620 38438752 36958544 35604624 34379160 33279364 32298826 
1268.480 31428952 30661256 29987778 29402270 28899352 28473070 28116134 
1271.855 27820780 27577910 27380170 27221816 27098680 27007560 26944236 
1275.230 26903062 26877152 26859492 26844652 26830166 26816704 26807188 
1278.606 26805144 26813566 26834468 26868620 26915858 26974416 27040810 
1281.981 27107108 27161672 27190066 27176980 27111624 26991022 26822484 
1285.356 26622268 26414328 26225456 26080050 25998990 25998182 26088634 
1288.731 26278430 26573480 26977342 27490890 28110904 28830334 29636586 
1292.107 30512224 31435150 32375678 33297892 34162740 34927072 35554240 
1295.482 36018816 36310612 36437756 36424100 36305716 36120776 35907084 
1298.857 35697600 35516412 35381448 35304496 35290620 35338712 35440332 
1302.232 35581428 35742212 35900788 36037212 36133596 36176700 36157540 
1305.608 36069972 35911156 35682064 35388888 35043396 34662968 34269288 
1308.983 33883844 33525300 33208110 32940582 32727846 32573170 32479432 
1312.358 32449938 32487322 32591458 32759466 32985408 33263158 33587332 
1315.733 33955172 34366284 34820796 35318004 35855552 36429436 37035868 
1319.109 37672884 38340372 39038824 39766984 40517928 41278852 42029064 
1322.484 42741740 43389940 43947328 44394584 44724604 44945656 45084620 
1325.859 45183364 45298824 45491580 45812056 46294080 46942176 47730200 
1329.234 48602472 49488236 50316612 51026044 51580564 51971924 52218968 
1332.610 52359116 52443004 52526608 52660164 52887836 53242808 53743424 
1335.985 54393960 55183364 56090284 57083508 58128896 59194844 60251116 
1339.360 61272572 62239416 63136184 63952068 64680680 65317080 65855228 
1342.735 66284060 66584028 66728852 66686972 66425888 65921052 65158820 
1346.111 64139300 62875040 61390372 59718688 57897860 55973500 53997032 
1349.486 52021712 50107872 48317260 46706120 45327952 44223152 43416524 
1352.861 42919136 42727704 42828368 43196728 43799820 44593692 45518844 
1356.236 46508000 47485884 48375816 49114504 49652620 49960792 50031688 
1359.612 49878236 49532836 49041232 48467384 47887740 47381772 47031592 
1362.987 46903524 47036800 47442416 48102780 48982404 50033288 51205476 
1366.362 52445880 53693144 54883276 55946552 56811900 57422000 57735584 
1369.737 57734220 57422908 56828360 55996116 54982544 53860212 52711264 
1373.113 51617916 50664128 49917708 49418692 49177392 49175244 49378336 
1376.488 49748244 50256980 50891200 51652956 52557160 53627984 54897524 
1379.863 56398948 58163140 60206660 62516204 65029180 67618888 70111288 
1383.238 72284112 73907456 74789744 74784464 73826664 71945376 69285520 
1386.614 66098176 62695132 59412368 56511016 54138280 52330408 51034616 
1389.989 50153840 49576584 49206340 48962932 48781904 48614996 48422560 
1393.364 48174040 47853520 47460636 47012024 46533668 46053036 45588836 
1396.739 45147772 44728536 44327244 43944468 43589132 43277580 43027780 
1400.115 42854440 42763240 42751652 42812348 42937460 43122764 43368700 
1403.490 43680252 44065064 44530796 45080796 45713536 46421968 47196380 
1406.865 48025724 48900256 49812900 50757444 51728048 52718484 53721116 
1410.240 54728776 55736372 56739736 57735240 58715744 59666868 60567856 
1413.615 61393920 62121620 62738388 63245444 63658512 64001128 64298904 
1416.991 64573900 64841912 65117404 65418488 65767780 66191712 66708536 
1420.366 67318976 68006760 68742800 69496920 70243048 70969184 71679512 
1423.741 72392440 73133288 73924664 74779544 75697520 76669584 77682848 
1427.116 78726528 79789568 80857480 81909712 82915240 83836600 84639648 
1430.492 85301120 85818760 86211968 86520768 86795352 87083792 87430576 
1433.867 87871008 88437248 89167512 90109432 91318144 92845368 94713448 
1437.242 96904088 99362088 102008288 104749528 107473848 110057424 112343272 
1440.617 114154104 115331632 115744680 115324720 114071928 112045240 
1443.510 109344520 106084888 102393880 98389936 94172144 89833640 85460472 
1446.886 81150352 77032272 73251840 69949336 67229144 65129876 63631700 
1450.261 62677444 62204696 62161760 62510392 63221224 64255720 65560348 
1453.636 67078040 68745624 70508888 72329784 74174376 76011992 77807320 
1457.011 79528048 81148360 82654360 84049504 85341808 86540904 87657888 
1460.387 88706584 89701968 90654632 91565832 92418104 93171320 93774536 
1463.762 94177072 94355952 94332272 94171808 93959736 93762896 93616208 
1467.137 93515232 93431408 93323936 93151200 92870928 92427048 91743216 
1470.512 90720080 89245432 87239960 84704520 81754888 78592696 75436048 
1473.888 72443720 69680456 67145448 64816484 62689236 60794988 59191124 
1477.263 57930152 57044288 56531736 56367408 56521472 56977412 57739408 
1480.638 58828336 60268092 62070392 64226680 66711084 69491440 72538864 
1484.013 75838912 79385056 83165280 87150328 91269288 95392936 99346344 
1487.389 102897536 105780256 107736744 108532888 108019344 106178936 
1490.282 103153344 99224744 94735168 90022184 85330480 80789152 76445296 
1493.657 72282936 68268288 64390248 60673576 57187100 54026260 51277132 
1497.032 48987080 47150580 45727780 44662248 43903520 43418244 43186076 
1500.407 43193580 43428168 43873420 44507488 45306584 46238052 47261244 
1503.783 48323744 49339804 50189580 50715140 50733612 50105124 48803188 
1507.158 46943540 44724460 42332420 39885188 37431268 34986860 32567422 
1510.533 30198076 27925286 25804534 23879900 22180630 20711420 19458178 
1513.908 18396760 17500478 16743870 16101247 15548918 15067988 14647112 
1517.284 14286461 13994611 13781307 13648554 13585851 13568928 13567971 
1520.659 13557715 13531429 13506408 13516252 13590192 13737735 13948521 
1524.034 14199940 14470518 14746817 15030015 15333031 15674181 16066140 
1527.409 16510248 16998396 17519176 18065380 18637174 19242522 19892450 
1530.785 20595676 21355338 22166090 23015318 23886832 24764024 25635612 
1534.160 26495358 27342624 28177014 28995192 29787554 30539948 31237034 
1537.535 31858716 32385352 32797020 33075612 33206354 33182892 33014796 
1540.910 32727488 32357760 31942300 31504116 31047336 30558008 30015222 
1544.286 29402946 28724690 28005680 27286202 26602962 25972114 25386444 
1547.661 24819416 24240202 23627608 22983598 22332550 21713932 21161280 
1551.036 20688102 20286360 19933904 19608146 19296452 19001804 18738976 
1554.411 18525890 18370384 18265490 18188296 18106418 17977930 17753376 
1557.787 17384792 16839684 16130956 15330079 14540921 13847459 13284563 
1561.162 12845037 12499110 12211150 11947119 11681035 11398584 11100407 
1564.537 10800668 10521435 10283501 10096259 9955033 9844390 9745466 9642058 
1568.395 9526041 9399831 9273555 9160311 9069831 9007176 8973552 8968275 
1572.252 8990702 9039078 9108842 9190362 9269459 9331272 9364991 9372068 
1576.109 9368648 9381039 9431897 9532307 9681494 9872726 10099989 10362662 
1579.967 10665800 11018154 11427599 11898248 12427365 13006563 13623389 
1583.342 14260643 14896845 15506887 16059469 16522674 16869652 17082856 
1586.717 17161096 17120494 16996708 16837582 16698830 16639609 16709333 
1590.093 16946678 17374930 17997064 18793154 19714750 20691298 21626374 
1593.468 22411010 22946776 23149814 22973850 22417954 21526748 20381570 
1596.843 19078936 17720968 16392382 15153584 14045977 13089603 12290390 
1600.218 11643528 11137052 10755152 10481685 10304978 10219009 10223453 
1603.594 10321231 10514544 10801517 11174583 11618922 12112400 12627930 
1606.969 13129251 13574227 13920054 14123671 14151910 13986946 13629304 
1610.344 13099574 12436299 11693493 10926913 10186105 9508261 8910404 
1613.719 8394705 7951256 7565504 7220892 6903820 6608073 6335322 6094327 
1617.577 5897362 5754573 5670037 5640430 5656676 5704917 5770018 5836506 
1621.434 5893398 5935384 5964608 5987989 6014059 6049202 6095167 6150715 
1625.292 6214035 6284322 6362254 6448068 6540929 6637208 6732298 6823302 
1629.149 6910890 7000181 7098414 7212504 7345494 7495886 7657054 7820205 
1633.006 7976397 8116542 8233296 8320630 8374572 8394874 8386868 8362311 
1636.864 8334545 8315327 8310869 8320799 8339748 8359101 8371228 8371498 
1640.721 8361601 8347651 8338936 8342652 8360891 8389874 8420447 8441730 
1644.579 8442372 8415278 8357852 8273922 8172417 8066548 7971706 7902124 
1648.436 7868855 7878808 7933303 8027428 8148682 8277907 8384773 8432508 
1652.293 8391124 8256969 8067460 7880833 7743563 7667205 7638979 7637596 
1656.151 7645554 7652771 7655570 7654828 7652063 7647712 7639181 7621882 
1660.008 7590893 7542409 7474210 7385530 7277224 7151564 7013750 6872042 
1663.866 6737379 6621060 6530737 6469289 6432867 6412153 6392851 6359866 
1667.723 6300761 6208354 6084011 5936123 5778312 5623780 5482760 5361308 
1671.581 5261420 5181641 5117030 5058932 4994909 4911158 4798006 4655143 
1675.438 4495386 4339336 4207297 4109346 4042989 3996638 3956210 3911507 
1679.295 3860256 3808911 3769403 3752993 3762953 3791229 3817334 3814025 
1683.153 3754229 3624339 3436238 3225519 3033320 2884165 2781378 2713356 
1687.010 2664746 2621909 2576009 2523149 2462332 2395392 2325431 2258180 
1690.868 2200896 2161335 2145717 2155574 2186110 2225307 2255948 2259479 
1694.725 2222044 2143220 2039975 1940782 1869763 1837186 1835722 1846770 
1698.583 1845239 1806641 1717481 1582112 1426374 1283951 1179814 1120380 
1702.440 1097160 1095931 1101844 1102940 1090450 1060589 1014688 959793 
1706.297 904274 856397 821041 799199 788277 784858 785688 789904 799033 
1710.637 816228 845043 887042 941263 1004293 1071450 1138983 1204766 1268665 
1714.977 1330645 1388412 1436214 1465403 1467597 1439871 1388479 1327786 
1718.834 1273483 1236897 1221712 1224436 1237561 1253013 1264909 1270226 
1722.691 1269063 1263181 1254907 1245802 1236864 1228955 1223240 1221546 
1726.549 1224968 1232976 1243177 1251152 1253212 1248427 1239489 1232577 
1730.406 1233674 1246135 1266870 1285247 1284350 1246633 1160345 1029135 
1734.264 874126 727005 613479 543207 511625 505820 511658 516336 511260 
1738.603 492651 461669 422996 383662 350301 327487 316843 317672 327985 
1742.943 344531 364329 385254 406877 430127 456561 487774 524099 564540 
1747.282 607075 649382 689669 726972 759632 785589 801057 801987 786518 
1751.622 756810 719471 683164 655720 640356 635213 632956 623864 598780 
1755.962 552563 487774 413378 341282 280934 236276 204551 179026 150819 
1760.301 112769 61368 -2650 -74810 -148514 -216775 -273832 -315586 -340020 
1764.641 -346874 -339027 -321744 -301978 -287144 -282177 -286912 -296382 
1768.498 -302441 -298368 -281812 -257010 -232803 -219623 -225054 -248831 
1772.356 -283203 -315189 -333995 -334226 -317904 -290819 -259097 -226147 
1776.213 -192300 -155536 -114231 -68847 -23027 18257 49637 68360 75850 75949 
1781.035 74392 74889 78766 84002 87416 86123 78833 66571 51758 37211 25646 
1786.339 19151 19682 28926 48742 79959 120790 166762 210617 243504 256997 
1791.161 246388 211446 157945 94144 29424 -29620 -80408 -122644 -157755 
1795.500 -187001 -211807 -233697 -254494 -277044 -303732 -336345 -374981 
1799.358 -418115 -463430 -508243 -551033 -590510 -626410 -658139 -684407 
1803.215 -703329 -713749 -715635 -710508 -700947 -689898 -678882 -667700 
1807.073 -655029 -639413 -620289 -598915 -578267 -561556 -550934 -546434 
1810.930 -545639 -545441 -542661 -536241 -526147 -513803 -500300 -485705 
1814.787 -468858 -448105 -422088 -390441 -354224 -315553 -276415 -239128 
1818.645 -205084 -175508 -151363 -132814 -119332 -109162 -99755 -88988 
1822.502 -76002 -62287 -51752 -49333 -58080 -77559 -102405 -124864 -137418 
1826.842 -135927 -121651 -101113 -83489 -76764 -85510 -108136 -138312 
1830.699 -167228 -188259 -198361 -198493 -191306 -178820 -161697 -138842 
1834.557 -108666 -70304 -24750 25911 79794 136202 196396 263064 338662 
1838.896 424389 519620 622238 729893 840694 953782 1068394 1183369 1296247 
1843.236 1404334 1506032 1602199 1697656 1798157 1908133 2028257 2154708 
1847.093 2280030 2395792 2495589 2576743 2640343 2689984 2729260 2759303 
1850.951 2777910 2780711 2763404 2724092 2664179 2587675 2499455 2403222 
1854.808 2300781 2191971 2076696 1956392 1834791 1716849 1606755 1506398 
1858.666 1414407 1327388 1241748 1155495 1069358 985861 907926 836843 772477 
1863.005 713398 659271 611620 574692 552828 549245 563445 590584 622371 
1867.345 649880 666571 669657 660864 644471 625424 606610 589456 574128 
1871.684 560923 551004 546127 547321 554188 565037 577114 588096 596756 
1876.024 603524 608833 612848 613047 606013 588096 557008 512985 459281 
1880.364 400344 340751 283156 227955 174684 122778 73331 29192 -6427 -30946 
1885.185 -43999 -47743 -45358 -40289 -34888 -29919 -26042 -23822 -25148 
1889.525 -31542 -43237 -57715 -70139 -74379 -65964 -43535 -9940 28330 65278 
1894.347 96430 121353 143494 167657 197788 234652 275961 318302 358824 
1898.686 397492 436030 476894 521246 566995 610625 646993 673938 692257 
1903.026 706130 721064 741111 767332 797439 827482 853808 874857 891391 
1907.365 905369 917655 927981 933759 932663 923665 908424 890395 872964 
1911.705 858423 846238 834420 820842 805970 792460 784460 784593 791995 
1916.045 801091 803381 789771 756412 705565 646030 588693 542311 509768 
1920.384 488040 469895 448435 419281 382336 340685 298872 260146 225668 
1924.724 194739 166663 142334 123607 112504 109521 112769 118702 123342 
1929.063 125264 125993 128579 136633 150752 168254 183966 192319 191490 
1933.403 183269 173623 168353 171270 181347 193811 202496 203192 196264 
1937.743 185988 177999 176772 182540 192054 200109 202429 199413 194838 
1942.082 195004 205811 230176 267275 313992 366948 424322 485021 547719 
1946.422 609099 663983 706262 733046 745028 748579 752761 766337 794418 
1950.761 836445 887307 939570 987455 1028371 1062216 1089487 1109584 1118918 
1955.101 1114301 1092410 1055407 1008444 959959 918086 887008 865693 850787 
1959.441 838337 828146 824560 834055 862340 910018 971582 1037771 1100615 
1963.780 1155794 1204766 1253046 1304987 1360325 1413742 1455396 1477239 
1967.638 1476807 1459485 1436314 1417731 1410783 1415171 1425277 1434153 
1971.495 1437976 1438574 1442098 1454964 1480597 1517968 1562426 1610513 
1975.353 1663029 1724899 1803381 1902010 2016207 2132465 2231535 2297950 
1979.210 2323199 2310142 2268272 2210887 2148115 2083987 2018138 1947971 
1983.067 1873790 1799521 1732650 1681024 1648927 1635024 1633195 1635324 
1986.925 1635590 1632397 1628273 1626976 1631532 1641876 1654814 1667885 
1990.782 1679660 1692965 1712292 1741899 1782653 1830665 1879946 1923476 
1994.640 1957890 1982620 2001127 2017971 2035614 2054090 2070304 2081723 
1998.497 2086317 2085219 2081124 2076995 2073633 2070936 2065443 2056154 
2002.354 2043204 2029889 2020834 2019935 2027958 2043937 2063645 2084520 
2006.212 2105096 2126771 2150579 2176253 2200197 2216748 2220745 2209854 
2010.069 2187375 2160202 2137360 2126172 2129235 2144852 2168927 2197766 
2013.927 2229970 2266773 2310541 2361143 2415250 2467330 2511552 2544979 
2017.784 2568910 2588509 2609175 2633443 2660445 2685516 2704387 2715356 
2021.642 2720391 2725559 2736195 2753568 2774408 2790715 2795150 2783345 
2025.499 2757469 2723458 2689384 2659879 2634510 2608575 2576376 2536014 
2029.356 2491723 2452868 2430610 2433242 2462498 2513551 2576543 2643077 
2033.214 2707421 2767239 2822730 2872758 2914352 2942573 2954283 2949879 
2037.071 2934967 2919356 2913252 2922658 2948311 2985476 3026680 3065353 
2040.929 3097522 3122718 3142175 3155792 3161866 3157193 3139972 3110837 
2044.786 3074796 3039460 3011733 2996252 2993349 2997787 3004459 3007662 
2048.644 3003659 2991014 2967827 2930865 2876494 2802187 2709221 2604742 
2052.501 2499621 2408253 2341455 2304279 2292787 2296484 2302014 2298117 
2056.358 2279796 2248388 2210454 2173156 2142454 2121044 2109291 2106660 
2060.216 2113120 2129268 2155074 2188974 2226939 2263076 2292954 2314006 
2064.073 2327797 2337790 2347718 2359378 2370871 2377901 2376102 2363009 
2067.931 2340489 2313173 2286425 2264875 2248987 2235832 2221544 2202128 
2071.788 2176186 2145051 2111222 2077062 2043204 2009183 1974133 1938453 
2075.646 1903840 1873657 1850263 1834857 1825807 1819418 1813030 1804845 
2079.503 1795795 1788475 1784616 1784449 1785048 1782187 1771275 1750881 
2083.360 1722937 1692200 1663661 1641044 1624847 1612642 1600603 1585504 
2087.218 1566682 1545434 1523920 1503704 1483722 1461713 1434585 1400379 
2091.075 1360226 1317517 1277571 1245669 1225034 1217060 1220981 1234637 
2094.933 1255538 1280827 1306549 1328119 1340615 1340416 1326357 1300867 
2098.790 1270127 1241283 1220781 1211777 1214003 1224470 1239389 1256369 
2102.647 1275643 1299205 1329083 1365876 1407526 1450144 1489540 1522557 
2106.505 1549191 1571039 1591324 1612342 1634958 1659138 1684151 1709830 
2110.362 1736842 1765918 1797359 1829367 1859015 1882608 1897617 1903574 
2114.220 1903142 1900080 1898649 1901644 1909797 1922577 1938919 1958556 
2118.077 1982354 2010981 2044702 2081257 2116949 2147749 2170425 2184378 
2121.935 2191838 2196367 2201695 2209888 2220478 2231802 2241826 2249520 
2125.792 2254616 2257547 2257147 2250253 2232035 2197399 2143420 2070870 
2129.649 1984817 1892426 1801584 1718612 1646200 1585438 1535824 1498451 
2133.507 1475676 1469492 1481195 1507827 1543339 1579984 1611078 1633295 
2137.364 1648129 1660169 1674405 1692633 1714255 1734913 1750282 1757934 
2141.222 1759032 1757102 1756769 1760928 1769578 1780291 1789873 1795728 
2145.079 1797525 1795396 1790405 1781854 1768746 1749583 1724833 1697389 
2148.937 1672276 1654215 1644669 1641743 1639514 1631698 1613706 1584673 
2152.794 1547529 1505932 1462478 1416700 1366508 1312731 1262550 1231447 
2156.651 1240419 1311435 1455995 1669416 1928302 2197666 2443205 2639510 
2160.509 2777043 2860617 2902044 2914653 2908181 2889102 2861585 2830267 
2164.366 2800419 2777376 2763471 2756802 2752400 2742431 2721324 2689150 
2168.224 2649811 2610975 2578676 2555978 2541180 2529615 2516051 2498221 
2172.081 2477560 2458700 2445071 2439107 2438340 2439073 2436341 2426911 
2175.938 2410252 2387329 2359777 2327630 2290355 2247355 2200530 2155440 
2179.796 2120378 2103431 2109457 2137726 2182081 2232334 2279363 2318003 
2183.653 2347384 2371504 2393360 2416083 2438707 2458133 2471262 2477060 
2187.511 2477427 2476594 2479193 2488724 2506353 2531248 2560811 2592875 
2191.368 2625809 2657645 2686216 2708221 2720824 2722491 2713789 2698452 
2195.226 2682015 2669513 2664146 2665513 2670447 2674581 2674214 2668046 
2199.083 2657278 2644444 2631876 2620909 2612275 2605742 2602142 2602809 
2202.940 2609875 2624642 2646610 2673314 2700853 2726192 2747432 2764771 
2206.798 2779744 2793216 2804921 2812525 2814192 2809257 2799719 2789715 
2210.655 2783812 2784046 2788948 2793583 2790982 2776076 2749166 2715189 
2214.513 2683149 2662079 2657845 2670280 2694785 2723225 2748832 2767739 
2218.370 2779777 2786880 2791649 2794850 2795250 2790715 2779644 2761837 
2222.228 2739163 2713789 2687916 2661812 2634876 2606875 2578443 2551545 
2226.085 2529548 2514418 2505920 2501287 2496155 2486491 2470762 2450402 
2229.942 2429477 2411685 2399890 2392993 2387996 2381399 2371404 2359244 
2233.800 2349150 2345752 2353015 2371704 2399090 2430677 2461665 2489490 
2237.657 2513118 2533848 2553145 2572010 2590542 2607975 2624042 2638877 
2241.515 2653011 2667313 2681615 2695051 2706521 2715023 2720924 2725959 
2245.372 2731927 2740030 2750000 2759770 2766439 2767773 2763304 2755168 
2249.229 2746632 2740863 2739529 2742264 2747165 2751867 2755602 2759369 
2253.087 2765238 2775342 2790548 2809223 2828133 2843441 2851846 2852346 
2256.944 2845375 2832935 2817294 2800453 2783545 2768339 2756068 2748499 
2260.802 2746665 2750000 2756602 2763004 2765705 2762637 2754868 2745631 
2264.659 2739529 2741197 2752634 2773308 2799719 2827599 2852713 2872891 
2268.517 2887534 2897174 2902577 2904112 2901510 2894906 2884866 2872758 
2272.374 2860651 2850511 2843841 2841073 2841673 2845342 2852179 2862952 
2276.231 2877761 2897307 2920057 2944508 2968094 2989512 3007996 3024345 
2280.089 3039827 3055943 3073228 3091615 3110737 3130360 3151119 3174082 
2283.946 3200517 3230660 3263208 3296226 3327043 3353588 3375059 3392223 
2287.804 3406649 3420141 3433700 3447627 3461921 3476450 3491714 3508382 
2291.661 3527121 3548367 3571551 3595873 3620262 3644419 3669280 3696046 
2295.519 3726189 3760212 3797345 3835853 3873294 3907930 3939157 3967312 
2299.376 3993260 4017739 4040915 4061952 4080046 4094496 4105467 4113895 
2303.233 4120820 4127175 4132828 4137311 4140455 4142462 4144971 4149989 
2307.091 4159590 4174844 4195152 4218137 4241156 4261667 4278431 4291615 
2310.948 4302491 4312396 4322402 4332442 4342382 4351820 4361492 4372235 
2314.806 4385657 4402459 4422810 4445673 4469441 4492708 4515039 4537237 
2318.663 4560306 4586358 4616664 4651861 4692186 4736735 4783701 4829935 
2322.521 4870879 4900568 4913135 4903651 4870377 4815360 4745009 4667736 
2326.378 4593524 4530406 4483100 4452569 4435865 4428936 4426894 4426727 
2330.235 4427262 4429170 4433689 4442158 4455481 4474161 4498065 4527561 
2334.093 4561947 4600556 4642015 4684683 4726753 4767286 4806248 4844242 
2337.950 4881803 4918630 4953283 4983413 5006607 5021757 5029500 5032249 
2341.808 5033054 5034294 5036540 5038048 5035400 5025981 5008953 4986731 
2345.665 4965147 4951976 4955026 4979659 5028763 5102010 5196395 5307034 
2349.522 5428907 5556184 5683162 5805678 5920537 6026624 6124201 6214841 
2353.380 6300291 6381890 6459872 6533899 6604171 6671561 6737682 6805261 
2357.237 6876284 6951897 7031396 7113166 7194716 7274495 7351257 7424964 
2361.095 7495515 7562436 7624242 7679345 7726260 7764544 7794633 7818383 
2364.952 7837241 7852457 7864198 7871959 7875063 7873106 7865953 7853706 
2368.810 7835825 7811534 7779420 7738807 7690104 7635943 7580441 7529025 
2372.667 7486717 7456816 7441210 7439592 7450884 7474075 7508730 7555356 
2376.524 7615003 7688788 7777159 7880191 7997355 8127616 8270241 8423791 
2380.382 8586926 8757662 8933639 9112023 9289871 9464574 9633453 9793925 
2384.239 9943540 10079507 10199232 10300838 10383227 10446352 10491088 
2387.615 10518754 10530907 10528496 10512745 10484333 10444994 10396360 
2390.990 10340096 10277394 10208425 10132208 10047257 9952355 9847881 
2394.365 9735809 9620445 9506770 9399933 9304089 9221802 9154592 9103091 
2398.222 9067699 9049159 9048076 9064452 9097304 9144406 9203459 9272099 
2402.080 9348808 9433928 9528480 9633893 9751430 9881132 10022165 10173521 
2405.937 10334023 10503410 10681896 10870037 11068421 11277404 11497103 
2409.313 11727464 11968303 12219465 12479945 12747848 13019742 13290952 
2412.688 13555836 13808670 14044437 14258897 14448903 14612192 14747125 
2416.063 14853093 14929971 14979493 15004016 15007205 14992801 14964334 
2419.438 14923970 14872809 14811128 14738624 14655132 14561410 14458631 
2422.813 14348855 14234485 14118639 14004842 13896413 13797348 13711027 
2426.189 13640485 13587799 13554024 13540008 13546503 13574433 13624962 
2429.564 13699263 13797520 13918960 14061275 14221509 14396735 14584710 
2432.939 14784628 14996607 15221490 15459845 15711695 15976651 16254427 
2436.314 16545184 16850086 17170816 17509274 17866674 18243338 18638558 
2439.690 19051550 19482054 19930192 20397474 20885320 21395122 21927860 
2443.065 22483200 23060740 23659726 24279478 24919062 25577198 26251786 
2446.440 26939688 27637546 28341940 29049426 29757710 30464310 31166792 
2449.815 31862922 32549958 33225600 33887892 34535444 35166792 35779592 
2453.191 36369804 36931920 37458824 37942620 38376456 38753448 39068188 
2456.566 39316012 39491792 39590364 39606844 39537008 39378660 39131384 
2459.941 38797028 38378700 37880032 37304952 36657804 35942864 35165680 
2463.316 34332720 33451680 32531388 31580724 30609024 29625554 28639916 
2466.692 27661490 26700272 25765436 24865658 24008150 23197732 22437702 
2470.067 21729504 21073900 20470826 19920098 19421034 18971516 18568282 
2473.442 18206298 17879174 17580864 17306272 17052082 16816298 16598333 
2476.817 16397990 16213942 16044376 15886148 15736053 15590956 15448790 
2480.193 15308283 15168956 15031558 14897188 14767727 14645502 14532321 
2483.568 14430096 14339471 14259617 14188575 14124286 14064252 14007478 
2486.943 13954269 13905993 13864324 13830596 13805078 13787190 13775630 
2490.318 13768994 13766464 13768071 13774056 13784796 13800426 13820915 
2493.694 13845886 13875100 13908490 13946091 13987972 14033349 14081400 
2497.069 14130619 14179297 14226439 14271121 14313240 14352314 14388515 
2500.444 14421294 14450683 14476821 14500322 14522523 14544758 14568263 
2503.819 14593551 14621101 14650505 14681418 14713706 14747125 14781371 
2507.195 14815927 14849459 14880455 14907476 14928943 14944717 14954217 
2510.570 14957646 14954628 14944717 14926370 14898937 14861768 14815105 
2513.945 14759774 14696705 14626687 14550378 14468051 14380638 14289954 
2517.320 14198981 14111177 14030064 13958032 13895969 13842670 13796357 
2520.696 13755007 13717012 13681618 13649374 13620449 13595355 13574159 
2524.071 13557066 13544725 13537684 13537034 13543085 13555186 13571527 
2527.446 13590021 13608585 13626330 13643973 13663598 13687706 13717901 
2530.821 13754459 13795878 13839934 13884371 13928231 13971651 14015862 
2534.197 14062473 14111896 14164131 14218462 14274443 14332451 14393618 
2537.572 14459830 14531944 14610033 14692729 14777394 14861905 14944546 
2540.947 15025179 15104831 15184842 15266000 15348546 15431898 15515128 
2544.322 15597756 15680056 15762027 15844325 15926225 16006628 16083743 
2547.698 16155578 16221646 16282015 16337469 16389424 16438836 16486190 
2551.073 16531209 16573822 16614307 16653003 16691186 16729338 16767701 
2554.448 16805586 16841750 16875576 16906098 16933760 16958704 16980754 
2557.823 16999084 17011696 17016004 17009354 16990264 16958600 16915122 
2561.198 16862314 16802864 16738946 16672766 16605906 16539367 16473869 
2564.574 16409449 16346278 16283493 16220512 16157057 16093750 16031930 
2567.949 15973592 15921207 15876217 15839858 15812229 15792917 15781578 
2571.324 15777798 15781475 15792230 15809309 15831266 15856456 15883537 
2574.699 15911754 15942071 15975723 16014431 16059229 16109945 16165448 
2578.075 16223881 16283836 16344523 16406354 16470153 16536543 16605562 
2581.450 16676381 16747797 16819154 16890148 16962012 17036266 17114532 
2584.825 17197532 17284722 17375034 17466604 17558126 17648874 17738500 
2588.200 17826766 17913702 17998272 18080062 18158238 18233078 18305232 
2591.576 18375950 18446366 18517176 18588584 18660036 18731158 18801874 
2594.951 18872532 18943966 19016932 19092370 19170312 19250936 19334314 
2598.326 19420790 19511234 19606688 19707920 19815522 19929116 20048224 
2601.701 20172084 20300284 20432446 20568472 20708292 20851390 20997352 
2605.077 21145800 21296524 21449876 21606452 21766954 21931764 22100542 
2608.452 22272140 22444922 22617182 22786750 22951948 23110848 23261662 
2611.827 23401968 23529832 23643388 23741330 23823332 23889598 23940746 
2615.202 23977722 24001426 24012702 24012526 24001986 23982728 23956222 
2618.578 23924292 23888232 23848990 23807686 23764954 23722082 23680230 
2621.953 23641114 23606056 23576390 23552534 23535148 23524516 23521192 
2625.328 23525740 23538960 23561138 23592168 23631246 23677432 23729816 
2628.703 23788226 23852630 23924010 24002826 24089396 24183166 24282982 
2632.079 24387096 24494112 24603186 24713936 24826926 24942960 25062608 
2635.454 25186748 25315314 25448484 25585774 25726868 25871030 26016968 
2638.829 26163728 26310112 26455246 26598488 26739418 26877752 27013096 
2642.204 27144812 27272124 27394710 27512634 27626706 27738514 27850206 
2645.580 27963202 28078524 28196316 28316228 28437444 28559758 28683202 
2648.955 28808808 28937566 29070574 29208484 29351432 29499216 29651344 
2652.330 29807640 29968110 30133008 30302626 30477140 30656740 30841394 
2655.705 31031036 31225676 31425178 31629332 31837538 32049268 32263528 
2659.081 32479648 32697406 32916598 33137296 33359644 33583540 33808480 
2662.456 34033680 34258424 34481956 34704096 34925024 35145128 35365164 
2665.831 35585852 35807588 36030728 36255392 36481792 36709792 36939424 
2669.206 37170624 37403460 37638412 37875840 38115856 38358792 38604364 
2672.582 38851888 39100092 39347680 39593012 39834600 40071232 40301884 
2675.957 40525824 40742164 40950488 41150972 41343972 41531148 41714468 
2679.332 41896912 42081812 42272228 42471128 42681384 42905236 43144828 
2682.707 43401508 43677136 43972220 44287468 44622516 44977112 45350464 
2686.083 45741808 46150012 46573908 47011952 47462080 47922592 48391628 
2689.458 48867924 49351124 49841852 50341320 50850824 51371776 51904672 
2692.833 52449920 53006972 53575204 54153784 54741516 55337688 55941536 
2696.208 56552228 57169528 57793116 58422980 59059040 59700856 60347700 
2699.583 60998328 61651612 62305920 62960408 63614124 64266020 64914972 
2702.959 65559036 66195488 66821164 67432696 68026168 68598032 69144224 
2706.334 69660840 70143608 70587824 70989472 71344848 71651256 71907096 
2709.709 72111440 72264184 72365480 72415656 72415816 72367432 72272248 
2713.084 72132488 71949520 71724224 71456224 71144760 70788432 70387112 
2716.460 69941320 69452976 68925736 68363024 67769248 67148464 66504860 
2719.835 65842464 65165712 64479412 63788400 63097828 62412216 61736744 
2723.210 61075740 60433600 59814544 59222300 58659872 58129960 57634020 
2726.585 57173340 56749136 56362164 56013492 55703896 55433824 55202968 
2729.961 55010296 54853836 54731820 54642792 54585416 54559344 54564492 
2733.336 54600596 54666728 54760872 54880868 55023648 55186340 55366708 
2736.711 55562400 55771480 55991592 56219924 56453316 56687748 56919504 
2740.086 57144804 57360476 57563952 57753412 57927916 58087496 58232924 
2743.462 58366240 58489848 58606252 58717640 58826248 58933292 59039904 
2746.837 59147152 59256400 59368944 59486076 59608296 59735528 59867096 
2750.212 60002128 60139680 60280120 60424616 60575364 60735688 60908732 
2753.587 61098356 61306876 61537180 61791480 62071504 62378096 62712200 
2756.963 63072920 63458636 63866996 64294720 64737672 65191240 65650060 
2760.338 66107900 66558272 66993372 67405992 67789456 68137288 68444472 
2763.713 68707352 68922280 69086928 69199984 69261232 69271912 69234800 
2767.088 69154064 69034752 68882056 68701656 68498512 68277712 68044696 
2770.464 67804488 67562472 67323464 67091540 66869400 66658968 66460876 
2773.839 66275492 66102616 65942460 65794884 65659388 65535188 65420144 
2777.214 65310916 65203212 65091148 64968304 64828180 64663908 64469956 
2780.589 64242432 63979624 63682072 63352964 62997220 62620372 62228904 
2783.965 61828420 61424112 61021132 60623704 60235512 59859756 59498804 
2787.340 59153532 58824048 58509716 58209588 57922732 57648664 57387168 
2790.715 57138684 56903256 56680608 56470112 56270952 56082068 55902344 
2794.090 55730568 55565600 55405516 55248196 55090712 54930008 54763468 
2797.466 54588312 54402520 54204872 53994292 53770012 53531720 53279176 
2800.841 53012288 52731576 52437244 52129852 51809688 51476512 51130212 
2804.216 50770704 50398584 50015216 49623160 49226044 48827400 48431820 
2807.591 48043192 47665004 47300628 46952620 46623776 46316376 46032444 
2810.967 45773724 45541364 45335972 45157000 45003464 44873896 44766700 
2814.342 44680128 44613040 44564720 44534764 44523272 44530652 44557196 
2817.717 44603532 44670032 44757408 44866328 44997616 45152000 45330196 
2821.092 45532312 45757968 46006104 46275244 46563544 46869420 47190800 
2824.468 47526100 47873200 48229316 48590728 48953032 49310928 49659012 
2827.843 49992092 50305376 50594692 50856184 51086196 51282056 51441376 
2831.218 51562952 51646948 51695280 51711404 51699460 51664560 51612096 
2834.593 51547168 51475320 51401088 51329076 51262964 51205288 51157832 
2837.969 51121412 51097000 51085556 51089808 51113104 51160628 51238248 
2841.344 51351564 51506540 51708824 51964120 52279432 52663568 53125848 
2844.719 53677284 54327604 55083000 55943196 56898500 57928524 58998568 
2848.094 60062888 61067576 61950496 62653520 63125832 63329732 63247324 
2851.469 62880784 62253184 61400752 60373020 59225488 58010616 56780100 
2854.845 55578440 54439588 53390220 52447008 51617356 50901296 50292284 
2858.220 49779792 49349604 48986892 48677596 48408336 48168600 47949936 
2861.595 47746436 47554488 47372496 47200516 47039904 46893260 46763832 
2864.970 46655024 46570772 46514268 46488748 46496124 46537392 46612084 
2868.346 46718408 46853400 47012948 47192168 47385544 47587652 47792484 
2871.721 47994008 48186848 48366336 48529108 48674928 48805816 48926328 
2875.096 49042680 49162812 49293520 49440968 49609792 49802648 50020976 
2878.471 50264864 50533640 50825828 51139492 51472408 51821636 52184812 
2881.847 52559444 52943188 53333272 53726816 54119440 54506408 54882220 
2885.222 55241572 55580512 55896652 56189524 56460752 56713456 56951912 
2888.597 57181052 57406080 57632696 57866812 58114728 58383828 58681344 
2891.972 59016332 59399068 59841388 60357144 60961036 61667232 62488044 
2895.348 63430264 64492284 65660812 66909872 68199120 69473360 70671440 
2898.723 71727040 72577048 73173248 73484920 73505880 73253096 72766240 
2902.098 72100568 71315088 70472208 69627240 68823624 68096168 67468224 
2905.473 66953704 66560588 66291400 66145324 66119516 66210584 66415124 
2908.849 66730632 67156000 67690280 68332272 69078888 69923840 70856056 
2912.224 71860688 72916904 73999344 75080392 76128256 77110584 77998128 
2915.599 78764144 79389464 79864224 80187632 80367720 80418880 80359552 
2918.974 80207160 79975944 79675264 79308488 78873672 78366112 77780968 
2922.350 77115920 76373944 75563360 74699056 73800464 72887784 71981432 
2925.725 71099448 70254888 69457376 68712760 68023696 67391096 66814252 
2929.100 66291512 65819600 65394416 65010444 64661144 64339600 64038836 
2932.475 63751900 63473328 63198492 62924296 62649308 62372856 62095472 
2935.851 61818028 61541264 61265668 60991160 60717776 60445632 60176060 
2939.226 59911408 59655656 59413356 59190020 58990448 58818588 58676980 
2942.601 58565296 58480524 58415816 58361048 58303176 58226676 58117344 
2945.976 57963016 57756172 57495976 57188196 56844676 56480336 56112188 
2949.352 55755356 55420988 55115236 54838460 54585756 54347240 54111184 
2952.727 53864940 53597208 53300080 52969504 52605888 52213212 51797444 
2956.102 51365620 50923988 50477852 50031168 49586984 49148228 48717512 
2959.477 48297300 47889516 47495496 47115272 46748592 46395016 46054544 
2962.853 45728260 45418148 45126928 44857692 44612968 44395240 44206424 
2966.228 44047868 43920636 43825184 43760936 43726016 43716892 43728508 
2969.603 43754964 43790072 43828960 43867812 43904876 43940324 43975668 
2972.978 44013364 44055824 44105260 44162220 44225060 44289084 44346032 
2976.354 44385076 44392048 44352748 44254300 44086116 43842816 43524592 
2979.729 43137000 42690048 42197620 41676132 41141464 40609600 40094560 
2983.104 39606516 39152736 38736492 38357672 38013856 37701684 37418592 
2986.479 37163908 36939532 36749240 36597204 36485040 36409400 36359140 
2989.854 36316128 36255788 36149584 35972664 35706492 35343884 34890696 
2993.230 34365856 33797664 33216692 32653466 32131604 31665112 31259004 
2996.605 30910126 30610696 30350308 30119408 29910318 29717226 29536950 
2999.980 29366996 29206214 29053712 28908628 28770498 28638888 28513512 
3003.355 28393688 28279306 28169976 28065836 27967444 27875928 27792414 
3006.731 27718134 27653544 27598848 27553338 27516200 27485984 27461770 
3010.106 27442602 27427744 27417084 27410484 27407980 27409920 27416274 
3013.481 27427144 27442180 27460992 27483334 27509176 27539322 27574874 
3016.856 27617632 27669188 27730108 27799726 27875892 27955710 28035228 
3020.232 28110834 28179842 28240196 28290660 28330552 28359306 28376778 
3023.607 28383570 28381412 28372748 28361146 28350322 28343532 28342966 
3026.982 28349226 28362136 28380458 28403132 28429238 28457928 28488354 
3030.357 28519350 28549142 28575294 28596242 28610576 28617830 28619424 
3033.733 28617370 28614362 28613054 28616132 28625616 28642676 28668196 
3037.108 28702282 28744514 28794396 28851084 28913800 28982334 29056474 
3040.483 29136300 29221558 29311480 29404930 29500670 29597212 29693880 
3043.858 29790570 29887496 29984938 30082510 30179360 30273742 30364130 
3047.234 30449204 30529178 30605220 30679320 30753574 30829370 30907064 
3050.609 30985736 31063850 31139416 31210688 31276628 31336206 31389202 
3053.984 31435900 31476650 31512920 31546372 31579368 31613934 31651746 
3057.359 31693480 31739284 31788338 31840176 31894554 31951680 32012242 
3060.735 32076306 32143664 32212854 32282230 32350190 32415840 32479648 
3064.110 32542818 32607388 32674972 32746710 32822426 32901514 32983120 
3067.485 33066676 33151888 33239334 33329484 33422728 33518858 33617368 
3070.860 33717480 33818400 33919848 34021640 34124352 34228452 34334512 
3074.236 34443468 34556004 34672728 34793760 34919064 35047848 35178760 
3077.611 35310420 35441732 35571360 35699152 35825072 35949448 36072060 
3080.986 36192796 36310760 36425000 36535100 36640716 36742460 36841596 
3084.361 36939608 37038284 37139440 37244296 37353700 37467856 37586564 
3087.737 37708880 37833864 37960520 38088256 38217116 38347392 38479552 
3091.112 38614068 38750332 38887616 39024544 39159628 39292468 39423248 
3094.487 39553344 39684420 39818364 39956312 40098304 40243792 40391292 
3097.862 40539572 40687500 40834936 40981840 41129008 41276920 41425940 
3101.238 41575996 41726940 41878156 42028736 42178012 42325660 42471168 
3104.613 42614860 42757356 42899644 43042780 43187356 43333884 43481928 
3107.988 43630788 43779592 43927200 44073576 44218788 44363572 44509100 
3111.363 44656408 44806480 44959804 45116416 45275840 45436944 45598660 
3114.739 45759444 45918700 46076136 46232412 46388820 46547240 46708816 
3118.114 46874068 47042340 47211932 47380628 47546396 47708084 47865580 
3121.489 48019652 48171668 48322964 48474420 48626044 48778012 48929444 
3124.864 49080484 49231052 49381528 49532428 49684232 49837020 49990980 
3128.240 50146028 50301736 50458016 50614348 50769848 50924136 51076612 
3131.615 51227060 51375840 51523332 51670236 51817188 51964568 52112520 
3134.990 52260932 52409880 52558992 52708232 52857448 53005816 53152584 
3138.365 53296820 53437732 53575204 53709832 53842960 53975832 54109944 
3141.740 54245904 54383820 54523352 54663496 54803988 54944260 55084616 
3145.116 55225244 55366256 55507876 55649884 55791936 55933848 56074976 
3148.491 56215472 56355072 56494108 56632744 56771680 56911796 57053808 
3151.866 57198476 57345916 57495636 57646620 57797656 57947604 58095564 
3155.241 58241224 58384508 58525448 58663704 58799084 58931316 59060444 
3158.617 59187476 59313904 59441356 59571540 59705380 59843136 59984096 
3161.992 60127232 60271900 60417380 60563972 60711412 60859896 61008736 
3165.367 61157396 61304736 61450028 61592388 61731168 61865556 61995132 
3168.742 62118864 62236552 62348336 62454876 62557608 62657812 62756420 
3172.118 62853024 62947124 63037104 63121856 63200796 63273652 63341236 
3175.493 63403956 63462168 63515664 63564800 63609712 63652336 63694960 
3178.868 63740156 63789972 63845424 63905768 63969152 64033112 64096012 
3182.243 64156852 64216076 64274512 64333296 64393320 64454236 64515776 
3185.619 64577512 64638956 64700404 64762020 64824104 64886652 64949444 
3188.994 65012292 65075136 65138420 65202868 65269364 65338300 65409980 
3192.369 65483904 65559656 65636724 65714352 65792032 65868720 65943228 
3195.744 66014580 66081436 66143780 66202128 66258088 66313012 66368556 
3199.120 66425160 66482536 66540004 66596740 66652632 66707952 66763632 
3202.495 66820316 66878020 66936152 66993944 67050664 67106544 67162112 
3205.870 67218856 67277496 67338160 67399920 67461144 67520160 67576216 
3209.245 67629376 67680400 67730624 67780976 67831368 67881424 67930504 
3212.621 67978352 68025592 68072992 68121672 68172144 68223976 68276120 
3215.996 68326920 68375472 68421320 68464992 68507248 68549144 68590664 
3219.371 68631832 68672040 68711040 68748776 68785424 68821712 68857864 
3222.746 68894128 68930440 68967056 69004536 69043424 69084360 69127720 
3226.122 69172784 69218520 69263128 69305336 69344400 69380512 69414104 
3229.497 69445984 69476664 69505672 69532776 69557656 69580680 69602656 
3232.872 69625024 69648752 69673992 69700408 69726552 69751488 69774752 
3236.247 69796776 69818568 69841064 69864720 69888656 69911816 69932680 
3239.623 69950472 69965488 69978688 69991768 70005504 70019992 70034320 
3242.998 70046928 70056360 70061888 70063864 70063440 70062392 70062432 
3246.373 70065192 70072120 70084000 70101480 70124768 70153080 70184776 
3249.748 70217456 70248608 70275568 70296608 70311328 70320560 70325704 
3253.124 70328552 70330696 70333304 70337200 70342928 70350712 70360424 
3256.499 70371720 70383408 70394160 70402384 70406664 70406280 70401408 
3259.874 70392760 70381496 70368600 70354920 70341136 70327264 70313744 
3263.249 70299952 70285384 70269336 70250168 70227000 70199536 70167528 
3266.625 70132592 70096296 70060632 70027192 69996632 69968800 69943264 
3270.000 69919168 69895664 69872000 69847440 69820592 69790472 69755880 
3273.375 69716672 69673136 69627240 69580608 69535184 69491592 69449056 
3276.750 69406440 69362088 69315640 69267600 69220152 69175432 69135208 
3280.125 69100096 69069168 69040656 69012696 68984104 68954320 68924184 
3283.501 68894248 68865280 68837208 68809720 68782624 68756152 68730768 
3286.876 68707240 68685744 68665904 68646776 68626984 68605832 68583440 
3290.251 68560784 68539328 68520784 68506040 68495600 68489552 68487968 
3293.626 68491224 68499952 68514496 68534600 68559032 68585728 68612392 
3297.002 68637464 68660360 68682016 68703520 68726144 68750136 68774976 
3300.377 68799160 68822024 68843224 68863992 68886480 68913432 68946824 
3303.752 68987448 69034752 69087200 69142752 69199320 69255128 69309304 
3307.127 69361392 69411416 69460176 69508544 69557504 69607288 69657496 
3310.503 69706320 69751448 69790752 69822928 69849040 69871384 69893792 
3313.878 69919520 69950616 69986864 70026304 70065736 70102648 70135784 
3317.253 70165776 70194040 70222520 70251736 70281336 70309232 70333880 
3320.628 70353136 70366576 70374328 70376624 70373904 70366072 70353056 
3324.004 70334856 70312496 70287296 70261000 70234824 70208568 70181432 
3327.379 70151440 70116624 70075624 70028208 69974480 69915160 69850640 
3330.754 69780984 69705816 69624824 69538216 69446368 69349728 69248448 
3334.129 69142136 69029896 68911520 68787008 68657912 68526288 68394824 
3337.505 68264568 68135736 68006800 67875416 67738840 67595344 67444112 
3340.880 67285584 67120584 66949920 66774136 66593492 66408404 66219800 
3344.255 66028236 65834560 65638764 65440484 65238556 65032488 64822292 
3347.630 64609772 64397508 64188540 63985272 63788780 63598512 63413204 
3351.006 63231296 63051812 62874736 62700720 62530592 62364252 62200912 
3354.381 62039356 61878356 61717072 61556536 61398044 61243464 61094424 
3357.756 60951656 60815532 60685656 60561724 60443808 60331480 60224472 
3361.131 60121716 60021456 59921676 59820892 59718496 59614564 59510320 
3364.507 59407540 59307752 59211664 59120160 59033412 58951584 58875160 
3367.882 58803484 58736076 58671176 58606444 58539288 58467672 58390384 
3371.257 58307080 58218188 58124164 58025196 57920536 57809576 57691232 
3374.632 57565352 57431756 57291096 57143408 56988480 56825000 56651616 
3378.008 56466524 56268540 56057108 55831992 55593352 55341300 55075628 
3381.383 54796284 54503328 54197328 53879532 53551588 53215388 52872640 
3384.758 52525076 52173864 51820216 51465136 51109788 50754652 50400444 
3388.133 50047304 49694820 49342736 48990640 48638236 48285636 47932840 
3391.509 47580480 47229032 46879792 46533960 46192944 45858008 45529296 
3394.884 45205940 44886496 44568724 44250780 43931964 43612764 43295004 
3398.259 42980916 42672284 42369308 42071368 41776296 41482040 41186672 
3401.634 40889688 40590900 40291052 39991008 39690516 39389800 39088564 
3405.010 38787028 38485776 38186288 37889832 37597580 37309972 37027060 
3408.385 36748376 36473760 36203168 35936780 35674616 35416244 35161044 
3411.760 34907788 34655108 34402436 34149984 33897744 33647012 33398002 
3415.135 33151064 32906126 32663182 32422234 32183736 31948398 31716398 
3418.510 31487554 31260784 31034916 30808560 30581506 30353752 30126404 
3421.886 29900522 29676282 29453542 29230916 29007200 28781226 28553000 
3425.261 28323302 28093830 27865752 27640548 27418390 27199310 26982560 
3428.636 26767752 26554634 26343028 26133004 25924596 25717376 25511344 
3432.011 25306076 25101644 24898044 24695732 24494776 24295596 24098574 
3435.387 23904370 23713648 23527628 23346686 23171482 23001414 22835710 
3438.762 22673104 22512548 22353202 22194648 22036954 21880050 21723722 
3442.137 21567662 21411620 21255636 21100196 20945924 20793096 20641678 
3445.512 20490762 20339172 20186176 20031568 19877154 19725292 19578646 
3448.888 19439466 19307570 19182018 19059790 18938392 18815230 18690060 
3452.263 18563442 18436582 18310832 18186672 18063964 17941912 17819894 
3455.638 17698256 17577584 17459118 17343202 17229696 17117460 17004908 
3459.013 16890870 16774245 16655378 16535202 16414611 16294328 16175112 
3462.389 16056994 15940696 15827348 15717639 15612868 15513445 15419023 
3465.764 15328020 15238579 15148953 15058142 14966152 14873014 14779863 
3469.139 14687210 14595196 14503473 14411703 14319335 14226199 14132091 
3472.514 14036942 13940445 13842500 13743173 13643118 13543734 13446903 
3475.890 13354433 13267789 13187516 13113166 13043677 12977339 12912719 
3479.265 12848415 12783370 12716800 12648432 12578335 12507225 12436504 
3482.640 12367737 12302661 12242163 12186273 12134138 12084088 12034623 
3486.015 11984925 11934619 11884116 11833685 11783806 11734341 11684950 
3489.391 11635462 11586456 11539225 11494993 11455154 11419911 11388719 
3492.766 11360624 11334707 11310833 11289646 11273188 11262611 11259279 
3496.141 11262679 11271317 11283865 11298794 11316240 11336782 11361985 
3499.516 11392563 11428858 11469477 11512311 11556000 11599387 11642915 
3502.892 11688115 11737507 11792999 11856329 11928149 12008496 12096796 
3506.267 12191998 12292571 12396681 12502349 12607872 12712160 12815755 
3509.642 12920297 13027936 13140964 13259761 13383853 13510543 13637681 
3513.017 13762975 13886082 14007752 14129387 14252392 14376528 14500733 
3516.393 14622713 14739858 14850248 14953153 15048298 15135708 15214559 
3519.768 15283160 15339381 15380677 15405908 15414354 15406596 15383251 
3523.143 15344461 15289990 15218299 15128023 15018044 14888101 14739070 
3526.518 14572683 14391666 14198571 13996254 13787326 13573407 13355936 
3529.894 13135671 12912890 12687971 12461258 12233233 12004646 11775431 
3533.269 11545179 11312193 11074642 10830595 10579183 10322215 10062686 
3536.644 9805651 9555915 9317290 9091620 8878005 8675074 8479976 8291314 
3540.501 8107866 7929287 7756009 7587522 7422807 7260681 7099222 6936645 
3544.359 6772446 6606190 6438046 6268859 6100040 5933200 5771025 5615893 
3548.216 5469841 5333432 5206153 5085248 4967526 4849636 4728997 4605646 
3552.074 4480857 4357074 4236739 4121990 4012957 3909434 3810315 3714994 
3555.931 3623336 3535239 3450465 3368013 3286444 3204223 3120482 3035522 
3559.789 2950980 2869689 2794350 2727726 2670813 2623776 2585509 2553912 
3563.646 2525849 2497555 2463798 2418915 2356846 2274501 2171158 2051993 
3567.503 1925739 1802383 1691169 1597111 1520728 1458920 1406761 1359561 
3571.361 1314127 1268764 1223439 1178352 1133901 1089354 1043483 995226 
3575.218 943854 889831 834055 777855 722624 669027 617261 567492 519620 
3579.558 473478 429165 386746 346587 309615 276989 250698 232596 223778 
3583.897 223878 229944 237404 238929 227557 198319 148797 82113 5168 -72159 
3588.719 -141359 -195744 -233432 -255057 -265057 -268501 -271084 -277574 
3592.577 -291945 -315752 -348960 -389547 -434666 -480244 -523467 -562649 
3596.434 -597128 -627635 -655360 -681297 -706770 -732373 -758372 -785096 
3600.292 -812415 -839698 -866054 -890094 -910066 -924482 -932351 -933541 
3604.149 -928615 -919423 -908280 -898460 -893798 -897766 -913802 -943195 
3608.006 -985248 -1035859 -1088677 -1136929 -1175230 -1200938 -1214947 
3611.382 -1221291 -1225058 -1230840 -1241479 -1256743 -1274517 -1291399 
3614.757 -1304646 -1313268 -1318289 -1321989 -1327274 -1336457 -1351718 
3618.132 -1373650 -1402417 -1437491 -1477019 -1518823 -1559400 -1595616 
3621.507 -1624369 -1644175 -1654804 -1656784 -1650810 -1637045 -1614037 
3624.883 -1580100 -1533945 -1476920 -1414010 -1355978 -1316934 -1311979 
3628.258 -1351222 -1433164 -1543256 -1657247 -1753190 -1817635 -1849013 
3631.633 -1854127 -1843965 -1830635 -1822419 -1824993 -1838719 -1861352 
3635.008 -1889131 -1918359 -1946662 -1973083 -1997061 -2018070 -2035714 
3638.384 -2049566 -2059822 -2067208 -2073111 -2078849 -2084818 -2090390 
3641.759 -2093457 -2091215 -2080960 -2060382 -2029119 -1987991 -1939240 
3645.134 -1886557 -1833935 -1785958 -1747547 -1722795 -1714676 -1725171 
3648.509 -1754510 -1801170 -1861385 -1929278 -1996896 -2055172 -2096161 
3651.885 -2114297 -2107999 -2080267 -2038320 -1992477 -1954446 -1935974 
3655.260 -1944815 -1982681 -2043333 -2115154 -2184194 -2239939 -2277054 
3658.635 -2296270 -2301840 -2299302 -2294062 -2289612 -2287569 -2288096 
3662.010 -2290601 -2293534 -2295743 -2295281 -2290238 -2278768 -2259288 
3665.385 -2231006 -2193985 -2150236 -2102756 -2056227 -2016586 -1990498 
3668.761 -1984066 -1999601 -2034428 -2078981 -2119539 -2142257 -2137773 
3672.136 -2105328 -2051313 -1989377 -1935842 -1909287 -1923307 -1982021 
3675.511 -2075090 -2181425 -2277878 -2349299 -2392039 -2411612 -2417478 
3678.886 -2417642 -2417313 -2417939 -2418301 -2416489 -2412008 -2405583 
3682.262 -2398333 -2390655 -2381165 -2366303 -2341752 -2304872 -2255992 
3685.637 -2200051 -2144268 -2098634 -2071528 -2068066 -2087653 -2124848 
3689.012 -2170842 -2217095 -2258728 -2294326 -2324680 -2351177 -2374113 
3692.387 -2392303 -2404956 -2411085 -2411514 -2408021 -2403375 -2399882 
3695.763 -2398696 -2399882 -2401464 -2401826 -2399157 -2392599 -2383406 
3699.138 -2373520 -2365842 -2363271 -2368214 -2381495 -2402123 -2427165 
3702.513 -2452634 -2474609 -2489204 -2494146 -2488150 -2471381 -2444661 
3705.888 -2409800 -2368610 -2323032 -2275308 -2227314 -2180897 -2138498 
3709.264 -2102129 -2074364 -2058436 -2056590 -2070737 -2100481 -2142916 
3712.639 -2193194 -2244191 -2290140 -2326097 -2350287 -2363205 -2367193 
3716.014 -2365380 -2360701 -2354703 -2348013 -2339774 -2329030 -2315221 
3719.389 -2299270 -2282922 -2269243 -2259717 -2255135 -2254608 -2255597 
3722.765 -2255794 -2253487 -2248839 -2243829 -2241258 -2243367 -2251344 
3726.140 -2263145 -2275373 -2282823 -2281438 -2268715 -2245180 -2213666 
3729.515 -2178985 -2146477 -2120364 -2103053 -2094051 -2089929 -2085840 
3732.890 -2078223 -2066516 -2054578 -2049566 -2059162 -2088676 -2138201 
3736.266 -2201766 -2268517 -2328108 -2372729 -2399157 -2407592 -2399058 
3739.641 -2375069 -2335655 -2281339 -2214128 -2138696 -2064933 -2006494 
3743.016 -1978360 -1992840 -2050192 -2136025 -2222501 -2282625 -2301939 
3746.391 -2281273 -2232522 -2171864 -2116407 -2078750 -2066780 -2081190 
3749.767 -2117594 -2168106 -2224677 -2281999 -2336446 -2383900 -2420970 
3753.142 -2443277 -2448384 -2437247 -2414183 -2386009 -2358987 -2338753 
3756.517 -2327679 -2325405 -2329690 -2337764 -2348837 -2363271 -2382944 
3759.892 -2407691 -2435402 -2460673 -2477607 -2481198 -2470293 -2447593 
3763.268 -2419125 -2391907 -2371642 -2360899 -2357966 -2357966 -2355329 
3766.643 -2346267 -2330514 -2311563 -2294787 -2286547 -2291326 -2309717 
3770.018 -2339049 -2373355 -2406373 -2432206 -2448120 -2453425 -2450064 
3773.393 -2440443 -2427099 -2412173 -2396686 -2380407 -2363205 -2344916 
3776.769 -2326658 -2310640 -2299863 -2297028 -2303686 -2318550 -2337830 
3780.144 -2356120 -2368676 -2372004 -2366006 -2352660 -2335655 -2318814 
3783.519 -2305070 -2295908 -2291590 -2291326 -2294260 -2299863 -2307443 
3786.894 -2316869 -2327646 -2338851 -2349397 -2358592 -2366237 -2372630 
3790.270 -2378364 -2383406 -2386899 -2387525 -2383604 -2374113 -2360075 
3793.645 -2343400 -2327580 -2315946 -2310376 -2310278 -2311925 -2309651 
3797.020 -2297918 -2273264 -2235588 -2189436 -2142092 -2103778 -2083828 
3800.395 -2090061 -2123760 -2178260 -2239939 -2292150 -2323197 -2327943 
3803.771 -2309915 -2277977 -2244719 -2221842 -2218644 -2239214 -2279955 
3807.146 -2331239 -2379946 -2415764 -2433656 -2434018 -2420839 -2398531 
3810.521 -2370422 -2337105 -2297819 -2251575 -2198963 -2143444 -2091611 
3813.896 -2051775 -2032582 -2039210 -2070539 -2117528 -2164974 -2197678 
3817.271 -2205062 -2184919 -2143048 -2090786 -2041486 -2008506 -2001844 
3820.647 -2024666 -2071528 -2129365 -2183996 -2224116 -2245905 -2251707 
3824.022 -2248048 -2241950 -2238390 -2239247 -2243796 -2248180 -2248048 
3827.397 -2240401 -2224776 -2203051 -2178425 -2154258 -2133157 -2116308 
3830.772 -2103251 -2093226 -2084389 -2075485 -2065065 -2052303 -2036572 
3834.148 -2017773 -1996764 -1975623 -1957283 -1945046 -1942209 -1950257 
3837.523 -1969191 -1995775 -2026315 -2056722 -2084092 -2106878 -2125474 
3840.898 -2140773 -2154060 -2166589 -2179249 -2193425 -2210040 -2229094 
3844.273 -2249663 -2269704 -2286119 -2295743 -2296270 -2286382 -2266078 
3847.649 -2236115 -2196919 -2148587 -2090489 -2022358 -1945276 -1863926 
3851.024 -1786948 -1726987 -1700419 -1720584 -1792690 -1906879 -2040134 
3854.399 -2164940 -2260277 -2318253 -2341851 -2339379 -2319901 -2290964 
3857.774 -2257838 -2223457 -2189667 -2157885 -2128904 -2104273 -2084719 
3861.150 -2070341 -2061273 -2057249 -2059162 -2068000 -2084719 -2108559 
3864.525 -2136025 -2160588 -2174567 -2171369 -2149115 -2110867 -2065592 
3867.900 -2024666 -2000261 -2001349 -2029514 -2077794 -2131739 -2177139 
3871.275 -2203974 -2210864 -2203051 -2189799 -2179776 -2178062 -2184919 
3874.651 -2195469 -2202886 -2199952 -2183634 -2154324 -2117067 -2077860 
3878.026 -2043992 -2021962 -2015234 -2024633 -2046828 -2076112 -2104273 
3881.401 -2123727 -2129629 -2120660 -2099590 -2072254 -2046795 -2031790 
3884.776 -2033076 -2052006 -2083730 -2118880 -2145818 -2156533 -2148093 
3888.152 -2123661 -2089797 -2055864 -2030504 -2019884 -2026381 -2047620 
3891.527 -2077893 -2109812 -2136850 -2155050 -2162699 -2159995 -2147400 
3894.902 -2126068 -2097348 -2063119 -2025920 -1989343 -1957118 -1932544 
3898.277 -1917271 -1911135 -1911959 -1916512 -1921658 -1925781 -1929377 
3901.653 -1934292 -1943099 -1958207 -1979943 -2007484 -2038221 -2068494 
3905.028 -2095469 -2116803 -2132069 -2141235 -2144895 -2144070 -2139158 
3908.403 -2131014 -2120100 -2107570 -2094281 -2081454 -2069550 -2058832 
3911.778 -2048444 -2037858 -2025557 -2011013 -1994423 -1976645 -1959328 
3915.154 -1944023 -1932577 -1925583 -1923373 -1925221 -1930465 -1938415 
3918.529 -1948575 -1960417 -1973446 -1986243 -1997325 -2004845 -2007715 
3921.904 -2005703 -2000162 -1993400 -1988255 -1986804 -1990168 -1997424 
3925.279 -2006494 -2013915 -2017213 -2014475 -2005241 -1990465 -1971565 
3928.655 -1950422 -1928882 -1909023 -1892694 -1881906 -1878145 -1882500 
3932.030 -1894739 -1913114 -1934853 -1956492 -1974732 -1987991 -1995511 
3935.405 -1998447 -1998447 -1997325 -1996039 -1994588 -1992147 -1987562 
3938.780 -1980009 -1969125 -1956294 -1943561 -1933764 -1929080 -1930993 
3942.156 -1938910 -1950983 -1963715 -1973446 -1977008 -1972885 -1961670 
3945.531 -1945112 -1926309 -1908661 -1894706 -1885634 -1881147 -1880124 
3948.906 -1880685 -1881774 -1882698 -1883423 -1885205 -1888306 -1893156 
3952.281 -1899687 -1907110 -1914631 -1921394 -1926606 -1929740 -1930004 
3955.656 -1926507 -1918623 -1906153 -1889494 -1870095 -1849970 -1830866 
3959.032 -1814731 -1802127 -1792822 -1786090 -1780876 -1776224 -1772066 
3962.407 -1768502 -1765961 -1764872 -1764773 -1764872 -1764212 -1761737 
3965.782 -1756754 -1748999 -1739263 -1728208 -1716987 -1706822 -1698735 
3969.157 -1693356 -1691045 -1691342 -1693521 -1696293 -1698834 -1700122 
3972.533 -1699759 -1697910 -1694808 -1690847 -1685929 -1679592 -1670978 
3975.908 -1659689 -1645496 -1629090 -1611264 -1593603 -1576733 -1561678 
3979.283 -1548076 -1535992 -1525525 -1517205 -1511757 -1510106 -1512615 
3982.658 -1519186 -1528563 -1539657 -1550750 -1560754 -1569437 -1576733 
3986.034 -1582940 -1588552 -1593108 -1596046 -1596442 -1593735 -1587726 
3989.409 -1578648 -1567324 -1555042 -1543322 -1533516 -1526978 -1524601 
3992.784 -1526813 -1533317 -1543156 -1555042 -1567357 -1578648 -1588189 
3996.159 -1595782 -1602120 -1607633 -1613113 -1619154 -1625591 -1632490 
3999.535 -1639587 -1646849 -1653913 
##END=
