
##TITLE=Z235b_1_c
##JCAMP-DX=5.01  $$ Nicolet v. 1
##DATATYPE=INFRARED SPECTRUM
##ORIGIN=UniL
##OWNER=Nicolet
##LONGDATE=2011/09/22
##TIME=10:56:10
##SPECTROMETER/DATA SYSTEM=Nicolet iS5
##DATA PROCESSING=
Ratio against background
%Transmittance->Absorbance
Truncated
ElementMultiply or ElementDivide
##COMMENTS=
Number of sample scans: 32
Collection length: 51.17 sec
Sample gain: 2.0
Background collected on: Jeu Sep 22 10:47:11 2011 (GMT+02:00);
Number of background scans: 32
Background gain: 2.0
Sample spacing:  1.000
Number of scan points: 12415
Resolution points: 8192
Number of FFT points: 65536
Apodization: N-B fort;
Phase correction: Mertz;
Laser frequency: 15798.0 cm-1
Number of rejected sample scans: 0
Number of rejected background scans: 0
Bench serial number: ASB1000141;
##RESOLUTION=4.000
##XUNITS=1/CM
##YUNITS=ABSORBANCE
##FIRSTX=649.893372
##LASTX=4000.122314
##FIRSTY=0.122982
##MAXX=4000.122314
##MINX=649.893372
##MAXY=0.289809
##MINY=-0.002510
##XFACTOR=1.000000
##YFACTOR=1.000000E-009
##NPOINTS=6950
##DELTAX=0.482117
##ZPD=6100
##XYDATA=(X++(Y..Y))
649.893 122981928 121497144 120206520 119115352 118198920 117420384 
652.786 116749928 116182320 115735384 115439336 115314872 115358384 
655.679 115537976 115807224 116120496 116452400 116802080 117184632 
658.571 117615432 118095752 118609168 119130384 119640488 120137960 
661.464 120640728 121176824 121771040 122432872 123155064 123921128 
664.357 124717720 125540776 126389384 127254384 128098112 128835232 
667.250 129352496 129552928 129430112 129083160 128667520 128309680 
670.142 128060104 127909824 127812640 127718728 127592432 127425912 
673.035 127234888 127045560 126873616 126713216 126537232 126311768 
675.928 126013832 125640688 125210032 124747000 124270256 123780456 
678.820 123262208 122694872 122066432 121381848 120660536 119925096 
681.713 119191336 118459680 117719656 116957768 116169640 115363704 
684.606 114559176 113773992 113015432 112276376 111540032 110790656 
687.498 110024720 109255240 108507032 107808768 107178376 106618984 
690.391 106120088 105666432 105247032 104861512 104518656 104230872 
693.284 104007184 103848032 103747296 103698784 103701896 103765096 
696.177 103903968 104131688 104453792 104862864 105340848 105865232 
699.069 106418736 106994744 107596176 108230488 108901152 109602664 
701.962 110321464 111039992 111744584 112431128 113103592 113769736 
704.855 114432328 115084528 115711248 116295520 116825928 117303160 
707.747 117740080 118155552 118566984 118983336 119407416 119841648 
710.640 120296904 120800320 121392104 122116472 123008008 124073208 
713.533 125280368 126553864 127792312 128878120 129699992 130183328 
716.425 130295440 130059168 129545304 128870144 128177192 127605496 
719.318 127285304 127308536 127716112 128495736 129579456 130854664 
722.211 132163048 133329424 134183152 134571840 134403936 133664656 
725.104 132429808 130848888 129121112 127455768 126011832 124885016 
727.996 124094024 123597688 123320040 123182472 123128760 123126248 
730.889 123161488 123228112 123313880 123399448 123464616 123497504 
733.782 123501552 123493496 123496928 123528016 123589584 123670192 
736.674 123752480 123823328 123880928 123934744 123999456 124085248 
739.567 124190464 124302632 124404896 124485432 124543296 124587920 
742.460 124632248 124685224 124746520 124807984 124860984 124904456 
745.352 124948096 125010264 125107272 125244376 125411392 125586344 
748.245 125745040 125872000 125967992 126047672 126131656 126233432 
751.138 126353784 126481192 126600072 126700000 126782208 126858432 
754.031 126943632 127046440 127164632 127285568 127395200 127487272 
756.923 127566608 127646968 127743136 127861872 127997592 128137144 
759.816 128267560 128385992 128503176 128638744 128809872 129022720 
762.709 129267664 129525512 129778024 130020408 130265968 130543424 
765.601 130885240 131315512 131845712 132473048 133189496 133985984 
768.494 134857728 135804464 136833584 137966832 139255248 140798768 
771.387 142737728 145233488 148414736 152295008 156701408 161217088 
774.279 165254272 168099136 169097312 167872256 164405840 159080544 
777.172 152523632 145490800 138646896 132426936 127047416 122497704 
780.065 118630592 115236840 112130072 109185360 106338904 103581128 
782.958 100929992 98415376 96065832 93909592 91975624 90288136 88867072 
786.332 87721912 86851280 86247536 85905200 85827560 86030688 86540624 
789.707 87383648 88582728 90152208 92101768 94445224 97206496 100418208 
793.082 104114296 108308968 112975408 118020304 123283904 128532440 
795.975 133457360 137726256 140981312 142877824 143154480 141651280 
798.867 138361840 133439112 127188000 120018128 112357736 104642760 97242680 
802.242 90423664 84371088 79168432 74819024 71270072 68435400 66219144 
805.617 64526232 63280940 62427368 61924016 61741480 61847484 62194984 
808.992 62720128 63333952 63929224 64402432 64657376 64624576 64271204 
812.367 63596332 62628260 61412968 60010232 58483592 56893172 55298772 
815.742 53750212 52286568 50937176 49718412 48636792 47692776 46883520 
819.116 46206540 45660528 45245504 44960060 44801340 44765192 44848140 
822.491 45051056 45381360 45854440 46490704 47308944 48321224 49523476 
825.866 50890980 52370556 53881856 55322556 56564988 57480280 57954384 
829.241 57902400 57295816 56166564 54609088 52753576 50751972 48753956 
832.616 46874700 45196708 43762184 42577252 41622888 40863804 40259532 
835.990 39766148 39343144 38958284 38587236 38218344 37851872 37497332 
839.365 37168312 36876300 36627772 36421688 36252292 36112096 35996460 
842.740 35905032 35841124 35808232 35808740 35841408 35902908 35989944 
846.115 36101476 36239436 36407132 36607008 36837920 37095408 37372908 
849.490 37665804 37973212 38299656 38652824 39041544 39471836 39946648 
852.865 40466792 41033256 41650096 42325480 43069452 43892776 44804348 
856.239 45809884 46914232 48123732 49448656 50904316 52510568 54288216 
859.614 56259636 58447128 60871792 63555784 66515864 69755880 73254864 
862.989 76955608 80760944 84524064 88076104 91240336 93850904 95792432 
866.364 97007472 97510488 97381144 96758944 95824240 94757088 93732840 
869.739 92892760 92325680 92077272 92147648 92503096 93082224 93804680 
873.113 94578224 95288816 95812424 96023344 95797888 95046496 93726960 
876.488 91857088 89512216 86816440 83928000 81002712 78190576 75620536 
879.863 73384192 71546224 70140112 69169288 68610720 68416200 68520624 
883.238 68841248 69291656 69794640 70282424 70708760 71049224 71298648 
886.613 71469624 71587560 71690296 71818152 72010568 72300624 72705984 
889.987 73228424 73853016 74555520 75307008 76083096 76870448 77666208 
893.362 78477040 79313496 80185680 81096552 82037840 82982376 83879448 
896.737 84653496 85195440 85378552 85075240 84169816 82594960 80344160 
900.112 77481296 74128352 70451288 66641740 62874548 59306612 56059448 
903.487 53208384 50794540 48827028 47291432 46157196 45384340 44932096 
906.862 44760236 44837008 45141596 45662700 46397448 47347148 48513324 
910.236 49895556 51489608 53285548 55266144 57401352 59641288 61919392 
913.611 64149052 66233196 68087480 69648904 70894400 71845432 72568360 
916.986 73163608 73743688 74431896 75338976 76548200 78114368 80046536 
920.361 82306160 84799120 87390544 89923744 92237168 94211944 95793384 
923.736 97011744 97978320 98877032 99944696 101416352 103517160 106424624 
927.110 110233904 114942808 120418120 126399216 132456912 138026608 
930.003 142494144 145209360 145645104 143503472 138765552 131728264 
932.896 122935928 113122896 103032984 93327472 84542496 76999200 70846848 
936.271 66090384 62634608 60332432 59021760 58562152 58824544 59685992 
939.646 61019300 62655896 64382256 65962164 67133192 67664256 67401272 
943.020 66282408 64362348 61790904 58796200 55623860 52497332 49600356 
946.395 47042376 44870112 43080540 41639008 40496688 39601940 38911932 
949.770 38388004 37996680 37709420 37499104 37342108 37220868 37123196 
953.145 37043408 36980948 36938412 36919584 36927592 36965400 37034352 
956.520 37135360 37268200 37431992 37624932 37844132 38086772 38349960 
959.894 38632032 38932264 39251632 39591816 39954132 40339152 40746564 
963.269 41175052 41622888 42088748 42572316 43073768 43593640 44132292 
966.644 44689420 45264552 45857604 46469536 47102568 47760380 48446636 
970.019 49164296 49914588 50697268 51511692 52357660 53237076 54153448 
973.394 55112152 56118372 57176028 58287872 59454880 60678644 61961044 
976.768 63306040 64718404 66204176 67769632 69421608 71170200 73028768 
980.143 75015096 77152528 79465576 81978056 84710632 87676664 90881112 
983.518 94317944 97967992 101791232 105718840 109655720 113468224 116993944 
986.893 120068360 122528328 124247360 125157248 125253840 124603680 
989.786 123329552 121609976 119647176 117644056 115800392 114276208 
992.678 113186624 112602392 112544168 112995616 113912536 115240424 
995.571 116921336 118900632 121134872 123584208 126212192 128985744 
998.464 131869272 134825504 137816176 140792720 143694400 146446832 
1001.356 148953904 151109760 152812784 153972320 154532864 154481360 
1004.249 153853072 152726480 151218928 149482624 147678096 145973488 
1007.142 144531280 143481856 142928928 142940080 143545248 144747920 
1010.035 146530848 148869072 151732688 155091472 158916432 163171344 
1012.927 167815152 172803504 178085728 183612080 189332672 195184112 
1015.820 201084352 206917248 212516528 217686640 222210000 225875920 
1018.713 228531728 230102400 230619072 230212480 229115984 227638848 
1021.605 226105584 224857744 224195904 224339504 225436256 227539424 
1024.498 230622400 234589632 239301152 244596016 250286544 256183152 
1027.391 262090720 267796368 273099360 277814496 281791360 284943904 
1030.284 287252768 288765920 289575872 289809408 289607072 289097312 
1033.177 288401696 287614176 286785472 285914048 284933088 283719712 
1036.070 282095968 279870048 276874336 272979072 268127024 262330624 
1038.963 255664144 248247584 240234720 231809888 223161872 214484576 
1041.856 205964960 197751984 189963568 182678000 175931664 169737136 
1044.750 164089200 158974816 154379136 150287472 146685264 143558576 
1047.643 140895008 138685104 136923984 135609488 134738320 134300144 
1050.536 134273008 134620672 135290944 136226304 137368096 138660992 
1053.429 140060048 141522624 143000400 144436096 145750864 146846560 
1056.322 147620608 147966528 147794448 147046688 145702160 143786976 
1059.215 141372272 138580752 135571152 132520480 129623848 127058696 
1062.108 124973024 123486104 122670960 122562208 123159376 124432440 
1065.001 126324488 128752184 131616936 134797296 138156288 141561360 
1067.894 144880000 147996016 150821280 153285424 155337744 156942176 
1070.787 158069840 158701056 158827664 158455456 157607152 156320944 
1073.680 154655040 152682176 150491568 148195424 145914048 143776704 
1076.573 141913712 140431472 139414224 138914624 138950352 139509824 
1079.466 140554832 142027792 143845456 145900880 148072528 150215344 
1082.359 152185952 153867328 155181360 156116256 156728544 157143056 
1085.252 157524032 158052816 158913552 160255440 162187136 164765456 
1088.146 167983952 171767648 175962912 180360032 184682880 188618048 
1091.039 191874656 194189264 195377328 195357600 194146720 191855328 
1093.932 188654928 184770144 180434480 175859280 171232496 166685456 
1096.825 162293856 158085616 154046144 150134720 146294640 142470160 
1099.718 138611344 134679072 130652992 126533064 122344160 118134112 
1102.611 113975296 109956816 106166920 102693504 99609408 96964072 94790392 
1105.986 93102504 91900608 91176448 90916608 91104392 91717720 92730200 
1109.361 94108480 95807392 97773720 99940560 102224040 104530504 106749752 
1112.737 108758800 110441896 111689472 112416456 112575336 112154792 
1115.630 111180952 109706568 107807528 105570592 103082056 100431160 
1118.523 97697368 94946096 92232496 89595408 87061856 84652128 82381416 
1121.898 80263600 78311656 76534960 74937448 73516400 72263368 71168024 
1125.273 70223024 69429344 68799544 68357168 68129968 68146328 68425432 
1128.648 68972344 69775224 70805240 72021480 73369096 74786040 76205808 
1132.024 77553656 78759216 79760696 80512240 80996480 81227368 81251496 
1135.399 81136256 80964264 80819920 80770360 80863352 81116968 81518968 
1138.774 82026640 82572200 83075880 83446376 83597504 83460552 82982936 
1142.149 82137032 80917392 79337480 77425296 75220240 72774152 70144272 
1145.525 67393224 64588084 61788652 59048864 56413168 53911344 51562992 
1148.900 49377484 47357384 45500928 43804956 42265944 40880984 39646844 
1152.275 38560764 37619840 36821836 36164740 35647460 35269272 35029100 
1155.650 34925276 34955332 35117140 35410132 35835724 36398232 37103708 
1159.026 37958276 38966224 40129120 41444932 42907760 44507304 46228912 
1162.401 48049888 49938228 51854228 53746540 55558484 57234276 58717184 
1165.776 59958648 60919784 61570780 61895052 61889780 61566500 60949640 
1169.151 60074152 58983616 57721316 56331116 54854512 53327092 51782512 
1172.527 50252440 48764484 47345372 46018480 44801704 43709052 42749420 
1175.902 41926908 41243216 40698092 40290472 40018036 39878000 39866304 
1179.277 39978108 40209116 40556196 41018432 41596304 42291220 43103812 
1182.652 44033272 45077744 46236060 47509728 48904004 50428128 52092944 
1186.028 53908192 55878600 58000432 60257776 62620760 65046004 67470816 
1189.403 69819888 72010296 73953968 75577152 76828680 77688392 78170776 
1192.778 78321816 78211632 77915384 77507904 77051784 76587520 76136472 
1196.153 75700992 75270016 74824416 74342872 73807344 73202544 72517648 
1199.529 71743960 70871856 69890680 68789536 67559800 66200196 64720288 
1202.904 63143888 61505416 59847436 58216560 56653048 55189952 53849748 
1206.279 52642880 51570976 50628720 49807440 49095988 48482420 47955264 
1209.654 47502888 47115052 46784388 46506932 46282872 46116552 46015016 
1213.030 45987060 46040988 46184796 46424992 46766636 47213372 47766516 
1216.405 48424412 49181920 50031540 50963816 51969388 53041156 54173716 
1219.780 55363548 56607976 57904328 59250288 60645536 62094172 63606104 
1223.155 65196632 66885828 68694120 70638224 72729368 74970128 77353224 
1226.531 79859528 82458168 85103688 87731440 90265872 92616832 94686456 
1229.906 96385160 97630736 98359728 98537368 98159344 97260256 95910928 
1233.281 94226096 92351752 90445744 88680984 87217112 86188616 85712184 
1236.656 85873056 86731544 88330480 90693784 93829640 97724792 102342456 
1240.031 107611920 113419048 119618800 126020520 132394808 138502080 
1242.925 144078176 148863568 152640816 155237936 156565536 156624368 
1245.818 155505936 153375040 150438992 146947024 143149264 139278768 
1248.711 135552176 132127824 129097552 126474888 124190728 122103128 
1251.604 120016248 117734560 115086008 111961448 108339504 104282352 
1254.497 99923256 95425992 90972336 86723376 82793896 79255872 76129120 
1257.872 73390480 70983080 68830880 66852352 64964300 63098168 61203748 
1261.247 59249680 57227092 55144468 53024456 50896044 48791548 46743276 
1264.623 44777936 42918476 41182484 39580856 38119908 36800016 35616600 
1267.998 34561352 33623920 32794588 32064680 31427778 30878568 30411108 
1271.373 30018242 29691608 29421452 29199834 29020200 28877784 28768836 
1274.748 28688866 28631386 28589236 28555088 28523630 28493130 28465110 
1278.124 28443494 28432634 28435926 28455346 28491150 28542420 28606684 
1281.499 28679486 28751700 28810082 28838904 28821270 28745682 28609338 
1284.874 28420960 28198898 27969068 27760624 27599060 27505750 27496572 
1288.249 27582394 27771644 28071208 28485806 29017720 29664966 30420880 
1291.625 31272572 32201506 33183966 34187548 35173008 36097228 36912224 
1295.000 37576844 38062392 38357236 38470428 38429448 38275592 38052700 
1298.375 37803608 37565176 37363232 37216356 37135904 37125688 37183400 
1301.750 37299104 37456808 37634436 37807620 37954336 38054980 38095888 
1305.125 38068508 37967860 37792656 37545268 37232852 36867604 36467128 
1308.501 36053444 35648324 35271140 34937160 34655292 34431060 34267852 
1311.876 34168480 34136000 34172348 34277356 34447700 34677432 34960932 
1315.251 35293388 35672708 36099640 36574820 37097896 37666128 38274904 
1318.626 38919760 39598060 40309340 41054160 41830908 42632440 43444536 
1322.002 44245020 45004564 45693916 46284936 46756892 47102936 47332736 
1325.377 47475828 47577596 47699468 47906240 48252124 48773272 49474240 
1328.752 50327108 51271280 52229656 53124688 53888496 54480644 54891544 
1332.127 55141192 55270924 55336712 55400960 55519736 55742436 56106532 
1335.503 56633080 57327956 58181020 59170392 60263792 61424800 62618688 
1338.878 63810884 64971076 66074064 67098960 68031288 68862288 69586864 
1342.253 70199776 70691288 71042232 71225720 71207840 70952416 70431184 
1345.628 69626696 68536496 67172480 65559848 63735096 61740636 59628248 
1349.004 57456564 55285864 53184120 51219532 49453668 47944056 46733612 
1352.379 45847992 45298128 45079876 45177848 45565944 46209084 47060064 
1355.754 48055108 49121552 50177900 51140908 51941752 52526460 52862836 
1359.129 52942516 52778904 52406404 51873868 51250400 50618892 50066116 
1362.505 49682748 49542900 49691328 50142088 50877828 51860200 53036548 
1365.880 54350508 55741152 57137100 58463880 59640756 60587020 61239380 
1369.255 61554624 61517248 61138440 60453748 59518644 58398492 57173948 
1372.630 55934148 54766064 53757228 52976800 52464876 52230064 52251552 
1376.006 52492768 52913548 53484536 54192180 55038692 56039276 57219304 
1379.381 58612356 60254012 62178276 64403968 66918060 69654040 72474696 
1382.756 75191248 77561176 79333224 80297920 80295328 79255472 77211064 
1386.131 74322112 70863312 67175184 63622868 60489356 57933292 55992912 
1389.507 54610104 53678860 53078072 52702956 52466636 52299352 52149132 
1392.882 51972488 51735328 51418472 51018888 50552624 50046968 49532392 
1396.257 49031516 48554488 48102632 47673472 47267860 46894336 46568820 
1399.632 46309004 46130000 46038224 46032220 46105464 46250656 46463340 
1403.008 46743428 47094704 47523884 48037344 48637824 49323580 50087532 
1406.383 50920152 51811068 52751104 53734240 54754632 55806404 56882788 
1409.758 57974376 59071524 60166356 61252540 62324740 63375472 64390704 
1413.133 65350392 66230528 67008368 67672272 68224632 68682752 69071928 
1416.509 69419432 69748376 70074304 70410288 70772128 71179736 71657592 
1419.884 72223336 72878424 73607416 74382040 75172176 75951376 76707296 
1423.259 77444064 78180928 78944520 79759344 80640800 81590448 82601128 
1426.634 83662336 84764880 85899472 87051808 88200024 89309568 90337664 
1430.010 91244560 92002120 92605072 93072288 93445704 93779304 94125920 
1433.385 94535832 95050872 95710192 96560008 97655504 99057136 100818184 
1436.760 102956792 105446432 108223176 111200512 114279272 117339496 
1439.653 120245944 122823096 124869072 126201032 126665848 126182464 
1442.546 124751408 122443280 119378496 115695592 111547704 107074656 
1445.439 102390992 97600784 92796576 88080040 83585616 79465296 75866888 
1448.814 72900672 70607976 68967952 67920080 67397712 67344936 67720056 
1452.190 68490328 69613544 71032128 72685456 74507496 76441584 78448304 
1455.565 80489584 82527240 84514888 86407560 88171040 89790248 91274032 
1458.940 92638496 93900872 95079368 96193416 97263448 98305408 99325064 
1462.315 100307960 101214512 101990696 102578720 102945120 103099568 
1465.208 103098312 103019880 102928568 102857856 102802568 102733176 
1468.102 102608352 102386496 102025480 101468240 100634504 99417528 97695960 
1471.477 95384800 92488336 89139768 85567144 82016352 78665528 75586504 
1474.852 72776384 70207016 67868792 65790988 64032504 62648544 61674376 
1478.227 61109720 60929356 61103352 61615032 62469336 63688784 65298476 
1481.603 67311040 69717760 72492864 75604840 79027544 82750760 86773824 
1484.978 91089192 95669216 100437336 105249136 109905176 114137208 117634280 
1488.353 120091864 121229424 120861904 118957496 115668304 111312544 
1491.246 106282272 100967904 95655920 90501360 85565128 80834528 76274400 
1494.621 71873352 67658688 63705316 60117912 56991240 54377360 52270424 
1497.997 50626712 49383868 48485388 47893548 47584620 47542848 47754388 
1501.372 48201364 48861580 49710868 50716556 51837688 53020636 54175892 
1504.747 55174752 55843292 55972824 55394260 54058532 52076096 49659492 
1508.122 47019260 44296128 41553936 38819132 36113932 33468176 30933536 
1511.498 28570374 26426124 24532148 22893126 21493706 20307750 19306220 
1514.873 18461336 17744850 17130144 16595613 16127827 15726605 15401205 
1518.248 15162951 15014820 14946089 14930280 14933812 14926713 14898389 
1521.623 14865059 14862145 14922770 15059617 15264147 15513754 15785804 
1524.999 16065728 16353674 16662091 17009492 17408726 17860910 18357976 
1528.374 18888866 19446708 20033406 20658286 21334178 22070630 22870738 
1531.749 23728068 24627450 25549856 26475882 27392134 28292426 29177724 
1535.124 30050234 30909414 31748482 32555706 33318642 34019132 34638604 
1538.500 35155800 35546652 35786572 35857604 35759984 35515836 35164280 
1541.875 34748460 34297828 33821732 33308804 32738958 32096074 31384144 
1545.250 30629610 29874824 29159368 28501092 27893558 27309382 26716268 
1548.625 26090922 25433308 24767112 24131848 23562258 23073424 22658580 
1552.000 22296588 21965360 21651970 21358960 21100612 20894534 20748398 
1555.376 20656062 20595640 20536094 20435538 20242584 19903828 19376996 
1558.751 18664326 17832324 16989748 16232137 15605758 15111418 14722206 
1562.126 14402044 14115182 13832511 13537102 13227309 12916064 12625746 
1565.501 12378271 12184297 12040243 11930839 11836375 11738800 11627532 
1568.877 11502036 11370420 11244657 11135657 11050747 10993957 10967247 
1572.252 10972106 11007958 11070427 11148949 11227759 11289306 11319607 
1575.627 11317499 11297978 11288694 11315084 11391644 11520409 11695910 
1579.002 11912585 12169371 12470636 12824184 13237044 13712669 14248762 
1582.378 14837767 15468944 16127035 16791878 17438458 18034018 18543490 
1585.753 18936246 19190398 19301510 19283982 19173152 19018800 18879592 
1589.128 18818656 18889732 19135582 19582564 20235710 21075326 22051072 
1592.503 23088450 24084808 24923346 25497500 25715828 25526452 24925836 
1595.879 23960040 22715208 21295064 19810840 18355382 16996226 15779516 
1599.254 14728067 13848349 13134578 12573116 12146064 11836069 11631173 
1602.629 11526125 11521974 11623073 11832425 12147665 12560053 13051974 
1606.004 13597748 14166083 14715454 15198053 15565746 15771236 15778795 
1609.380 15571173 15151491 14545272 13797383 12968600 12120339 11306446 
1612.755 10566621 9918522 9363874 8892141 8487308 8131430 7808228 7508292 
1616.612 7229921 6979439 6768643 6608881 6506722 6461083 6463975 6502114 
1620.470 6559598 6619781 6670080 6704199 6723481 6735091 6748013 6769653 
1624.327 6802232 6844945 6895674 6953614 7018869 7091543 7170192 7251719 
1628.185 7331846 7408819 7484627 7565572 7659988 7774562 7912179 8070227 
1632.042 8241232 8415650 8584155 8737478 8867960 8968275 9031330 9053896 
1635.899 9038976 8998618 8949029 8906244 8880474 8874184 8882875 8897383 
1639.757 8908679 8910167 8901644 8888354 8879493 8883044 8901848 8932658 
1643.614 8966618 8992968 9000207 8980520 8930934 8853893 8756681 8650535 
1647.472 8550057 8469773 8423015 8419839 8464333 8554855 8681159 8825387 
1651.329 8957080 9036642 9027981 8918386 8737715 8543096 8385516 8283479 
1655.187 8229312 8204628 8193283 8184943 8175962 8166373 8156684 8146150 
1659.044 8131295 8107090 8068505 8012307 7936778 7841593 7727272 7594974 
1662.901 7448558 7295622 7147421 7016512 6912809 6841343 6799909 6779918 
1666.759 6766994 6744716 6698647 6618940 6503762 6359328 6197666 6032167 
1670.616 5874758 5734663 5616933 5523128 5450481 5390862 5330749 5253203 
1674.474 5144757 5000842 4832347 4660837 4510385 4395464 4316881 4264779 
1678.331 4224828 4185349 4141827 4099412 4069377 4063523 4086836 4132661 
1682.188 4181067 4203148 4168020 4056132 3873829 3655045 3443753 3270085 
1686.046 3142809 3053774 2988712 2933567 2878161 2817161 2748166 2671947 
1689.903 2591775 2513751 2446071 2397758 2376368 2384231 2417215 2463331 
1693.761 2504987 2522349 2499821 2434708 2341888 2249520 2182847 2154974 
1697.618 2161068 2184478 2200296 2182413 2112188 1988112 1830698 1673274 
1701.476 1545101 1458322 1409952 1388911 1381698 1375848 1360491 1328883 
1705.333 1279431 1216761 1148917 1085202 1032789 994396 969390 955243 949067 
1709.673 949764 958763 979286 1014555 1066269 1133170 1211378 1295881 
1713.530 1382462 1469160 1555975 1642907 1727128 1800786 1851328 1865737 
1717.387 1837319 1770776 1682853 1594051 1521526 1474047 1450775 1445323 
1721.245 1448747 1454000 1456128 1453169 1445589 1434552 1421354 1406861 
1725.102 1392700 1381099 1374618 1375316 1382928 1394861 1405897 1411382 
1728.960 1409155 1401476 1394761 1396323 1411315 1437876 1466334 1478935 
1732.817 1455363 1379138 1248992 1082877 913106 769988 668761 609796 582920 
1737.157 575555 574725 570744 557738 534018 501740 466380 433775 409232 
1741.496 395502 392882 399913 413809 431387 450923 472383 497792 529340 
1745.836 569350 617859 673175 731751 789838 844379 893682 935917 968360 
1750.176 986525 985463 962615 920444 867320 814369 773108 749143 741974 
1754.515 744032 743733 728797 690631 629008 551966 472748 403163 350202 
1758.855 313096 285643 258025 221126 168883 99943 17959 -70105 -155172 
1763.194 -229227 -285852 -321016 -333697 -326181 -304064 -275190 -248334 
1767.052 -230054 -221941 -219656 -215251 -201540 -175111 -139703 -104061 
1770.909 -80044 -77228 -98098 -136027 -177893 -211078 -227206 -225551 
1774.767 -210151 -186438 -158186 -126354 -90082 -48207 -1822 45561 88510 
1779.106 121254 140544 146311 141969 133119 124568 119033 116415 115255 
1783.446 113432 109356 102793 94409 85361 77474 73066 75320 87151 111742 
1788.268 150090 200142 256102 309350 349671 367645 358194 321121 262434 
1792.607 191225 117277 47549 -14644 -68548 -114860 -154675 -188988 -219358 
1796.947 -247805 -277144 -309759 -347006 -388786 -433574 -479284 -524096 
1800.804 -567149 -608411 -647751 -683977 -714742 -736871 -748382 -748945 
1804.662 -740742 -727246 -712625 -699128 -686987 -674383 -659165 -640042 
1808.519 -618040 -595639 -576315 -561921 -552622 -546103 -539451 -530019 
1812.376 -517940 -503875 -489643 -476504 -463728 -449495 -431455 -408019 
1816.234 -379781 -348893 -318500 -291216 -268567 -249924 -234426 -220219 
1820.091 -205779 -190114 -171997 -150369 -124996 -97171 -70304 -49863 -41945 
1824.431 -50360 -74478 -107837 -140962 -164181 -171997 -165009 -150104 
1828.288 -137650 -136822 -153118 -184782 -224160 -260421 -285157 -294792 
1832.146 -290653 -276945 -257441 -234558 -208131 -176502 -138213 -93129 
1836.003 -42608 11597 68493 128612 194043 267308 350202 443593 546757 658574 
1840.825 778187 904905 1037339 1172837 1307281 1435250 1552982 1660202 
1844.682 1761560 1864040 1973933 2093642 2220478 2347151 2464498 2565210 
1848.540 2645310 2705220 2748466 2779477 2800519 2810858 2807423 2786647 
1852.397 2746865 2688917 2615909 2531315 2437241 2333493 2218713 2091744 
1856.255 1953862 1809037 1663695 1523854 1393365 1272619 1159681 1051853 
1860.112 947539 847898 755715 673806 603624 544501 494376 451918 417557 
1864.452 394109 384989 392152 414605 447042 481008 507910 521710 519985 
1868.791 505422 482766 457059 431486 407541 385088 364726 347582 335678 
1873.131 330405 331367 336672 343304 348278 350102 348610 344167 336871 
1877.470 325000 305901 276989 237337 188606 134810 80655 29821 -16964 -61658 
1882.292 -107606 -157159 -209886 -262143 -308500 -343629 -364387 -371571 
1886.150 -368261 -359256 -349258 -341510 -338464 -341345 -351244 -367830 
1890.007 -389051 -410667 -427053 -432813 -424670 -403418 -373326 -341808 
1893.865 -315189 -296912 -286316 -278303 -267011 -247970 -219722 -184616 
1897.722 -145699 -105817 -64904 -21238 27402 81119 136898 190131 235249 
1902.062 269629 294462 314158 334384 359122 388803 420939 451055 475136 
1906.401 492020 503067 510365 515341 517563 514545 503962 484524 458154 
1910.741 428435 399150 372752 348776 325730 302221 279641 261738 253516 
1915.080 257826 273309 292539 304741 298242 266976 211711 141372 68062 2982 
1919.902 -47975 -85311 -113767 -139240 -166102 -196109 -228862 -262872 
1923.760 -297474 -332472 -367565 -401200 -430065 -450290 -459690 -459193 
1927.617 -453335 -448469 -449826 -458300 -470447 -480078 -481468 -473028 
1931.474 -458498 -445258 -441286 -449992 -469487 -493052 -513207 -524691 
1935.332 -528100 -528100 -531211 -540874 -555832 -570094 -577076 -572079 
1939.189 -556560 -536075 -518503 -509567 -509766 -514167 -515590 -507945 
1943.047 -489842 -464655 -437976 -414739 -395936 -379947 -363295 -344722 
1946.904 -325717 -311050 -303898 -305024 -309957 -310255 -298104 -268832 
1950.761 -223332 -169016 -115059 -69310 -35186 -12126 2518 9940 8515 -4705 
1955.583 -34027 -78851 -135430 -195248 -249361 -291680 -321479 -341908 
1959.441 -358263 -373955 -387793 -396168 -394579 -381238 -358461 -331280 
1963.298 -303434 -276316 -246844 -210548 -165804 -116781 -72524 -45358 
1967.156 -43270 -66561 -106115 -147123 -176237 -186968 -182099 -171633 
1971.013 -167460 -176701 -198460 -225186 -246877 -256779 -253235 -239956 
1974.870 -221014 -197665 -166764 -122479 -61359 12458 88112 149493 184927 
1979.210 189899 170044 136401 101700 72635 49339 26242 -2915 -38831 -76930 
1984.032 -107307 -120359 -111051 -81733 -41150 -198 32737 55536 70945 84069 
1988.854 98850 115752 131131 141439 145085 145085 147305 157945 178861 
1993.193 207833 238531 264258 281797 291975 299734 311140 330339 356900 
1997.533 386945 415500 439015 456926 470393 481771 491423 498423 498887 
2001.872 491191 475899 456429 438120 424953 417623 413610 408734 399946 
2006.212 387874 377030 372520 377394 389897 403892 411653 408038 393412 
2010.552 373282 356171 349107 354314 368938 387244 404290 418983 435068 
2014.891 458883 494973 544402 602396 661494 714194 756678 788908 813207 
2019.231 831930 846139 855302 858655 858622 859219 866656 884983 912674 
2023.570 943787 968061 977559 968759 946211 917655 892619 874359 859917 
2027.910 839997 804809 750305 681140 609198 549544 514644 509071 529871 
2032.250 568090 615834 668828 726142 789141 856862 923930 981644 1022028 
2036.589 1041590 1043915 1038634 1037903 1049429 1076067 1113902 1155262 
2040.447 1193204 1224170 1248195 1267668 1283486 1294452 1296945 1288304 
2044.304 1268698 1243277 1219785 1206228 1206859 1220848 1241050 1259759 
2048.161 1269927 1268166 1254974 1232710 1201776 1161873 1112042 1052983 
2052.019 990179 931966 889067 869578 875288 900422 933327 960756 973076 
2056.358 967929 948668 923831 900953 884651 875155 870341 867951 868117 
2060.698 873495 887407 912010 945414 982740 1017511 1045509 1064741 1076898 
2065.038 1085434 1093174 1100116 1104601 1103770 1095898 1082013 1064707 
2068.895 1046938 1030729 1014788 996322 972511 942392 907826 873230 842553 
2073.235 817921 798236 779680 759001 734373 707557 682401 662788 650444 
2077.574 643940 638531 630235 616996 600538 585807 577479 578541 587399 
2081.914 599244 607274 607042 597220 580598 561421 543904 529639 516900 
2086.253 502204 482699 457092 426777 394507 362869 332494 302519 271253 
2090.593 237602 202496 168917 140875 121983 113333 114161 121884 133451 
2094.933 146477 159735 171999 182142 188507 189435 184662 175314 164839 
2099.272 156652 153702 156420 163480 171900 180120 188739 200440 219402 
2103.612 247946 285709 328747 371094 406745 432515 449264 460409 471056 
2107.951 484988 503830 526852 553027 581261 611952 646296 685122 727536 
2112.291 770519 810120 842653 866125 881497 891026 897899 904639 912508 
2116.631 922502 935618 953683 979452 1014256 1057732 1105564 1151209 1188153 
2120.970 1212308 1223473 1225998 1226496 1231315 1243443 1261819 1282356 
2124.828 1300302 1312365 1317916 1318215 1314825 1307015 1291594 1264012 
2128.685 1220117 1158451 1082279 997119 910416 827880 752263 683728 621243 
2133.025 564540 515341 476131 449032 432813 423195 413510 397591 372155 
2137.364 338397 300696 264755 233525 207435 183634 158840 132026 104981 
2141.704 81815 67267 62892 66571 73398 77441 74789 64649 48941 31180 12292 
2147.008 -8117 -33331 -65600 -105817 -151396 -198361 -242738 -282541 -318533 
2151.347 -353628 -390077 -428145 -466839 -504239 -540576 -579458 -626046 
2155.205 -683778 -751293 -818765 -871180 -889466 -861392 -785129 -672199 
2159.062 -543157 -418215 -312010 -229127 -164909 -112442 -65865 -23027 15672 
2163.402 50101 83141 118934 163050 216551 274867 329377 368805 384922 376267 
2168.224 347881 309847 272248 242575 222651 211214 204717 201568 202231 
2172.563 209291 223082 242907 263628 280404 289124 289323 283686 276691 
2176.903 271253 266346 258124 241183 212673 174518 133815 99579 80224 79562 
2181.725 96198 124137 156652 188838 218408 245990 271054 293235 309980 
2186.064 319098 321054 319363 320723 331632 356469 394407 440607 488007 
2190.404 530501 565369 594267 620944 649116 679613 710809 740049 764777 
2194.743 784858 803481 823697 848064 876118 904174 927882 943588 949997 
2199.083 949200 944352 938574 932962 927815 922038 916360 912541 914168 
2203.423 923831 942492 967264 993632 1017013 1035014 1048167 1060456 1076034 
2207.762 1097525 1123835 1152039 1177987 1199749 1217060 1232876 1249325 
2211.620 1267069 1283951 1295582 1297776 1290232 1275942 1261952 1255937 
2215.477 1262882 1283220 1312964 1344903 1372923 1393697 1407725 1417166 
2219.334 1425410 1432923 1438375 1438441 1430496 1413144 1388213 1358198 
2223.192 1326490 1294818 1264045 1234039 1205165 1178585 1156691 1140811 
2227.049 1130778 1124134 1117390 1107192 1092244 1073975 1056537 1043517 
2230.907 1037937 1039431 1045377 1052551 1058729 1064010 1070719 1081714 
2234.764 1098422 1120613 1145163 1169016 1189549 1207225 1224204 1243908 
2238.622 1268465 1298175 1331177 1364048 1394296 1421088 1445323 1469160 
2242.479 1494029 1520529 1547096 1571704 1592422 1608451 1620158 1628871 
2246.336 1635191 1639414 1641011 1639381 1634825 1628938 1623650 1621555 
2250.194 1623949 1631200 1643007 1658373 1677099 1699552 1725731 1754707 
2254.051 1784283 1810468 1829400 1838318 1836122 1824709 1807141 1787011 
2257.909 1766717 1748053 1731187 1717082 1706670 1702213 1705306 1716184 
2261.766 1732817 1751413 1767382 1777596 1781488 1781821 1782553 1788242 
2265.624 1801285 1821381 1845705 1870629 1892692 1910397 1923576 1932928 
2269.481 1939185 1942580 1942879 1940350 1936090 1931962 1930232 1932628 
2273.338 1939651 1950168 1961817 1973001 1982920 1992639 2003125 2016340 
2277.196 2032652 2051394 2070836 2089847 2107726 2124640 2142021 2160668 
2281.053 2180549 2200963 2221244 2240861 2260944 2283294 2310208 2343020 
2284.911 2381499 2423946 2468130 2511552 2553078 2593142 2632509 2672180 
2288.768 2711722 2750066 2785846 2817761 2846309 2872658 2899742 2929864 
2292.625 2964791 3004893 3049536 3097522 3148015 3200284 3254395 3309781 
2296.483 3365508 3420508 3473210 3522879 3569781 3614683 3658520 3702061 
2300.340 3744838 3785547 3823117 3856244 3885363 3911674 3936784 3962095 
2304.198 3988111 4014529 4040848 4066467 4092121 4119214 4149387 4183810 
2308.055 4222653 4264712 4308414 4351853 4394225 4435028 4474697 4513633 
2311.913 4551233 4586760 4619309 4648344 4674937 4701028 4728997 4761155 
2315.770 4798710 4841561 4888773 4939174 4991892 5046596 5103150 5161656 
2319.627 5221847 5282784 5343462 5402604 5459238 5512121 5559674 5599345 
2323.485 5628513 5644793 5647344 5637207 5618276 5595284 5574207 5559842 
2327.342 5554909 5559809 5572763 5591055 5611764 5632675 5652715 5671682 
2331.200 5689642 5707099 5724658 5743358 5764344 5789493 5819749 5855682 
2335.057 5896824 5942135 5990273 6040432 6092412 6146447 6202271 6258505 
2338.915 6312561 6360808 6399745 6427386 6443730 6451128 6452978 6452171 
2342.772 6449346 6442586 6426747 6396887 6348804 6282608 6203246 6120806 
2346.629 6048227 5998739 5984025 6011572 6084112 6199683 6352469 6533159 
2350.487 6730043 6931696 7127986 7312066 7481660 7637630 7783333 7921728 
2354.344 8054294 8181330 8301581 8415413 8523395 8628125 8732204 8837289 
2358.202 8943279 9048888 9151343 9249083 9340513 9425530 9503858 9574816 
2362.059 9636570 9687050 9724626 9749023 9761189 9763799 9758681 9747499 
2365.917 9729878 9704804 9670686 9627051 9573494 9511072 9440260 9360929 
2369.774 9272709 9175133 9068917 8956775 8842970 8733320 8633466 8547151 
2373.631 8476462 8421528 8380957 8353663 8338903 8337045 8348934 8375551 
2377.489 8417406 8474233 8545833 8631201 8729973 8841245 8964148 9097101 
2381.346 9238319 9385272 9535355 9686000 9834697 9978630 10115013 10240415 
2385.204 10351261 10444859 10519161 10573886 10609909 10629128 10633609 
2388.579 10624781 10603730 10570491 10525339 10468618 10400976 10322995 
2391.954 10235394 10138178 10031727 9916319 9793451 9665875 9537557 9413002 
2395.812 9296641 9192121 9101771 9027339 8970102 8931272 8912128 8913550 
2399.669 8935432 8976224 9032785 9101737 9179769 9264484 9355749 9454618 
2403.526 9562486 9681121 9811108 9952151 10103991 10265927 10438376 10621929 
2407.384 10817653 11026311 11248228 11483425 11731481 11991907 12263907 
2410.759 12545967 12835753 13129354 13421921 13707846 13981403 14237704 
2414.134 14472573 14682516 14864613 15016329 15135708 15221764 15275369 
2417.510 15298673 15295653 15270839 15228456 15171769 15102842 15022572 
2420.885 14931479 14830293 14720149 14602940 14481377 14357588 14234553 
2424.260 14114977 14001695 13898158 13807438 13733084 13677447 13642365 
2427.635 13628997 13638057 13670095 13725732 13805694 13909996 14038072 
2431.010 14188026 14357588 14544313 14746234 14962344 15192665 15437323 
2434.386 15696682 15970256 16257694 16558299 16872510 17201600 17547086 
2437.761 17911388 18296006 18702236 19130144 19579964 20052006 20546828 
2441.136 21065378 21608508 22176830 22770094 23387700 24029196 24694400 
2444.511 25383492 26095988 26831012 27585854 28356688 29138850 29927996 
2447.887 30720002 31512954 32304574 33093456 33877752 34655000 35421928 
2451.262 36175800 36913596 37632592 38329548 39000148 39638968 40239468 
2454.637 40794280 41296816 41740364 42118864 42426520 42656820 42802732 
2458.012 42857660 42815824 42673636 42429772 42085680 41644368 41109484 
2461.388 40485776 39777728 38990328 38129924 37203720 36220348 35189824 
2464.763 34122488 33029240 31921190 30809308 29704240 28617124 27557644 
2468.138 26535332 25558292 24632326 23761908 22949746 22197298 21504814 
2471.513 20871936 20297194 19777792 19309788 18888106 18506594 18159342 
2474.889 17841748 17549778 17281034 17033508 16805586 16594959 16398851 
2478.264 16214218 16037878 15867075 15699981 15535011 15371682 15210200 
2481.639 15051659 14898183 14752370 14617126 14494738 14386220 14290776 
2485.014 14206171 14129900 14059221 13993106 13931892 13876982 13830048 
2488.390 13792115 13762941 13741155 13725185 13713387 13705111 13700905 
2491.765 13701384 13707846 13720671 13740130 13765642 13797007 13834119 
2495.140 13876811 13925117 13978323 14035334 14094817 14155095 14215175 
2498.515 14273929 14331115 14385603 14436810 14483536 14524921 14560759 
2501.891 14591563 14618738 14643891 14668464 14693140 14718264 14743732 
2505.266 14769853 14797552 14828133 14862625 14901406 14943551 14986729 
2508.641 15027648 15062911 15089805 15106444 15111830 15105346 15086787 
2512.016 15055639 15012213 14957372 14892902 14821242 14744555 14664590 
2515.392 14581832 14496040 14406599 14313650 14218668 14124116 14033075 
2518.767 13948349 13871235 13801385 13737496 13678063 13622159 13570228 
2522.142 13523874 13484874 13454388 13432857 13419256 13412284 13410029 
2525.517 13411259 13415189 13421545 13430021 13440580 13453465 13469050 
2528.893 13488361 13512253 13541581 13576586 13616278 13658641 13702000 
2532.268 13744609 13786062 13827107 13869011 13913451 13961317 14013227 
2535.643 14069694 14131475 14199222 14274169 14356663 14445511 14538660 
2539.018 14632890 14724537 14811608 14894136 14973765 15053683 15136944 
2542.394 15225058 15318443 15415452 15514372 15613349 15711626 15808312 
2545.769 15903264 15995523 16083779 16166342 16242111 16311014 16374147 
2549.144 16433159 16489735 16544564 16597506 16647667 16694183 16737329 
2552.519 16777928 16818260 16860006 16904236 16950504 16997260 17042400 
2555.895 17083788 17120356 17151894 17178090 17198774 17213012 17219044 
2559.270 17215114 17199532 17172058 17133004 17084098 17027548 16965284 
2562.645 16899172 16830452 16759850 16687846 16614478 16539814 16463684 
2566.020 16386395 16308708 16232172 16158845 16091274 16031897 15982082 
2569.396 15942827 15914125 15895223 15885392 15883846 15889930 15902715 
2572.771 15921103 15943445 15968710 15995832 16024711 16056513 16092237 
2576.146 16133158 16179102 16229626 16283425 16339121 16396409 16455906 
2579.521 16518647 16585872 16657753 16733298 16810750 16888218 16964734 
2582.896 17040816 17118460 17200014 17287618 17382034 17482300 17586660 
2586.272 17692528 17798112 17902308 18004730 18105174 18203810 18299532 
2589.647 18392058 18480698 18565828 18647794 18727490 18805680 18882396 
2593.022 18957532 19030918 19102444 19173532 19245672 19320492 19399206 
2596.397 19482194 19568802 19658204 19749840 19843580 19940530 20042220 
2599.773 20149696 20264038 20385146 20512854 20646750 20787222 20934658 
2603.148 21089516 21251808 21420706 21594544 21771098 21948770 22126586 
2606.523 22304368 22482572 22662002 22842798 23024542 23206398 23387386 
2609.898 23566526 23742974 23915504 24082708 24241532 24388954 24521034 
2613.274 24634852 24728386 24801138 24854220 24889446 24909484 24916538 
2616.649 24912676 24899622 24878746 24851202 24818118 24780406 24738874 
2620.024 24694504 24648176 24601328 24555464 24512620 24474304 24442054 
2623.399 24416468 24397892 24386326 24381910 24384678 24395124 24413314 
2626.775 24439462 24473322 24514584 24563002 24619000 24682790 24755606 
2630.150 24837976 24930186 25031508 25140682 25255784 25375166 25497568 
2633.525 25622502 25749824 25880106 26013274 26149932 26289836 26433096 
2636.900 26579748 26729622 26882828 27038906 27197228 27357054 27517366 
2640.276 27676780 27834204 27988328 28137982 28282172 28420324 28552434 
2643.651 28679344 28802610 28924212 29046662 29171238 29299074 29430210 
2647.026 29563764 29699166 29835924 29974076 30114294 30257328 30404036 
2650.401 30555270 30711396 30872876 31040112 31213750 31394080 31581506 
2653.777 31776000 31976898 32183486 32394848 32610390 32829930 33053264 
2657.152 33280902 33512880 33748884 33988820 34232288 34478944 34728648 
2660.527 34981188 35236212 35493432 35752108 36011360 36270484 36528540 
2663.902 36785156 37040268 37293436 37545016 37795224 38044380 38293212 
2667.278 38542480 38793224 39046220 39302012 39560816 39822616 40087328 
2670.653 40354896 40625280 40898680 41175052 41453788 41733944 42014132 
2674.028 42292348 42566980 42836080 43098284 43352556 43597964 43834312 
2677.403 44061876 44281488 44494936 44704408 44913136 45124468 45341636 
2680.779 45568080 45806900 46060996 46333264 46625732 46940328 47277684 
2684.154 47638012 48020428 48423632 48846232 49287020 49744980 50219296 
2687.529 50709036 51213116 51730136 52258504 52796976 53344808 53902152 
2690.904 54469900 55048924 55640508 56245380 56863676 57495296 58139504 
2694.280 58795292 59461872 60138192 60823532 61517288 62219188 62929272 
2697.655 63647732 64374604 65109200 65850832 66597820 67348960 68102720 
2701.030 68858128 69614712 70371800 71128360 71882504 72631016 73369992 
2704.405 74095064 74800920 75483200 76136544 76755808 77335760 77870464 
2707.781 78355152 78785792 79159160 79473648 79728608 79923848 80059448 
2711.156 80135704 80153280 80113472 80018016 79869288 79669336 79419304 
2714.531 79119528 78769064 78366584 77911576 77404184 76846400 76241824 
2717.906 75594352 74908896 74189936 73442304 72670304 71879024 71073760 
2721.281 70260496 69445592 68635328 67836208 67054412 66295332 65564664 
2724.657 64866304 64204672 63582444 63001856 62464480 61971248 61522824 
2728.032 61119332 60760840 60446856 60176784 59949176 59762792 59616200 
2731.407 59508420 59438428 59405528 59408832 59446828 59517732 59618672 
2734.782 59747124 59900416 60076244 60273388 60489964 60724292 60973464 
2738.158 61233660 61500492 61768752 62033696 62290968 62537180 62769400 
2741.533 62985920 63185580 63367844 63533424 63683988 63822208 63950872 
2744.908 64073084 64191728 64308592 64425260 64542724 64661988 64784212 
2748.283 64910204 65040728 65175956 65315768 65459864 65608128 65761188 
2751.659 65920360 66088340 66267856 66462384 66675352 66909632 67168184 
2755.034 67453784 67768704 68114736 68492816 68902984 69343824 69812848 
2758.409 70306576 70820176 71348664 71885432 72423248 72954288 73469576 
2761.784 73960336 74418720 74836856 75208704 75529296 75794528 76000984 
2765.160 76146976 76231552 76255640 76222080 76135408 76001496 75827072 
2768.535 75619432 75385280 75131408 74864336 74589952 74313848 74040840 
2771.910 73775024 73518672 73273928 73041504 72822304 72616488 72424824 
2775.285 72247472 72084328 71934896 71796808 71666960 71540648 71411696 
2778.661 71272952 71116848 70935360 70721936 70471784 70182288 69853744 
2782.036 69489304 69094344 68674832 68238240 67791320 67340024 66890040 
2785.411 66446280 66012500 65591596 65185660 64795440 64420836 64060912 
2788.786 63714796 63381532 63060588 62751980 62456024 62172848 61902924 
2792.162 61646304 61402928 61172312 60953984 60746508 60548468 60357100 
2795.537 60169704 59982424 59792104 59595828 59391092 59175820 58948816 
2798.912 58708648 58453948 58183564 57896268 57591268 57268484 56927812 
2802.287 56570268 56196392 55807424 55404196 54987920 54559792 54121728 
2805.663 53675632 53224640 52771572 52320432 51875132 51439920 51019188 
2809.038 50616840 50236632 49881544 49554044 49255548 48987152 48748764 
2812.413 48539924 48359404 48205508 48076316 47969920 47884928 47820044 
2815.788 47775356 47750840 47747840 47767000 47809388 47875568 47965736 
2819.164 48080204 48219432 48383740 48574092 48790988 49034816 49304912 
2822.539 49600096 49918488 50257984 50616064 50990160 51377816 51775716 
2825.914 52179732 52585508 52987324 53379240 53755616 54110696 54439852 
2829.289 54738472 55002812 55229684 55416844 55563004 55668340 55734336 
2832.665 55764020 55761160 55730904 55678848 55611020 55534196 55455128 
2836.040 55379656 55313072 55258768 55218584 55193300 55183256 55189048 
2839.415 55213200 55259336 55333096 55441316 55591132 55790016 56045536 
2842.790 56365372 56758312 57234916 57805980 58482948 59275388 60188048 
2846.166 61217864 62350708 63560120 64803056 66024304 67159528 68136016 
2849.541 68886984 69355760 69502048 69310392 68788712 67969560 66899664 
2852.916 65639696 64255952 62809640 61359840 59956516 58637272 57430432 
2856.291 56353296 55412104 54604880 53922372 53351180 52874064 52473512 
2859.667 52133216 51837464 51573996 51332768 51106504 50890940 50684572 
2863.042 50488120 50304452 50137216 49990716 49868984 49775632 49713396 
2866.417 49684828 49691364 49734052 49812900 49926444 50071768 50244480 
2869.792 50438736 50647524 50863860 51080380 51290296 51488000 51669192 
2873.167 51831152 51974240 52101160 52216984 52328804 52445324 52574212 
2876.543 52722936 52897268 53100160 53333456 53596908 53889020 54207724 
2879.918 54550588 54915384 55299940 55702580 56121428 56554456 56998496 
2883.293 57449380 57901000 58346416 58778220 59189604 59575720 59933696 
2886.668 60263300 60566524 60847016 61110100 61361596 61607968 61856540 
2890.044 62114660 62390340 62692216 63029132 63411476 63850684 64360120 
2893.419 64955220 65652648 66468632 67417608 68508096 69739624 71098120 
2896.794 72555200 74064688 75562256 76974752 78221944 79225728 79926152 
2900.169 80284600 80293336 79974272 79378056 78574784 77638824 76647600 
2903.545 75668408 74752272 73938688 73252672 72707784 72310832 72062704 
2906.920 71961096 72001760 72180024 72491840 72933984 73505368 74205224 
2910.295 75032192 75983104 77050792 78222352 79480376 80800288 82151560 
2913.670 83500632 84808224 86033632 87139192 88089864 88859752 89434456 
2917.046 89811672 90000088 90016880 89884904 89625920 89258816 88797672 
2920.421 88249592 87616824 86898752 86094432 85205552 84238720 83205688 
2923.796 82124416 81017448 79907512 78817968 77768568 76773600 75842896 
2927.171 74981112 74188832 73464512 72805024 72206672 71665096 71175744 
2930.547 70733128 70330728 69961288 69616664 69288432 68969040 68651784 
2933.922 68331536 68005944 67674248 67337896 66999592 66662640 66329956 
2937.297 66003860 65685748 65376580 65077640 64790712 64519124 64267136 
2940.672 64040332 63843964 63682488 63558468 63471256 63416460 63384944 
2944.048 63363896 63337216 63286224 63194008 63046524 62835372 62559948 
2947.423 62227524 61852756 61453236 61049236 60658412 60293068 59959524 
2950.798 59656984 59378820 59113400 58847456 58567724 58262936 57925572 
2954.173 57552564 57144996 56707336 56245796 55767748 55279620 54787184 
2957.549 54294820 53805908 53323380 52849772 52387040 51936560 51499228 
2960.924 51074788 50663048 50263900 49877936 49506876 49153424 48820724 
2964.299 48512248 48230684 47978540 47757752 47569944 47416548 47298376 
2967.674 47215184 47165392 47145040 47148104 47167308 47194864 47224636 
2971.050 47252236 47276284 47298192 47321836 47351880 47392564 47447076 
2974.425 47516044 47596488 47681608 47760416 47818672 47838872 47803176 
2977.800 47695360 47501964 47216216 46837788 46373928 45838052 45248628 
2981.175 44627656 43996312 43375184 42781304 42226176 41716764 41254728 
2984.551 40837704 40460572 40117820 39805692 39523108 39272664 39059308 
2987.926 38888520 38762576 38677632 38620552 38569928 38497000 38369324 
2991.301 38159196 37846844 37426324 36906488 36310544 35671920 35024932 
2994.676 34403224 33831760 33324402 32885074 32508892 32186374 31905640 
2998.052 31655844 31428420 31217026 31017656 30827840 30645932 30471168 
3001.427 30303194 30141782 29987140 29839226 29697640 29562486 29433260 
3004.802 29310062 29193386 29084676 28985274 28896624 28819500 28753896 
3008.177 28699026 28653754 28616380 28585556 28560218 28539482 28523030 
3011.552 28510610 28502154 28497944 28498226 28503462 28513900 28529928 
3014.928 28551584 28578938 28612310 28652020 28698814 28753330 28815498 
3018.303 28884584 28958638 29035220 29111000 29182966 29248636 29306058 
3021.678 29353984 29391246 29417092 29430850 29432338 29422766 29404256 
3025.053 29380254 29355368 29333884 29319314 29314210 29319208 29333530 
3028.429 29355686 29383586 29414824 29446840 29477442 29504252 29525352 
3031.804 29539644 29547058 29548406 29545818 29541526 29538404 29538262 
3035.179 29543158 29553868 29571140 29595154 29626050 29663866 29708710 
3038.554 29760302 29818782 29884016 29956254 30035462 30121504 30213636 
3041.930 30310868 30411782 30514746 30618588 30722312 30825456 30927736 
3045.305 31028652 31127990 31224680 31318258 31407970 31494074 31577196 
3048.680 31658482 31738572 31818106 31896974 31974542 32049660 32121260 
3052.055 32188232 32249932 32305718 32355402 32398954 32436940 32470326 
3055.431 32500784 32530424 32561138 32594532 32631644 32672900 32718380 
3058.806 32767896 32821890 32880462 32944158 33012402 33084586 33158824 
3062.181 33233218 33305980 33375998 33443376 33509192 33575304 33643184 
3065.556 33714292 33789356 33868120 33950300 34035292 34122524 34211672 
3068.932 34302524 34394796 34488592 34583812 34680628 34779368 34880532 
3072.307 34984352 35091060 35201108 35314412 35431452 35552728 35678396 
3075.682 35808376 35942572 36079728 36218836 36358636 36498228 36636820 
3079.057 36774412 36910924 37046472 37180444 37312716 37442576 37569620 
3082.433 37693696 37814996 37933652 38049988 38164368 38277328 38389560 
3085.808 38502032 38616024 38732796 38853228 38977460 39105240 39236036 
3089.183 39369084 39504456 39642232 39782960 39926928 40073628 40221912 
3092.558 40370456 40517748 40663160 40807312 40951688 41097976 41247916 
3095.934 41402140 41560100 41720776 41882608 42044500 42205724 42366648 
3099.309 42527696 42689320 42852096 43015780 43180296 43345268 43510456 
3102.684 43675304 43839552 44002688 44164128 44323608 44481056 44637092 
3106.059 44792672 44948448 45105280 45263740 45423700 45585228 45748140 
3109.435 45912624 46078936 46247268 46417912 46590508 46765048 46941140 
3112.810 47118704 47298008 47478824 47661192 47844528 48028240 48211544 
3116.185 48394260 48576424 48758700 48941980 49126116 49310996 49495440 
3119.560 49677916 49857348 50033620 50207396 50380052 50553036 50727392 
3122.936 50903124 51079524 51255692 51430744 51604708 51778140 51952280 
3126.311 52127876 52305440 52484804 52665212 52845620 53024980 53202580 
3129.686 53377820 53550128 53719464 53885948 54050316 54213728 54377696 
3133.061 54543976 54713892 54887860 55065284 55245188 55426180 55606796 
3136.437 55786100 55963548 56138736 56311196 56480640 56646708 56809480 
3139.812 56970008 57129880 57290676 57453768 57619528 57787320 57955672 
3143.187 58122836 58287492 58449360 58609096 58768356 58928968 59092328 
3146.562 59258944 59428552 59600160 59772296 59943700 60113760 60281724 
3149.938 60448032 60613228 60777876 60942852 61108996 61276196 61444452 
3153.313 61613044 61781736 61950116 62118256 62286376 62454952 62623664 
3156.688 62791796 62958344 63122428 63283504 63442148 63600124 63759156 
3160.063 63921200 64087412 64257568 64430832 64605848 64781636 64957684 
3163.438 65134608 65312536 65491648 65671256 65850212 66026576 66199272 
3166.814 66367208 66530192 66688292 66841656 66989772 67132680 67270032 
3170.189 67402160 67530032 67654776 67777760 67899120 68018424 68133992 
3173.564 68244408 68348216 68444944 68535376 68620544 68701608 68779088 
3176.939 68853248 68923984 68991680 69057096 69121696 69187120 69254656 
3180.315 69324776 69397112 69470784 69545136 69619696 69695040 69771912 
3183.690 69851336 69933688 70018552 70104952 70191944 70278536 70364240 
3187.065 70448952 70532936 70615960 70698032 70779184 70859144 70938408 
3190.440 71017656 71097768 71179184 71262528 71347616 71434240 71521896 
3193.816 71609912 71697800 71784608 71869248 71950768 72028280 72101664 
3197.191 72171416 72239144 72306216 72373888 72442520 72511848 72580808 
3200.566 72648528 72714568 72779280 72843464 72907808 72972752 73038416 
3203.941 73104352 73170424 73237176 73305224 73375952 73449720 73525936 
3207.317 73602784 73677648 73748008 73812328 73870736 73924312 73975496 
3210.692 74026184 74077696 74130392 74184120 74238488 74293448 74349120 
3214.067 74405624 74463088 74520912 74577952 74633112 74685680 74735272 
3217.442 74782656 74828312 74872760 74915872 74957016 74995728 75031912 
3220.818 75066264 75099816 75134200 75170288 75208304 75247784 75288136 
3224.193 75328376 75368648 75409488 75451704 75496056 75542696 75590688 
3227.568 75638912 75685528 75729080 75767936 75801352 75829128 75851176 
3230.943 75868816 75883888 75898648 75915848 75937680 75964752 75996800 
3234.319 76032088 76068048 76102672 76134536 76163320 76189496 76213352 
3237.694 76235072 76253952 76269352 76280888 76288936 76294904 76300984 
3241.069 76308928 76319280 76330888 76342144 76350640 76354944 76355216 
3244.444 76352848 76350680 76351304 76356680 76367824 76384496 76406184 
3247.820 76431944 76461336 76493704 76528352 76563568 76597400 76627720 
3251.195 76652424 76670680 76682944 76690448 76695632 76700848 76708240 
3254.570 76719232 76734656 76754264 76777000 76801280 76824968 76846088 
3257.945 76863168 76875232 76882272 76885360 76885592 76884016 76881400 
3261.321 76878000 76873768 76868824 76863288 76857552 76851624 76845296 
3264.696 76837312 76826312 76810888 76790128 76764584 76735480 76705240 
3268.071 76675752 76648512 76624280 76602736 76582616 76562856 76542344 
3271.446 76520216 76495520 76467856 76436768 76401992 76363872 76323344 
3274.822 76281120 76238232 76195184 76151704 76107448 76062168 76016096 
3278.197 75970000 75925160 75882392 75842224 75803792 75766080 75727968 
3281.572 75688800 75648928 75609576 75572112 75537328 75505160 75474640 
3284.947 75444408 75413264 75381104 75348632 75317336 75288176 75261928 
3288.323 75238288 75216504 75195976 75176392 75157952 75141368 75127112 
3291.698 75115096 75105248 75097408 75091864 75089888 75092728 75101664 
3295.073 75117424 75139048 75165008 75193336 75222288 75251488 75281432 
3298.448 75312920 75346536 75381616 75416656 75449416 75478744 75504528 
3301.823 75528184 75552792 75581376 75616312 75659064 75709432 75766592 
3305.199 75829560 75896992 75968024 76041600 76116448 76191120 76264336 
3308.574 76335512 76404760 76473072 76541560 76610920 76680416 76749088 
3311.949 76815360 76878520 76938600 76996984 77055464 77115568 77177536 
3315.324 77240712 77303216 77363240 77420024 77473568 77524696 77574408 
3318.700 77622744 77669304 77712608 77751880 77786080 77815536 77841216 
3322.075 77863576 77882760 77898016 77908448 77913168 77912296 77906704 
3325.450 77898256 77888312 77877520 77865440 77850688 77831584 77807008 
3328.825 77776608 77740504 77699216 77653048 77602024 77545336 77482560 
3332.201 77413808 77338736 77257896 77170736 77075992 76972024 76857392 
3335.576 76731256 76594872 76450784 76303040 76154672 76008168 75863648 
3338.951 75719728 75573608 75422296 75263544 75095880 74918584 74731568 
3342.326 74535304 74330248 74117264 73898152 73674504 73448152 73220472 
3345.702 72991840 72761576 72528960 72292752 72052960 71810024 71565608 
3349.077 71321640 71080248 70842720 70610424 70384384 70165304 69953464 
3352.452 69749384 69551984 69359560 69169592 68979560 68787672 68593424 
3355.827 68397816 68203464 68013120 67829744 67655512 67491792 67338936 
3359.203 67197080 67065864 66944464 66831872 66726692 66626364 66528760 
3362.578 66432500 66336288 66240140 66145056 66052580 65964052 65881372 
3365.953 65805680 65737636 65677696 65625244 65579192 65537652 65498276 
3369.328 65458940 65418028 65374732 65328980 65280764 65229512 65174220 
3372.704 65112472 65041884 64960644 64868072 64764940 64652996 64533956 
3376.079 64408460 64275668 64132920 63977176 63805356 63615352 63406184 
3379.454 63178448 62932836 62670016 62390564 62094820 61783264 61456860 
3382.829 61116852 60764688 60401804 60028684 59646076 59254388 58854172 
3386.205 58446708 58034132 57618432 57201540 56785500 56370692 55958008 
3389.580 55547604 55139316 54733548 54330044 53929012 53530676 53135956 
3392.955 52745456 52360540 51982120 51610304 51244284 50882336 50521544 
3396.330 50160164 49796888 49432504 49069020 48709320 48355776 48009440 
3399.706 47669628 47333660 46998844 46662588 46323124 45980100 45633884 
3403.081 45285660 44935844 44585832 44236176 43888012 43542688 43201704 
3406.456 42865852 42535444 42209560 41887096 41566808 41248100 40931628 
3409.831 40618880 40311228 40009788 39714476 39424376 39137544 38852572 
3413.207 38568332 38284420 38001204 37718960 37438204 37158928 36881204 
3416.582 36605136 36331324 36060432 35793120 35529644 35269348 35011068 
3419.957 34753340 34495160 34235692 33975236 33714112 33452752 33191406 
3423.332 32930038 32668684 32407452 32147128 31888738 31633284 31381224 
3426.708 31132618 30886466 30642054 30398562 30155810 29913798 29673090 
3430.083 29433510 29195158 28957150 28718848 28479510 28239594 27999920 
3433.458 27761824 27526968 27296504 27071278 26852090 26638790 26431934 
3436.833 26230912 26035472 25844692 25657440 25472202 25287534 25102698 
3440.208 24917450 24732210 24547856 24365086 24184708 24007064 23832538 
3443.584 23660810 23491916 23324798 23158026 22990200 22819470 22645490 
3446.959 22468440 22290696 22115392 21945704 21783988 21630726 21484970 
3450.334 21343820 21204524 21064544 20922836 20779678 20635874 20492292 
3453.709 20349520 20207626 20066234 19925750 19786876 19650714 19518514 
3457.085 19390610 19266316 19144030 19021502 18896932 18769144 18638144 
3460.460 18505004 18370696 18236532 18103032 17971126 17841300 17714754 
3463.835 17592558 17475952 17365204 17259898 17158444 17058494 16958222 
3467.210 16856012 16751343 16643982 16534720 16424039 16312459 16200356 
3470.586 16088007 15976101 15865115 15755637 15647834 15541364 15435468 
3473.961 15329633 15223823 15118966 15016672 14918860 14826590 14740716 
3477.336 14660547 14584779 14511731 14439619 14367246 14293755 14218633 
3480.711 14141846 14063568 13984242 13904727 13825978 13749227 13675191 
3484.087 13604415 13536556 13471168 13407773 13346164 13286339 13229120 
3487.462 13173854 13120132 13066895 13012504 12955867 12897052 12837358 
3490.837 12778696 12723897 12674461 12631511 12594877 12563635 12536725 
3494.212 12513228 12493005 12476160 12462998 12453552 12447789 12445574 
3497.588 12447142 12453177 12464396 12481411 12504293 12532462 12564419 
3500.963 12598868 12634718 12671561 12710044 12751295 12796508 12846777 
3504.338 12903059 12966210 13037326 13117264 13206575 13305096 13411772 
3507.713 13523840 13639083 13754835 13870413 13986022 14103613 14225412 
3511.089 14352690 14486310 14624871 14767351 14911933 15058040 15205431 
3514.464 15353627 15502045 15649106 15792230 15929284 16058747 16180100 
3517.839 16294466 16403703 16508458 16608419 16701654 16785128 16855562 
3521.214 16910816 16949058 16969834 16972830 16957498 16922874 16867826 
3524.590 16791154 16692460 16572446 16431954 16272383 16095573 15903195 
3527.965 15697405 15480858 15255807 15024698 14789598 14551611 14310740 
3531.340 14066786 13819684 13569373 13316234 13060032 12800365 12536384 
3534.715 12266770 11990852 11710241 11427293 11146298 10871871 10606921 
3538.091 10353805 10111860 9879641 9655610 9438939 9229722 9028827 8837594 
3541.948 8655605 8481497 8312929 8146521 7978928 7808532 7634123 7455199 
3545.805 7273013 7088816 6904460 6722775 6546715 6379099 6221799 6075040 
3549.663 5937265 5805544 5676079 5545847 5413474 5279263 5144992 5012975 
3553.520 4884785 4760921 4641043 4523811 4408819 4296066 4186253 4080314 
3557.378 3978815 3881618 3788354 3698519 3612110 3529827 3452703 3381637 
3561.235 3317093 3258801 3205925 3158028 3114608 3074997 3038759 3003025 
3565.093 2963624 2913785 2847210 2758936 2648911 2522016 2387396 2255948 
3568.950 2136560 2034383 1950667 1882708 1826639 1778361 1733915 1690703 
3572.807 1646599 1599705 1548260 1490804 1427039 1357566 1284848 1211478 
3576.665 1140146 1073410 1011998 955476 903112 853642 806369 761159 718343 
3581.004 678551 643143 612749 588892 572834 564772 564772 570910 579702 
3585.344 585508 582290 564042 526952 471222 400377 322049 244730 176408 
3589.684 122149 84069 60772 48245 41518 34493 21637 -99 -32105 -72590 
3594.505 -117974 -163618 -205548 -241513 -271349 -296647 -319559 -342801 
3598.363 -368195 -396896 -429635 -466640 -507581 -551530 -596830 -641134 
3602.220 -681396 -714709 -738625 -752021 -754799 -748581 -735681 -719505 
3606.078 -704189 -693901 -692413 -702866 -726154 -760323 -800839 -841683 
3609.935 -877562 -905007 -924118 -938236 -952188 -971033 -997017 -1029049 
3613.792 -1062765 -1091883 -1110623 -1116473 -1109962 -1095056 -1077737 
3617.168 -1064682 -1061905 -1073110 -1100014 -1142184 -1196543 -1259122 
3620.543 -1324730 -1388281 -1444723 -1490525 -1522686 -1539657 -1540581 
3623.918 -1525162 -1492902 -1444195 -1380057 -1303589 -1220399 -1140895 
3627.293 -1078531 -1048717 -1063657 -1125858 -1225785 -1341874 -1452054 
3630.669 -1539954 -1598819 -1630806 -1643548 -1646585 -1648301 -1655035 
3634.044 -1669855 -1692530 -1721871 -1755599 -1792096 -1830305 -1869138 
3637.419 -1906813 -1941285 -1970576 -1993038 -2008902 -2019587 -2027107 
3640.794 -2033901 -2041123 -2047719 -2051181 -2047290 -2032252 -2002998 
3644.170 -1958306 -1899555 -1830998 -1757579 -1686193 -1624237 -1578153 
3647.545 -1552764 -1551576 -1575611 -1623544 -1691705 -1773650 -1859966 
3650.920 -1939537 -2002107 -2039177 -2047158 -2027470 -1986639 -1935282 
3654.295 -1886129 -1853038 -1846142 -1869963 -1920470 -1987562 -2057513 
3657.671 -2118451 -2164512 -2194612 -2212512 -2223325 -2232291 -2242972 
3661.046 -2256882 -2273561 -2291788 -2309454 -2324285 -2333974 -2336116 
3664.421 -2328404 -2309355 -2278043 -2234566 -2180897 -2119803 -2055897 
3667.796 -1995412 -1945211 -1912685 -1902327 -1914302 -1941615 -1972522 
3671.172 -1992675 -1991026 -1963781 -1914170 -1852939 -1795197 -1759889 
3674.547 -1762661 -1811597 -1900380 -2010452 -2118781 -2207370 -2269473 
3677.922 -2307872 -2330448 -2345278 -2358361 -2372169 -2386240 -2399091 
3681.297 -2409141 -2416094 -2419916 -2420147 -2415270 -2401892 -2376749 
3684.673 -2337863 -2286316 -2226951 -2166688 -2114890 -2079542 -2065065 
3688.048 -2071166 -2092699 -2121913 -2151621 -2178062 -2201040 -2222864 
3691.423 -2245477 -2269473 -2293139 -2313771 -2328305 -2335556 -2335820 
3694.798 -2331140 -2324647 -2319539 -2318056 -2320923 -2327383 -2335655 
3698.174 -2343762 -2350221 -2354868 -2358427 -2362283 -2368610 -2378562 
3701.549 -2392204 -2407856 -2422947 -2434051 -2438532 -2434611 -2421563 
3704.924 -2399783 -2370126 -2333644 -2291260 -2243631 -2191546 -2136322 
3708.299 -2079673 -2024633 -1974897 -1934688 -1908990 -1901436 -1914763 
3711.675 -1948410 -1998875 -2059986 -2122738 -2179546 -2223951 -2252795 
3715.050 -2266046 -2266408 -2258102 -2245938 -2233841 -2224149 -2216897 
3718.425 -2210502 -2202392 -2190953 -2175425 -2157028 -2137872 -2120265 
3721.800 -2105889 -2095930 -2090390 -2088874 -2091149 -2097183 -2107240 
3725.176 -2120924 -2137311 -2153434 -2165633 -2169556 -2161577 -2140081 
3728.551 -2105691 -2060646 -2009232 -1956030 -1905824 -1862441 -1828095 
3731.926 -1802622 -1784836 -1772924 -1766687 -1768601 -1782922 -1814731 
3735.301 -1866565 -1937228 -2019258 -2102525 -2176875 -2235126 -2274681 
3738.677 -2295809 -2299632 -2287239 -2258431 -2212381 -2150203 -2075551 
3742.052 -1997721 -1931125 -1892430 -1897114 -1950224 -2040101 -2139059 
3745.427 -2216798 -2253882 -2245741 -2201139 -2135366 -2065790 -2007582 
3748.802 -1971796 -1963418 -1981790 -2020676 -2072617 -2131607 -2192799 
3752.177 -2251410 -2303126 -2342675 -2366204 -2373092 -2365578 -2349167 
3755.553 -2329624 -2312486 -2301577 -2297852 -2301016 -2309816 -2324186 
3758.928 -2344619 -2372334 -2406472 -2443573 -2477607 -2501492 -2509629 
3762.303 -2500142 -2475696 -2442190 -2406868 -2376387 -2354209 -2339642 
3765.678 -2328668 -2315946 -2298182 -2274945 -2249927 -2228632 -2218183 
3769.054 -2223391 -2245444 -2281175 -2324285 -2367489 -2404133 -2430657 
3772.429 -2446110 -2452272 -2451514 -2446769 -2440180 -2432371 -2422782 
3775.804 -2410262 -2393555 -2372465 -2348574 -2324680 -2304708 -2292447 
3779.179 -2289316 -2294523 -2304872 -2315683 -2322175 -2321648 -2313013 
3782.555 -2297556 -2277252 -2255234 -2234104 -2216864 -2205458 -2201798 
3785.930 -2207007 -2220853 -2242444 -2269440 -2298577 -2326460 -2350386 
3789.305 -2369071 -2382780 -2392369 -2399091 -2403375 -2404462 -2401068 
3792.680 -2391776 -2376354 -2356054 -2333875 -2312947 -2296105 -2283910 
3796.056 -2273956 -2261563 -2241521 -2209578 -2164347 -2109120 -2050093 
3799.431 -1997259 -1961241 -1951808 -1974006 -2024271 -2090489 -2155742 
3802.806 -2205326 -2229918 -2229259 -2209447 -2181359 -2157160 -2147730 
3806.181 -2160457 -2195271 -2245576 -2299566 -2346563 -2379781 -2397608 
3809.557 -2402551 -2398498 -2388085 -2372136 -2349265 -2317430 -2275835 
3812.932 -2226127 -2173381 -2125013 -2089698 -2073738 -2078783 -2098568 
3816.307 -2121122 -2132827 -2123034 -2088148 -2031889 -1963352 -1894376 
3819.682 -1838554 -1807637 -1808363 -1839808 -1892859 -1954546 -2012661 
3823.058 -2059756 -2094150 -2118781 -2137839 -2155445 -2173776 -2193095 
3826.433 -2211556 -2226226 -2235027 -2236643 -2231566 -2220919 -2205788 
3829.808 -2187293 -2165534 -2140707 -2113143 -2083367 -2052402 -2021434 
3833.183 -1990993 -1960780 -1930433 -1899127 -1866862 -1834891 -1805756 
3836.559 -1783186 -1771373 -1773551 -1790413 -1820407 -1859505 -1902591 
3839.934 -1944683 -1982483 -2013585 -2038221 -2057810 -2075288 -2093820 
3843.309 -2116605 -2144697 -2176974 -2209546 -2236840 -2253520 -2255333 
3846.684 -2240862 -2210963 -2168732 -2117363 -2059360 -1995709 -1925616 
3850.060 -1848518 -1765466 -1681210 -1605487 -1553424 -1541241 -1579803 
3853.435 -1667314 -1787278 -1914137 -2023908 -2103943 -2151983 -2172820 
3856.810 -2174040 -2162863 -2144829 -2123298 -2100118 -2076574 -2053523 
3860.185 -2032153 -2013288 -1997886 -1986441 -1979580 -1978261 -1984231 
3863.561 -1998875 -2022259 -2051511 -2080729 -2101767 -2106251 -2089863 
3866.936 -2053160 -2002899 -1949334 -1905889 -1884149 -1889692 -1919910 
3870.311 -1963055 -2005043 -2034000 -2045443 -2042508 -2033736 -2028591 
3873.686 -2033802 -2051940 -2079245 -2108625 -2130915 -2140543 -2135135 
3877.062 -2116968 -2090786 -2063119 -2040826 -2028393 -2028954 -2041321 
3880.437 -2061470 -2082048 -2095106 -2094150 -2075848 -2041321 -1995874 
3883.812 -1948971 -1911926 -1894343 -1901799 -1932082 -1975556 -2017510 
3887.187 -2045542 -2052204 -2037297 -2006494 -1968960 -1935941 -1916281 
3890.563 -1915489 -1934028 -1967937 -2009891 -2052600 -2090127 -2118352 
3893.938 -2134805 -2137938 -2126596 -2100942 -2062262 -2013486 -1960021 
3897.313 -1907374 -1861286 -1825356 -1800807 -1785298 -1775465 -1767347 
3900.688 -1758899 -1750979 -1746359 -1749098 -1763090 -1789852 -1828161 
3904.063 -1875209 -1925616 -1974600 -2018235 -2054578 -2082839 -2103251 
3907.439 -2116242 -2121748 -2120430 -2112483 -2099228 -2082279 -2063284 
3910.814 -2043959 -2025359 -2007220 -1989112 -1969554 -1947618 -1923571 
3914.189 -1898566 -1875176 -1855677 -1843206 -1838620 -1841754 -1850827 
3917.564 -1863299 -1876759 -1889395 -1900512 -1909650 -1916644 -1920899 
3920.940 -1921757 -1918821 -1912322 -1903514 -1894805 -1888834 -1887844 
3924.315 -1892529 -1902063 -1913939 -1924957 -1932379 -1934787 -1932214 
3927.690 -1925221 -1915126 -1902887 -1888933 -1873988 -1858614 -1844592 
3931.065 -1834166 -1830008 -1834066 -1846142 -1864552 -1885733 -1905362 
3934.441 -1920470 -1929080 -1931554 -1929707 -1925517 -1921394 -1917633 
3937.816 -1913939 -1908990 -1901601 -1891077 -1878310 -1865476 -1855479 
3941.191 -1850893 -1853665 -1863266 -1877848 -1893815 -1907176 -1914170 
3944.566 -1913213 -1903976 -1888141 -1868445 -1848353 -1830635 -1817470 
3947.942 -1809320 -1806086 -1806482 -1809122 -1812851 -1816381 -1819318 
3951.317 -1821297 -1822221 -1822320 -1821924 -1821463 -1821331 -1821858 
3954.692 -1822980 -1823970 -1823871 -1821660 -1816381 -1808099 -1797111 
3958.067 -1784440 -1771175 -1758173 -1745666 -1733686 -1721970 -1710485 
3961.443 -1699693 -1690055 -1682266 -1676721 -1673354 -1671605 -1670449 
3964.818 -1669162 -1666951 -1663650 -1659029 -1653286 -1646585 -1639059 
3968.193 -1631335 -1624237 -1618956 -1616249 -1616876 -1620474 -1625888 
3971.568 -1631269 -1634636 -1634305 -1629717 -1621167 -1609647 -1596706 
3974.944 -1583105 -1569536 -1556066 -1542496 -1528926 -1515620 -1503271 
3978.319 -1492605 -1484416 -1478472 -1474741 -1472495 -1471075 -1470217 
3981.694 -1470019 -1470415 -1472066 -1475104 -1479925 -1486364 -1493992 
3985.069 -1502049 -1509742 -1515884 -1519681 -1520308 -1517733 -1511988 
3988.445 -1504096 -1495082 -1486100 -1478175 -1472264 -1468599 -1468103 
3991.820 -1470580 -1476095 -1484251 -1494091 -1504162 -1513176 -1519945 
3995.195 -1523874 -1525723 -1526846 -1528827 -1533119 -1540119 -1549628 
3998.570 -1560358 -1570856 -1579572 -1585878 -1589542 
##END=
