
##TITLE=Z235b_3_c
##JCAMP-DX=5.01  $$ Nicolet v. 1
##DATATYPE=INFRARED SPECTRUM
##ORIGIN=UniL
##OWNER=Nicolet
##LONGDATE=2011/09/22
##TIME=11:34:24
##SPECTROMETER/DATA SYSTEM=Nicolet iS5
##DATA PROCESSING=
Ratio against background
%Transmittance->Absorbance
Truncated
ElementMultiply or ElementDivide
##COMMENTS=
Number of sample scans: 32
Collection length: 51.16 sec
Sample gain: 2.0
Background collected on: Jeu Sep 22 11:28:50 2011 (GMT+02:00);
Number of background scans: 32
Background gain: 2.0
Sample spacing:  1.000
Number of scan points: 12415
Resolution points: 8192
Number of FFT points: 65536
Apodization: N-B fort;
Phase correction: Mertz;
Laser frequency: 15798.0 cm-1
Number of rejected sample scans: 0
Number of rejected background scans: 0
Bench serial number: ASB1000141;
##RESOLUTION=4.000
##XUNITS=1/CM
##YUNITS=ABSORBANCE
##FIRSTX=649.893372
##LASTX=4000.122314
##FIRSTY=0.125093
##MAXX=4000.122314
##MINX=649.893372
##MAXY=0.268549
##MINY=-0.001617
##XFACTOR=1.000000
##YFACTOR=1.000000E-009
##NPOINTS=6950
##DELTAX=0.482117
##ZPD=6100
##XYDATA=(X++(Y..Y))
649.893 125092816 123693360 122543224 121646016 120964240 120444144 
652.786 120034160 119708104 119469224 119339728 119338768 119470104 
655.679 119713512 120035600 120402256 120795472 121215720 121674872 
658.571 122182440 122733072 123305432 123871192 124409792 124917888 
661.464 125411184 125913304 126445416 127014472 127612872 128225672 
664.357 128841024 129455032 130066408 130667464 131229000 131692368 
667.250 131985248 132063328 131957592 131769272 131617960 131578896 
670.142 131658704 131815912 131984696 132104384 132130384 132049680 
673.035 131877272 131644264 131378008 131090344 130775256 130420280 
675.928 130019072 129578736 129117448 128653704 128194200 127729624 
678.820 127238664 126700264 126106576 125466944 124802776 124134984 
681.713 123472360 122807712 122124016 121405776 120650480 119871816 
684.606 119094600 118341616 117622080 116929528 116246752 115558648 
687.498 114861744 114168928 113503384 112889040 112337488 111846040 
690.391 111399424 110982312 110586976 110218992 109892880 109625056 
693.284 109424656 109289376 109208880 109172112 109175312 109225928 
696.177 109339488 109530512 109806560 110162368 110583432 111051672 
699.069 111554256 112087224 112655168 113262952 113910032 114585872 
701.962 115272440 115950752 116607880 117242048 117860544 118473048 
704.855 119083744 119687368 120270496 120819008 121324712 121789768 
707.747 122224944 122642792 123050360 123445768 123822104 124177232 
710.640 124521752 124886696 125316544 125857248 126542288 127374456 
713.533 128319960 129307240 130246640 131040912 131605000 131887360 
716.425 131872952 131589888 131101712 130505536 129917072 129446592 
719.318 129194856 129229784 129576992 130218520 131092800 132107032 
722.211 133135528 134043856 134702720 134995376 134850528 134252880 
725.104 133256288 131973744 130561424 129187760 127984912 127035424 
727.996 126358928 125923232 125665384 125517904 125431928 125378984 
730.889 125349432 125340552 125346736 125355896 125354912 125335816 
733.782 125302032 125267056 125248176 125255880 125288728 125333608 
736.674 125373232 125395968 125401360 125400288 125408784 125438288 
739.567 125489592 125552776 125613376 125661224 125695288 125724328 
742.460 125759648 125808688 125868944 125930576 125981896 126017896 
745.352 126044912 126078456 126134976 126223016 126338808 126467616 
748.245 126591432 126697688 126785888 126866016 126952376 127053096 
751.138 127166224 127279968 127379928 127456736 127511352 127553272 
754.031 127594784 127643064 127695512 127742784 127775864 127793120 
756.923 127804280 127826784 127876904 127962712 128079904 128215256 
759.816 128354432 128491240 128629832 128781824 128956808 129155592 
762.709 129367096 129575160 129768256 129949344 130138296 130367592 
765.601 130669880 131065696 131559744 132141936 132797600 133513272 
768.494 134283344 135109920 136002048 136980272 138084528 139390640 
771.387 141004096 143045776 145610368 148701280 152173168 155687088 
774.279 158770832 160856544 161428704 160195744 157151888 152608336 
777.172 147069120 141141744 135360096 130073472 125453456 121487640 
780.065 118053784 114980640 112117896 109367328 106681456 104057584 
782.958 101515840 99086072 96797368 94678792 92759904 91066312 89618136 
786.332 88426240 87489984 86801744 86353104 86142192 86177464 86476128 
789.707 87057760 87941312 89139768 90663000 92522728 94736568 97326792 
793.082 100314712 103704888 107469056 111526792 115746024 119936544 
795.975 123849288 127215920 129748016 131167904 131264672 129910112 
798.867 127100152 122959096 117735344 111763528 105392960 98981352 92832768 
802.242 87166728 82136024 77809304 74188296 71227704 68854680 66989348 
805.617 65552912 64484328 63738400 63281892 63090124 63134536 63373828 
808.992 63753212 64198912 64624228 64947368 65093152 65007440 64663260 
812.367 64056880 63206768 62145588 60919024 59578992 58177956 56770020 
815.742 55402728 54113288 52929828 51868116 50933712 50125948 49440896 
819.116 48873856 48420596 48077276 47840092 47703868 47664636 47720140 
822.491 47873460 48132764 48512468 49029404 49697720 50525416 51507024 
825.866 52621672 53825972 55055128 56227164 57238508 57983124 58366352 
829.241 58316024 57805680 56859216 55552160 53991256 52302716 50612448 
832.616 49018792 47594640 46379752 45383164 44591560 43975596 43499068 
835.990 43120132 42798012 42499740 42200104 41887356 41563196 41240192 
839.365 40935852 40666108 40442096 40266112 40133664 40036420 39966956 
842.740 39920460 39895580 39892528 39911780 39952680 40014008 40095212 
846.115 40198428 40327224 40486724 40680952 40910220 41171956 41461372 
849.490 41774104 42108204 42465648 42850452 43267584 43720704 44211232 
852.865 44739996 45308276 45920064 46582540 47304068 48093528 48958148 
856.239 49903696 50935500 52061788 53293600 54646588 56139188 57789860 
859.614 59617152 61638324 63870108 66328996 69028424 71971576 75141368 
862.989 78491736 81942712 85373064 88642288 91601800 94111520 96072904 
866.364 97436296 98212680 98469032 98323488 97927632 97431024 96975576 
869.739 96670232 96577472 96721392 97088728 97641648 98322784 99062384 
873.113 99782400 100386272 100767536 100817728 100430984 99533232 98095760 
876.488 96145784 93763560 91072768 88226616 85373992 82656648 80195360 
879.863 78074904 76353280 75057200 74183024 73700104 73552504 73669200 
883.238 73964024 74350736 74755736 75118528 75402040 75591944 75693216 
886.613 75726432 75721776 75717360 75748648 75845888 76029600 76305256 
889.987 76664720 77088464 77553416 78038104 78529880 79026672 79537200 
893.362 80076656 80660624 81302400 82006504 82765152 83552360 84319064 
896.737 84992616 85468256 85625376 85342128 84508320 83058672 80983752 
900.112 78339480 75234464 71819320 68269064 64745596 61396176 58337324 
903.487 55643028 53355416 51485316 50020012 48930036 48176408 47719956 
906.862 47521884 47552640 47792852 48232352 48868812 49703660 50738828 
910.236 51974576 53407828 55029856 56824772 58763956 60799904 62869452 
913.611 64891732 66776416 68445984 69842152 70942928 71766080 72368920 
916.986 72839584 73277336 73791632 74481648 75423088 76666456 78222696 
920.361 80060480 82101000 84230392 86316560 88224096 89854016 91161864 
923.736 92173984 92984448 93747936 94663464 95928280 97731480 100221720 
927.110 103478176 107497192 112164824 117261192 122426640 127191144 
930.003 131045448 133451136 133968784 132344648 128549408 122813912 
932.896 115577064 107445248 99043488 90937808 83594616 77298712 72185344 
936.271 68260888 65441100 63592992 62568784 62238844 62485444 63197420 
939.646 64262912 65537996 66844628 67988968 68759760 68974824 68516712 
943.020 67345008 65513336 63151592 60452376 57621536 54846016 52280028 
946.395 50016072 48093932 46511060 45237560 44230600 43444828 42842004 
949.770 42388236 42054284 41815952 41649620 41534464 41454332 41397108 
953.145 41355888 41328992 41317912 41325896 41356544 41412852 41497316 
956.520 41611404 41755904 41930852 42135476 42367924 42625456 42905496 
959.894 43205252 43523240 43858940 44212988 44586568 44980640 45395744 
963.269 45831532 46287368 46762392 47256224 47769032 48300856 48851908 
966.644 49421660 50009788 50615952 51241340 51888016 52559256 53258760 
970.019 53989076 54751780 55547264 56375444 57237072 58134504 59071488 
973.394 60052884 61082984 62164628 63299336 64488100 65732084 67034348 
976.768 68399760 69834520 71345112 72938024 74619616 76398168 78285232 
980.143 80296440 82452880 84776848 87290184 90011464 92952264 96116056 
983.518 99495272 103069912 106799960 110617712 114430856 118111184 121503808 
986.893 124453616 126808416 128452168 129324824 129427480 128827568 
989.786 127644704 126050320 124236816 122396416 120717760 119350976 
992.678 118403232 117939048 117975560 118494672 119452264 120794944 
995.571 122465688 124410896 126586896 128953296 131472408 134110672 
998.464 136832128 139600480 142378816 145120864 147769024 150253232 
1001.356 152482912 154360080 155792384 156699648 157035392 156793056 
1004.249 156009952 154762304 153160576 151347488 149473600 147697680 
1007.142 146174592 145029648 144363456 144241696 144692880 145718432 
1010.035 147299216 149407552 152010240 155074144 158567616 162452336 
1012.927 166685424 171220992 176007344 180993760 186130272 191355440 
1015.820 196592752 201736672 206638912 211126912 215010656 218106848 
1018.713 220284464 221480272 221723856 221132240 219913152 218341936 
1021.605 216708880 215320912 214448496 214289072 214974912 216552384 
1024.498 218996048 222218864 226096480 230487856 235230864 240163696 
1027.391 245120048 249918480 254387376 258367952 261730544 264400688 
1030.284 266360576 267649648 268344320 268549440 268380368 267942256 
1033.177 267334256 266633872 265883024 265082272 264178400 263072784 
1036.070 261622336 259673296 257092144 253777440 249686080 244830368 
1038.963 239271616 233106096 226456816 219472160 212305712 205117920 
1041.856 198065664 191275344 184847312 178847072 173304048 168225088 
1044.750 163602240 159420736 155665568 152322768 149380080 146826528 
1047.643 144654512 142860656 141447392 140420720 139785312 139538112 
1050.536 139661952 140123408 140871904 141850784 143002656 144274912 
1053.429 145627056 147021664 148416080 149757440 150970896 151961168 
1056.322 152628208 152868832 152597040 151760176 150341840 148372704 
1059.215 145926704 143127024 140130704 137110720 134256256 131737184 
1062.108 129693792 128237112 127432880 127309952 127863824 129062864 
1065.001 130850808 133146824 135856416 138863072 142035712 145247872 
1067.894 148373776 151304480 153958816 156273648 158204640 159721104 
1070.787 160797520 161415536 161565808 161250240 160485232 159301696 
1073.680 157748928 155891376 153810576 151612448 149412032 147335360 
1076.573 145510304 144042336 143016096 142485632 142471312 142965536 
1079.466 143934384 145324640 147056768 149026416 151113184 153172928 
1082.359 155063024 156667568 157909232 158776096 159322112 159664592 
1085.252 159956944 160364144 161051136 162148048 163747280 165894672 
1088.146 168581888 171742064 175242704 178904352 182492800 185744096 
1091.039 188414192 190283472 191198096 191088960 189965264 187911184 
1093.932 185060672 181590384 177687024 173522928 169254128 164993296 
1096.825 160808512 156730304 152754368 148856480 145001520 141156688 
1099.718 137295056 133399520 129465920 125504808 121544048 117626376 
1102.611 113812800 110175784 106786352 103715488 101021264 98743248 96907608 
1105.986 95525064 94595192 94110408 94058152 94421952 95178984 96300896 
1109.361 97751232 99481816 101436936 103549328 105736168 107907352 109958352 
1112.737 111773856 113246088 114275048 114784616 114735376 114123160 
1115.630 112979104 111358704 109338984 107006232 104445448 101743816 
1118.523 98978648 96212896 93499000 90872944 88357640 85968936 83717456 
1121.898 81613328 79667296 77888264 76282936 74853080 73595872 72506408 
1125.273 71581824 70824856 70247408 69869632 69714608 69804952 70154552 
1128.648 70764128 71618944 72689136 73934600 75302520 76734176 78166728 
1132.024 79529000 80753392 81779448 82560976 83078808 83343240 83396792 
1135.399 83302936 83141000 82993528 82927464 82992120 83208816 83569104 
1138.774 84034536 84542016 85015584 85366896 85512072 85383352 84928272 
1142.149 84118504 82947720 81427680 79584752 77456536 75092328 72546664 
1145.525 69879704 67155384 64431712 61761720 59189868 56747472 54456300 
1148.900 52328540 50368892 48577500 46951664 45487792 44181332 43027412 
1152.275 42021216 41157712 40432896 39843604 39388312 39065904 38875692 
1155.650 38816160 38885296 39081060 39402604 39850944 40429804 41144528 
1159.026 42000044 42999868 44144432 45430508 46851148 48395188 50047860 
1162.401 51786652 53580900 55392680 57173076 58867720 60423128 61784796 
1165.776 62906368 63751400 64293028 64517772 64425908 64031772 63360980 
1169.151 62449252 61339232 60073084 58692684 57237560 55740928 54234040 
1172.527 52745532 51300100 49921500 48630672 47444152 46375108 45432312 
1175.902 44619648 43938528 43387560 42964272 42665632 42488088 42428200 
1179.277 42481836 42645636 42916464 43291856 43769844 44348564 45025736 
1182.652 45798764 46665356 47624956 48679748 49834904 51098380 52478632 
1186.028 53982696 55613200 57366224 59228524 61176164 63174540 65173140 
1189.403 67110912 68920728 70530672 71880784 72930384 73664184 74095536 
1192.778 74262824 74223984 74040368 73772624 73471816 73170856 72888216 
1196.153 72626552 72377688 72125960 71852440 71539664 71170952 70731528 
1199.529 70208224 69586320 68850680 67986728 66982776 65835676 64553716 
1202.904 63160056 61688928 60183292 58689952 57249356 55894920 54648992 
1206.279 53522500 52517484 51629668 50851752 50174444 49588100 49083636 
1209.654 48651500 48283264 47972696 47715852 47512312 47364700 47277984 
1213.030 47257848 47310200 47440460 47653504 47953488 48344108 48827288 
1216.405 49402392 50065296 50809180 51624632 52501780 53432296 54409692 
1219.780 55429608 56488716 57584228 58714264 59878732 61081420 62331008 
1223.155 63641020 65029264 66514044 68111008 69831488 71679512 73650912 
1226.531 75731128 77895640 80106544 82310088 84443000 86429952 88188984 
1229.906 89645832 90732008 91394576 91603920 91354904 90673616 89616224 
1233.281 88274888 86768608 85227336 83794968 82605656 81773528 81398504 
1236.656 81554472 82294144 83655424 85660208 88316792 91615872 95528488 
1240.031 99998040 104932000 110212504 115683352 121155536 126430128 
1242.925 131285560 135501824 138892272 141305808 142659312 142945872 
1245.818 142234688 140658256 138386816 135626928 132587928 129465520 
1248.711 126442536 123653752 121178272 119029224 117149872 115422176 
1251.604 113681864 111765072 109527232 106876784 103795432 100335000 
1254.497 96607520 92751000 88918872 85248656 81838888 78753264 76011008 
1257.872 73594656 71457400 69534720 67756456 66049800 64354204 62624896 
1261.247 60834016 58973672 57052300 55091352 53118432 51164728 49261896 
1264.623 47436024 45709964 44101116 42620488 41274260 40063128 38983148 
1267.998 38026372 37183328 36444640 35801688 35247280 34775488 34379448 
1271.373 34051564 33783408 33565820 33391382 33254214 33149958 33075042 
1274.748 33025234 32994166 32975114 32961066 32946944 32930896 32914310 
1278.124 32900478 32893260 32895866 32910094 32936472 32974828 33023446 
1281.499 33078972 33134364 33178960 33199954 33183896 33121954 33012792 
1284.874 32864988 32695762 32528602 32389782 32302112 32284622 32351404 
1288.249 32511212 32770828 33135258 33607920 34189912 34878596 35667424 
1291.625 36543964 37489676 38480636 39484356 40461588 41370100 42164684 
1295.000 42807304 43272856 43552508 43656836 43612140 43457168 43232776 
1298.375 42978796 42730188 42512604 42345424 42240860 42204596 42235120 
1301.750 42323724 42455748 42610036 42763936 42896020 42987504 43024084 
1305.125 42996208 42898108 42727668 42487572 42185680 41834740 41452548 
1308.501 41060204 40677388 40320864 40003032 39731360 39510304 39343872 
1311.876 39236108 39191464 39213116 39301540 39453296 39661980 39920460 
1315.251 40222564 40564892 40946556 41367808 41828936 42328252 42863948 
1318.626 43434320 44039396 44680940 45360616 46077240 46823024 47583364 
1322.002 48334740 49046984 49689360 50231796 50651656 50939856 51103672 
1325.377 51170804 51185008 51206072 51297792 51513704 51890928 52437060 
1328.752 53128692 53913328 54722988 55488940 56151064 56673512 57046744 
1332.127 57287012 57428656 57519316 57611732 57753976 57988504 58347440 
1335.503 58847988 59493752 60273272 61164612 62136832 63155764 64189308 
1338.878 65206408 66180208 67088524 67913032 68641344 69266592 69785456 
1342.253 70195368 70491160 70660328 70684392 70539016 70197592 69639176 
1345.628 68850952 67831520 66590832 65149240 63536452 61787432 59945028 
1349.004 58058484 56179536 54367068 52681260 51176956 49906300 48908340 
1352.379 48207212 47813492 47723656 47923816 48389184 49086308 49969824 
1355.754 50978496 52043224 53086420 54029228 54806620 55367120 55680016 
1359.129 55737460 55552648 55160228 54609912 53971668 53329076 52768392 
1362.505 52377508 52225728 52351228 52760460 53428812 54312356 55354512 
1365.880 56497884 57684116 58849396 59930844 60864280 61588724 62059156 
1369.255 62248136 62150328 61780480 61171512 60371036 59433564 58426428 
1372.630 57423588 56498148 55722544 55153156 54820304 54725956 54846656 
1376.006 55146120 55586124 56139716 56794488 57552792 58428248 59443180 
1379.381 60625760 62005148 63608488 65450272 67519120 69760088 72061448 
1382.756 74269584 76187328 77610304 78367528 78327336 77430840 75703632 
1386.131 73277064 70379544 67296608 64335756 61736664 59633572 58058104 
1389.507 56959204 56244852 55808476 55557240 55413120 55312060 55206472 
1392.882 55057044 54835380 54528160 54139220 53688796 53205464 52717248 
1396.257 52241948 51785084 51344960 50919588 50513804 50143204 49830184 
1399.632 49596716 49457492 49414272 49458680 49576844 49756572 49991128 
1403.008 50281124 50633076 51057236 51562992 52154252 52828780 53578088 
1406.383 54390428 55253392 56156344 57091560 58052276 59032240 60024688 
1409.758 61022048 62017532 63006224 63985272 64951792 65900108 66818348 
1413.133 67688880 68490792 69204848 69820984 70340904 70777664 71149872 
1416.509 71477592 71778080 72064696 72352800 72663448 73021712 73453016 
1419.884 73970464 74567048 75217488 75886808 76542432 77158704 77727032 
1423.259 78256192 78770184 79299016 79868928 80495088 81178592 81911784 
1426.634 82683656 83486336 84313264 85155528 85998576 86818088 87582888 
1430.010 88263560 88839664 89307616 89681680 89991816 90275168 90567112 
1433.385 90900552 91303752 91806408 92448936 93284336 94373856 95773928 
1436.760 97507160 99550984 101843840 104302192 106832760 109329264 111678456 
1440.135 113738432 115350264 116372008 116685640 116229168 115002392 
1443.028 113057848 110485776 107391320 103893144 100102800 96115400 92020992 
1446.404 87902608 83852072 79989448 76447864 73354496 70802936 68825992 
1449.779 67403944 66483736 66008872 65932772 66221692 66847488 67771992 
1453.154 68940576 70293680 71765344 73297896 74850944 76392080 77899880 
1456.529 79356536 80752560 82081144 83336296 84517384 85622632 86652176 
1459.905 87609720 88505280 89352224 90162232 90940096 91675280 92338872 
1463.280 92892840 93299408 93541616 93635704 93630024 93584280 93541408 
1466.655 93516136 93492672 93438592 93313336 93078944 92697752 92120904 
1470.030 91281184 90092384 88461904 86333464 83730672 80785200 77699728 
1473.406 74680688 71866512 69303392 66975696 64851836 62920736 61207448 
1476.781 59761880 58629952 57838084 57382028 57237072 57376164 57785960 
1480.156 58473356 59460772 60772428 62419832 64395360 66675500 69232472 
1483.531 72044280 75104576 78416192 81977328 85769424 89732264 93748752 
1486.906 97655256 101231248 104220128 106370272 107447032 107290304 
1489.800 105862400 103274376 99774936 95677608 91300608 86880784 82548840 
1493.175 78359320 74305904 70364360 66532776 62843912 59372404 56218904 
1496.550 53472804 51183032 49344928 47918412 46846572 46078052 45578420 
1499.925 45325124 45302540 45495368 45884228 46445012 47152240 47972584 
1503.301 48866108 49782800 50644096 51342088 51737268 51671392 51027384 
1506.676 49788972 48062472 46021576 43825256 41569576 39292436 37006424 
1510.051 34727320 32482468 30320284 28297768 26459754 24835204 23427950 
1513.426 22222408 21193114 20312436 19555806 18900116 18326418 17821448 
1516.802 17378516 16999636 16691290 16457867 16295534 16189419 16114485 
1520.177 16044823 15963726 15875151 15804257 15785255 15841026 15971804 
1523.552 16158434 16372873 16592721 16806344 17018450 17245176 17506342 
1526.927 17814372 18169018 18560468 18976814 19411054 19863904 20342922 
1530.302 20857232 21412422 22008754 22640674 23299592 23978630 24673812 
1533.678 25384476 26107846 26837498 27560752 28262402 28924530 29529962 
1537.053 30066424 30523208 30894934 31179642 31378516 31491864 31519402 
1540.428 31464968 31338982 31159174 30944104 30704568 30439290 30135390 
1543.803 29777796 29357814 28883060 28377132 27871934 27393580 26949384 
1547.179 26528216 26106334 25660322 25178812 24671078 24163304 23690028 
1550.554 23275574 22924318 22622172 22346470 22078438 21811964 21556240 
1553.929 21329794 21149486 21019020 20925444 20840196 20729282 20553742 
1557.304 20276362 19870598 19334556 18709122 18072324 17507172 17060768 
1560.680 16735366 16504329 16331552 16183641 16032239 15858311 15654979 
1564.055 15428911 15197847 14984191 14805986 14667915 14561308 14468119 
1567.430 14370055 14254789 14121343 13980410 13850025 13747653 13682097 
1570.805 13652828 13652999 13674677 13710924 13755246 13800803 13837094 
1574.181 13851838 13835043 13785103 13715849 13654742 13634331 13675361 
1577.556 13780760 13938495 14132605 14351012 14590021 14854944 15156294 
1580.931 15505204 15908351 16365545 16869926 17410106 17970782 18533080 
1584.306 19075058 19569322 19986636 20301880 20497500 20570556 20534602 
1587.682 20421298 20274142 20143310 20081606 20132342 20328826 20690742 
1591.057 21220946 21902700 22695482 23538820 24348966 25029684 25492650 
1594.432 25661974 25494722 24988092 24180890 23144850 21965012 20732376 
1597.807 19522324 18389188 17371066 16487980 15747081 15146173 14675627 
1601.183 14321459 14068531 13905514 13826285 13830048 13919678 14097246 
1604.558 14361013 14704108 15112413 15565026 16036263 16491696 16891214 
1607.933 17193914 17358720 17354754 17166886 16798800 16273862 15632687 
1611.308 14928462 14213292 13530062 12906882 12352361 11861267 11420421 
1614.684 11015673 10636937 10282245 9958864 9679935 9459156 9304122 9213815 
1618.541 9179871 9189144 9225830 9273487 9317900 9347217 9356325 9347522 
1622.398 9331339 9321657 9330121 9362046 9414627 9479542 9548700 9616922 
1626.256 9683255 9749295 9817072 9887979 9961407 10036949 10115624 10200657 
1630.113 10296225 10405082 10526629 10655715 10783073 10897352 10988248 
1633.489 11047790 11072976 11066790 11039056 11003778 10976762 10969966 
1636.864 10988588 11031510 11092623 11163364 11233981 11294680 11338959 
1640.239 11363617 11371916 11370930 11369637 11374841 11387256 11401814 
1643.614 11408788 11396849 11356848 11285327 11186652 11074098 10965751 
1646.990 10879856 10830255 10822680 10855700 10922122 11012036 11111216 
1650.365 11200456 11257376 11254110 11167478 10994535 10770437 10563293 
1653.740 10434948 10407832 10461083 10557557 10661861 10751756 10817381 
1657.115 10857535 10876322 10879176 10870309 10849925 10815987 10764833 
1660.490 10693782 10601964 10491699 10367345 10235903 10105619 9985072 
1663.866 9881709 9800161 9740653 9698739 9665130 9627761 9572444 9487500 
1667.723 9366312 9210972 9032312 8847637 8675412 8529005 8413387 8326102 
1671.581 8260009 8205540 8151551 8087206 8001473 7886636 7742146 7578789 
1675.438 7416976 7278573 7178546 7117814 7085885 7065948 7042206 7005534 
1679.295 6955365 6898939 6846426 6804823 6772312 6737076 6679535 6579916 
1683.153 6427958 6233799 6029009 5854943 5739598 5684103 5670306 5673394 
1687.010 5674435 5661712 5631937 5587061 5531853 5471552 5410723 5354364 
1690.868 5307336 5274064 5256758 5253270 5255853 5251292 5224429 5162729 
1694.725 5063558 4939274 4816198 4722365 4672291 4660099 4664018 4657421 
1698.583 4614788 4520998 4380235 4218605 4076166 3984499 3952298 3965673 
1702.440 4002590 4041885 4068975 4076601 4062855 4031216 3988646 3944273 
1706.297 3905890 3878977 3865438 3863967 3871388 3883390 3896462 3908598 
1710.155 3919799 3932003 3947517 3968181 3993996 4023123 4053089 4081652 
1714.012 4107239 4129684 4147848 4159423 4159858 4144369 4110818 4063624 
1717.870 4013693 3975939 3961293 3973598 4008208 4055597 4104597 4145941 
1721.727 4174544 4189598 4193646 4190602 4184379 4176986 4168957 4160493 
1725.584 4152498 4146209 4142864 4142128 4141760 4138114 4127844 4110250 
1729.442 4087973 4065798 4047838 4034628 4020615 3994498 3942167 3853135 
1733.299 3727727 3583077 3446725 3347277 3297127 3290450 3309614 3335223 
1737.157 3352052 3350783 3329280 3291151 3244614 3198715 3160798 3134565 
1741.014 3120715 3117545 3123151 3135800 3153188 3173014 3192774 3211032 
1744.872 3227389 3243178 3260337 3280601 3304473 3330582 3356292 3378765 
1748.729 3395863 3406783 3411925 3412694 3411024 3409187 3409554 3414397 
1752.586 3424750 3439945 3456511 3468701 3468935 3450532 3409755 3348479 
1756.444 3274292 3198982 3133264 3082305 3044131 3011132 2973799 2924026 
1760.301 2858516 2780211 2697485 2620675 2558777 2516484 2493889 2487524 
1764.159 2492590 2504653 2519050 2531248 2537014 2533248 2519617 2498855 
1768.016 2476861 2459666 2451069 2449436 2448936 2441606 2420914 2386097 
1771.874 2344020 2307943 2291188 2300681 2334626 2384664 2440473 2493956 
1775.731 2542013 2585475 2627409 2669780 2711855 2749866 2778710 2794684 
1779.588 2798352 2793583 2787514 2786313 2792616 2804688 2817761 2826699 
1783.446 2828233 2822963 2813992 2805555 2801086 2801653 2806155 2813125 
1787.303 2821563 2831368 2843208 2855948 2866654 2870490 2861851 2836404 
1791.161 2794617 2741330 2685816 2636876 2600608 2576543 2561044 2547945 
1795.018 2532714 2513085 2489390 2462632 2434075 2403588 2370305 2333393 
1798.875 2292987 2250886 2209988 2173589 2143553 2120478 2103031 2090513 
1802.733 2082222 2078494 2079992 2086550 2096872 2108691 2119180 2126705 
1806.590 2131233 2134296 2137559 2141888 2146816 2150646 2151611 2149413 
1810.448 2145784 2144385 2149014 2161701 2181681 2205658 2229537 2250253 
1814.305 2267006 2281595 2297683 2318303 2345252 2377334 2411818 2445038 
1818.163 2474328 2498455 2517950 2534114 2547879 2559577 2569110 2575676 
1822.020 2578476 2576509 2568777 2554511 2533514 2507453 2479726 2455701 
1825.877 2439873 2434942 2439640 2448903 2454968 2450336 2430610 2397025 
1829.735 2356979 2320968 2299182 2297217 2314039 2344153 2380633 2417749 
1833.592 2452968 2486858 2521416 2558777 2599742 2643577 2689083 2736195 
1837.450 2786080 2841940 2906747 2982139 3067322 3159763 3255129 3349113 
1841.307 3438776 3522244 3599180 3670349 3738488 3807574 3882755 3969485 
1845.165 4070982 4187055 4313501 4443497 4568912 4682540 4779982 4860425 
1849.022 4925634 4978117 5019311 5048238 5061446 5055144 5026953 4977883 
1852.879 4911928 4834893 4751608 4664755 4574136 4477944 4374712 4265582 
1856.737 4153769 4044159 3940595 3844644 3755165 3669280 3584948 3501869 
1860.594 3421844 3347911 3281937 3223616 3170310 3118746 3067322 3017438 
1864.452 2973032 2938871 2917588 2908281 2906013 2903845 2895539 2879129 
1868.309 2857249 2835637 2820462 2814593 2817161 2823964 2830868 2835970 
1872.167 2840039 2845942 2856182 2871357 2889535 2907247 2920924 2929363 
1876.024 2933533 2935835 2938404 2941139 2941339 2935134 2919022 2891937 
1879.881 2855281 2812625 2767039 2719857 2670680 2617475 2559577 2498555 
1883.739 2438473 2385031 2342954 2313772 2296018 2285059 2275766 2265041 
1887.596 2251851 2237797 2225141 2216049 2211020 2210054 2213051 2220611 
1891.454 2233833 2253217 2277965 2304912 2329462 2347884 2358511 2363875 
1895.311 2368439 2378401 2398057 2427944 2465931 2507852 2549745 2590209 
1899.168 2629143 2667180 2704620 2739430 2769040 2790815 2804455 2812592 
1903.026 2820395 2832001 2850011 2873525 2898508 2920590 2937069 2948311 
1906.883 2957619 2968661 2983874 3002124 3019573 3031719 3035189 3029883 
1910.741 3018372 3004526 2990980 2978036 2964157 2947044 2925794 2901577 
1914.598 2876794 2853146 2829967 2803754 2769140 2722458 2663412 2596909 
1918.456 2531281 2473795 2428178 2392260 2360410 2326098 2285692 2240561 
1922.313 2196134 2159869 2136527 2126538 2126571 2130933 2135329 2138791 
1926.170 2143087 2150246 2160069 2169360 2171990 2163166 2140923 2108958 
1930.028 2074698 2046200 2029056 2023031 2023331 2022931 2016673 2003025 
1933.885 1984484 1964946 1946973 1929932 1911129 1887600 1859647 1831696 
1937.743 1810834 1804179 1813396 1834524 1858782 1876552 1881078 1872259 
1941.600 1855854 1840314 1831596 1831330 1835456 1839216 1839848 1840281 
1945.458 1846770 1867334 1905571 1958189 2015375 2064211 2094574 2101999 
1949.315 2088981 2063146 2033683 2007419 1987447 1973966 1966510 1965578 
1953.172 1971869 1985316 2002359 2015841 2017106 1999863 1963215 1913325 
1957.030 1861511 1820317 1796727 1790838 1794697 1797824 1792235 1775833 
1960.887 1753010 1732750 1722072 1723635 1736243 1755372 1778361 1805344 
1964.745 1838151 1878881 1925140 1970205 2003158 2014909 2002492 1969839 
1968.602 1927503 1886502 1854789 1834059 1819718 1806708 1792069 1778028 
1972.459 1770875 1776698 1798490 1833094 1874156 1916287 1958722 2007252 
1976.317 2071336 2158671 2269138 2392527 2511152 2606809 2666780 2686950 
1980.174 2671114 2627576 2565210 2489757 2405854 2317970 2232368 2158271 
1984.032 2104763 2077661 2076163 2092544 2114718 2130600 2133697 2123841 
1987.889 2107626 2092310 2085652 2089381 2102432 2121610 2144818 2172090 
1991.747 2205392 2245290 2289723 2333160 2370072 2396658 2413950 2426778 
1995.604 2441839 2463731 2492756 2523516 2548712 2561311 2560344 2548912 
1999.461 2533814 2520350 2510919 2502254 2487791 2462298 2424646 2379967 
2003.319 2336391 2302180 2281895 2273867 2272169 2269804 2262876 2252018 
2007.176 2241660 2237297 2241060 2252218 2266640 2280796 2294652 2309575 
2011.034 2329462 2355213 2384164 2409652 2423946 2423213 2408453 2386830 
2014.891 2367540 2358478 2363275 2378667 2399490 2421214 2443105 2467797 
2018.749 2499988 2541780 2590009 2638043 2676548 2699619 2706054 2700186 
2022.606 2688517 2676581 2665213 2651278 2631109 2603275 2570976 2542280 
2026.463 2525149 2523683 2535847 2552711 2563177 2560144 2541780 2514051 
2030.321 2485758 2465497 2456300 2457300 2463898 2473328 2486624 2507652 
2034.178 2539880 2584376 2635243 2683549 2719791 2740063 2746899 2750000 
2038.036 2761304 2788548 2834003 2892837 2957052 3019073 3075197 3126489 
2041.893 3176118 3225419 3272289 3310549 3333453 3336792 3321567 3295425 
2045.750 3268182 3250656 3248553 3263408 3291619 3326976 3362537 3391989 
2049.608 3410089 3412560 3396831 3363772 3318161 3269317 3228123 3205558 
2053.465 3207828 3233597 3274659 3318429 3352987 3371285 3373022 3363739 
2057.323 3351017 3340232 3332719 3325841 3315724 3299464 3278164 3256164 
2061.180 3238471 3229625 3229859 3237169 3248352 3261305 3276495 3295391 
2065.038 3320365 3350416 3382405 3411024 3431429 3442550 3446257 3447627 
2068.895 3450967 3457713 3465595 3469135 3463124 3444888 3416634 3383741 
2072.752 3352653 3327610 3309714 3296193 3283439 3268583 3251724 3234833 
2076.610 3220646 3210331 3202987 3195611 3185798 3173081 3159763 3149417 
2080.467 3145746 3149283 3157460 3165571 3169009 3165938 3158362 3150752 
2084.325 3147348 3150185 3157294 3164002 3164470 3154991 3135767 3109769 
2088.182 3081304 3053407 3026847 3000022 2970963 2939137 2906780 2877728 
2092.040 2856782 2845642 2843408 2845876 2848244 2847410 2842807 2836537 
2095.897 2831868 2830467 2831935 2833602 2832702 2827899 2820962 2815493 
2099.754 2814893 2821696 2834570 2850712 2866354 2879596 2890670 2901944 
2103.612 2916087 2934067 2954516 2974766 2992215 3005794 3017538 3030684 
2107.469 3048869 3072961 3101660 3131395 3159096 3182527 3202153 3219811 
2111.327 3236869 3252792 3265044 3269718 3265011 3252125 3236468 3225018 
2115.184 3224551 3238538 3265512 3300399 3336358 3368413 3394260 3414831 
2119.042 3433065 3450933 3469303 3486771 3501368 3512324 3520140 3527155 
2122.899 3535139 3544325 3552443 3556017 3551407 3537043 3513493 3483598 
2126.756 3449831 3413529 3372988 3325340 3267715 3199716 3123986 3044999 
2130.614 2968561 2898208 2835036 2778343 2726059 2678648 2637510 2605775 
2134.471 2584842 2573376 2566010 2556278 2538080 2510219 2475394 2440539 
2138.329 2411351 2391827 2380366 2372537 2362742 2348617 2330828 2313539 
2142.186 2301281 2295785 2295185 2294586 2289356 2277398 2260878 2244258 
2146.043 2233067 2228404 2228471 2227972 2221111 2206624 2185877 2163865 
2149.901 2144019 2126172 2105895 2074965 2025494 1954495 1863707 1759963 
2153.758 1649991 1539847 1431726 1327554 1230949 1152770 1109085 1119018 
2157.616 1195330 1337757 1529041 1740601 1941182 2107693 2231902 2318069 
2161.473 2379234 2427245 2470562 2512551 2552778 2592209 2633843 2681882 
2165.331 2739663 2805788 2873325 2931031 2968194 2978003 2960254 2921024 
2169.188 2869656 2815160 2763571 2717090 2675214 2637443 2605075 2581009 
2173.045 2568643 2570210 2585542 2611609 2644010 2678081 2709021 2733494 
2176.903 2747599 2748065 2732594 2701119 2657812 2610375 2569377 2543646 
2180.760 2539013 2554778 2585276 2622042 2658212 2690117 2718990 2747565 
2184.618 2779144 2814793 2853246 2892304 2931165 2970830 3014135 3063284 
2188.475 3117078 3171278 3219711 3255797 3277330 3287245 3291786 3299164 
2192.333 3314155 3336625 3361802 3382672 3394560 3397232 3395128 3395796 
2196.190 3405714 3428089 3460619 3497927 3534938 3567108 3594269 3617489 
2200.047 3638238 3656047 3668879 3673156 3667074 3652272 3633460 3617589 
2203.905 3610005 3613513 3627346 3647327 3669447 3690599 3709814 3727894 
2207.762 3744972 3761014 3774584 3784276 3789992 3793869 3799451 3810014 
2211.620 3826761 3847753 3867510 3880482 3882053 3871321 3850327 3823719 
2215.477 3795407 3767966 3742298 3718302 3696581 3680006 3672454 3677567 
2219.334 3696213 3725989 3760245 3791730 3813691 3823117 3821145 3811685 
2223.192 3799518 3788455 3779597 3772478 3765459 3757404 3748447 3739090 
2227.049 3729732 3720542 3710750 3699989 3688327 3677132 3667642 3661461 
2230.907 3658520 3657317 3655981 3653575 3650467 3649632 3654577 3667542 
2234.764 3688126 3713256 3737653 3756636 3767832 3772077 3773782 3777625 
2238.622 3786950 3802928 3823585 3846149 3867644 3887235 3905455 3923711 
2242.479 3943237 3963299 3981924 3997574 4008877 4016903 4023759 4031952 
2246.336 4042788 4056266 4070280 4082254 4090749 4095331 4097171 4098275 
2250.194 4099713 4102556 4106570 4112256 4120586 4133363 4152163 4177354 
2254.051 4207363 4238211 4265414 4285090 4295363 4296869 4292485 4284923 
2257.909 4276323 4266820 4255912 4242728 4227638 4212616 4199501 4190702 
2261.766 4186955 4187357 4190836 4196624 4205891 4220846 4244201 4276524 
2265.624 4315709 4356605 4392920 4418760 4431815 4433355 4427965 4420802 
2269.481 4416116 4415078 4416785 4418526 4418693 4417555 4417287 4421438 
2273.338 4432752 4452033 4477911 4507338 4537137 4564425 4588233 4608358 
2277.196 4625203 4639536 4651794 4662444 4672592 4683678 4697578 4715565 
2281.053 4738243 4764706 4793584 4823100 4851613 4878553 4903182 4925467 
2284.911 4944804 4960891 4973693 4983614 4992295 5001646 5013042 5027489 
2288.768 5044082 5061714 5079012 5095573 5113074 5133626 5160349 5194484 
2292.625 5236033 5282348 5330178 5376772 5420285 5461386 5501517 5541988 
2296.483 5583705 5625895 5666445 5703607 5736308 5765015 5790937 5816055 
2300.340 5841275 5866127 5889637 5910125 5926583 5939347 5950029 5960443 
2304.198 5972401 5986847 6003341 6021013 6038652 6055384 6070839 6084818 
2308.055 6097889 6110221 6122621 6135895 6151320 6170375 6193465 6220556 
2311.913 6249866 6279112 6305535 6327589 6345341 6360236 6374896 6392011 
2315.770 6413094 6438181 6466228 6494950 6523270 6550415 6576888 6604070 
2319.627 6633575 6666615 6703560 6743807 6785168 6824951 6858981 6883016 
2323.485 6893048 6886921 6864367 6828384 6784427 6738792 6698547 6668903 
2327.342 6652113 6648008 6653661 6665168 6678560 6690740 6700431 6706925 
2331.200 6710862 6713117 6714833 6717861 6723851 6734687 6751951 6775913 
2335.057 6805766 6839626 6875206 6910790 6945264 6978933 7012269 7045876 
2338.915 7079015 7110303 7138192 7161400 7179860 7194581 7207147 7218668 
2342.772 7228978 7236053 7236827 7228135 7208562 7179119 7144895 7113301 
2346.629 7092857 7091644 7115591 7168036 7249058 7355873 7483683 7625928 
2350.487 7774494 7921931 8061586 8189400 8303878 8405988 8497985 8581823 
2354.344 8658782 8729466 8794582 8855483 8914835 8975243 9039281 9107794 
2358.202 9179871 9253246 9325348 9394549 9460240 9523061 9583453 9641076 
2362.059 9694877 9743060 9784131 9818089 9846356 9870421 9891979 9910996 
2365.917 9925743 9933505 9932184 9920183 9898013 9867167 9829511 9785995 
2369.774 9736994 9682070 9621426 9556288 9489465 9424346 9365296 9315530 
2373.631 9277515 9252874 9242279 9247256 9268647 9307033 9362215 9432743 
2377.489 9516254 9609774 9711141 9819106 9933743 10056142 10186953 10326049 
2381.346 10472114 10622540 10773970 10923243 11067810 11205556 11334741 
2384.721 11453419 11559301 11650437 11725048 11782308 11822586 11846931 
2388.097 11856874 11853639 11838146 11811043 11772946 11724640 11667216 
2391.472 11602076 11530106 11451820 11367393 11276860 11181077 11081813 
2394.847 10982097 10885156 10794282 10712155 10640367 10579895 10531654 
2398.222 10496825 10476492 10471842 10482806 10508298 10545911 10593069 
2401.598 10647701 10709438 10779506 10860627 10955252 11065193 11190664 
2404.973 11330082 11481520 11642405 11811656 11988127 12171279 12361054 
2408.348 12556472 12756823 12962080 13172762 13389936 13615081 13848383 
2411.723 14088587 14332143 14573951 14808076 15029158 15232609 15415350 
2415.099 15575362 15711317 15821988 15906943 15966097 16000852 16013434 
2418.474 16006937 15984351 15948189 15900068 15840234 15769346 15688026 
2421.849 15597618 15500500 15399694 15297644 15197057 15100303 15009229 
2425.224 14926336 14854122 14795426 14752952 14728650 14723509 14737871 
2428.600 14771601 14824704 14897360 14989782 15101675 15232299 15380127 
2431.975 15542737 15718017 15904570 16101694 16310189 16530933 16765911 
2435.350 17016038 17282480 17565372 17864604 18180212 18511470 18858104 
2438.725 19220182 19597954 19992778 20406506 20841414 21299412 21781444 
2442.101 22287450 22815698 23364482 23931854 24517004 25119864 25740824 
2445.476 26379644 27034850 27703126 28380422 29061894 29743838 30424078 
2448.851 31101330 31775360 32446046 33112194 33771948 34422304 35060132 
2452.226 35681956 36284244 36862520 37412708 37929276 38406460 38838444 
2455.602 39219428 39543764 39806200 40001432 40124360 40170368 40135696 
2458.977 40017456 39814296 39526088 39153648 38698892 38164620 37554696 
2462.352 36874276 36129884 35329040 34479588 33590448 32669398 31724848 
2465.727 30765418 29799868 28838124 27890978 26968528 26080928 25236716 
2469.103 24441668 23699406 23011162 22376402 21793778 21261448 20777558 
2472.478 20339970 19945942 19591854 19273070 18984600 18721712 18479212 
2475.853 18253706 18041858 17841506 17651116 17469984 17298032 17135762 
2479.228 16983960 16843128 16712604 16590793 16475178 16362930 16251847 
2482.604 16140997 16031483 15925571 15826181 15735503 15654704 15583262 
2485.979 15520038 15463279 15411745 15364885 15323112 15286832 15256562 
2489.354 15232609 15214798 15202960 15196989 15197092 15203235 15215107 
2492.729 15232403 15254091 15279728 15308730 15341063 15376797 15416071 
2496.104 15458094 15501736 15545244 15586971 15625989 15662193 15696099 
2499.480 15728839 15761340 15794257 15827451 15860409 15892576 15923509 
2502.855 15953001 15981257 16008588 16035438 16062427 16090104 16118886 
2506.230 16149389 16181063 16213117 16243590 16270353 16291164 16304752 
2509.605 16310669 16309397 16301692 16288482 16269837 16245104 16213598 
2512.981 16174700 16128343 16075147 16015943 15951592 15882403 15808448 
2516.356 15729904 15647387 15563068 15479382 15399867 15327505 15263563 
2519.731 15208862 15162265 15122603 15089051 15061161 15038899 15022675 
2523.106 15012007 15006143 15003159 15001580 15000449 14999351 14998802 
2526.482 14999866 15003159 15009160 15017530 15028026 15040854 15056564 
2529.857 15075843 15099857 15128847 15162505 15199700 15239335 15280140 
2533.232 15321978 15365160 15410338 15458094 15508981 15562965 15619531 
2536.607 15678648 15739970 15803330 15868725 15935985 16004909 16075321 
2539.983 16147325 16221613 16298596 16379101 16463028 16549658 16637474 
2543.358 16724691 16809788 16891698 16969902 17044432 17115428 17182778 
2546.733 17246382 17306030 17362032 17414866 17465880 17516070 17566060 
2550.108 17615986 17664954 17712098 17756620 17798526 17837984 17876030 
2553.484 17913426 17950822 17987946 18024554 18059854 18093430 18124312 
2556.859 18151882 18174718 18191372 18200008 18199352 18188470 18167668 
2560.234 18137578 18099578 18054950 18004384 17948612 17888046 17823692 
2563.609 17756586 17688318 17620438 17553916 17489474 17427352 17367618 
2566.985 17310858 17258140 17210736 17169920 17136486 17110394 17090818 
2570.360 17076930 17067968 17063972 17064730 17070866 17082306 17098884 
2573.735 17119906 17144930 17173678 17206978 17245796 17290826 17342100 
2577.110 17398760 17459224 17521350 17583312 17644180 17703848 17762766 
2580.486 17821448 17880382 17939874 18000240 18061892 18125868 18192960 
2583.861 18264074 18339312 18418122 18499230 18581632 18664464 18747522 
2587.236 18830974 18915032 18999624 19083888 19166748 19247300 19324892 
2590.611 19399862 19472976 19545096 19616672 19687360 19756778 19824228 
2593.987 19889572 19953886 20018558 20084972 20154312 20226892 20302402 
2597.362 20380424 20461066 20545022 20633720 20728552 20830568 20939594 
2600.737 21055224 21176066 21301292 21430210 21563100 21700072 21841092 
2604.112 21985472 22132268 22280092 22428488 22577426 22727984 22881284 
2607.488 23038414 23199374 23363226 23528292 23692478 23853960 24011126 
2610.863 24162848 24307720 24444298 24571102 24686368 24788720 24877412 
2614.238 24952296 25013820 25062574 25099258 25124708 25139278 25144054 
2617.613 25139454 25126640 25106734 25080968 25050392 25016590 24981388 
2620.989 24946752 24915028 24887938 24866886 24852256 24843730 24840432 
2624.364 24841836 24847730 24858640 24875658 24899728 24931802 24971704 
2627.739 25019574 25074824 25137138 25206376 25282510 25365190 25454002 
2631.114 25547678 25645136 25745114 25847224 25951574 26059116 26170800 
2634.490 26286950 26407602 26532232 26659648 26789002 26919664 27051424 
2637.865 27184036 27317568 27451568 27585572 27719124 27852116 27984404 
2641.240 28116170 28247410 28377486 28505798 28631174 28752940 28870772 
2644.615 28985450 29098140 29210396 29323462 29438686 29555960 29675432 
2647.990 29796816 29920328 30046078 30174350 30305786 30440816 30579906 
2651.366 30723450 30871844 31025414 31184342 31348884 31518192 31691880 
2654.741 31869020 32049160 32232374 32419198 32610640 32807596 33010472 
2658.116 33219162 33432606 33649736 33868836 34088760 34308836 34528628 
2661.491 34747996 34967108 35185692 35403876 35621204 35837776 36053376 
2664.867 36268036 36481792 36695044 36908112 37121464 37335788 37551448 
2668.242 37769052 37988688 38210568 38434732 38660900 38889388 39119996 
2671.617 39352684 39587276 39823160 40059748 40295920 40530732 40763124 
2674.992 40992032 41216364 41435272 41647724 41852912 42050708 42241880 
2678.368 42427468 42609816 42791284 42974664 43162468 43357316 43562140 
2681.743 43779632 44012664 44263764 44534800 44826724 45139060 45470680 
2685.118 45820080 46185572 46566308 46961740 47371868 47796512 48234980 
2688.493 48686048 49147972 49619076 50098356 50585272 51080008 51583324 
2691.869 52095632 52617260 53147980 53687780 54236256 54793312 55359064 
2695.244 55933700 56516940 57108340 57707692 58314508 58928852 59550944 
2698.619 60181044 60819076 61464800 62116648 62773152 63432032 64091176 
2701.994 64748860 65403080 66051924 66693424 67325472 67945072 68549376 
2705.370 69134664 69697056 70231904 70734376 71199520 71622416 71999304 
2708.745 72327352 72604536 72830056 73003560 73125096 73194976 73213872 
2712.120 73182936 73103968 72979104 72810120 72598544 72345120 72049368 
2715.495 71710576 71327856 70901072 70431024 69919832 69370096 68785880 
2718.871 68171368 67530888 66869668 66192560 65504632 64810828 64116096 
2722.246 63425124 62742560 62072956 61421020 60791520 60188732 59616464 
2725.621 59077904 58575040 58109352 57681656 57292832 56943072 56632780 
2728.996 56362128 56130780 55937580 55781200 55659376 55570456 55512660 
2732.372 55484608 55485512 55514732 55571436 55654896 55763680 55896048 
2735.747 56050360 56224408 56415736 56621640 56839012 57064656 57295104 
2739.122 57526840 57756440 57981268 58198300 58404820 58598704 58778292 
2742.497 58942700 59092368 59228868 59354548 59472588 59585796 59696748 
2745.873 59807052 59918060 60030816 60145840 60263716 60384900 60509312 
2749.248 60636696 60766212 60897484 61030472 61165640 61305156 61451364 
2752.623 61607204 61775972 61960700 62164244 62389380 62638512 62913836 
2755.998 63216580 63547612 63906112 64290112 64696752 65121828 65560652 
2759.374 66008328 66459408 66907936 67347912 67773312 68177760 68556008 
2762.749 68902712 69213352 69483888 69710400 69889864 70019952 70099728 
2766.124 70129712 70112192 70050864 69949920 69814248 69648472 69457456 
2769.499 69246072 69020032 68785112 68547432 68313040 68086016 67869800 
2772.875 67665768 67474528 67295376 67127768 66971332 66825808 66690720 
2776.250 66565684 66449172 66339032 66231764 66122524 66005520 65874392 
2779.625 65722176 65543124 65332636 65088800 64812064 64505400 64173980 
2783.000 63823512 63459976 63089208 62715916 62344400 61978316 61620644 
2786.375 61273908 60939496 60617568 60307876 60008976 59719788 59439760 
2789.751 59169136 58908700 58659608 58422600 58198220 57985548 57784104 
2793.126 57592404 57409332 57233556 57064276 56899824 56738752 56578800 
2796.501 56417736 56252996 56082368 55903964 55716180 55517400 55306264 
2799.876 55081796 54843120 54590000 54322644 54041796 53747740 53441028 
2803.252 53121656 52789644 52445360 52089472 51723720 51350372 50972532 
2806.627 50593616 50216916 49845940 49484116 49134464 48800404 48484536 
2810.002 48188960 47915412 47664596 47436764 47231732 47049580 46890348 
2813.377 46754092 46640968 46550448 46481852 46433876 46405376 46395236 
2816.753 46403056 46428936 46473556 46537760 46622340 46728004 46855100 
2820.128 47004384 47175916 47370244 47587320 47826512 48086936 48367036 
2823.503 48664920 48978624 49305836 49644784 49992352 50345632 50700100 
2826.878 51050828 51392324 51719352 52027164 52311724 52569612 52797908 
2830.254 52994472 53157488 53285956 53380368 53442004 53473932 53480004 
2833.629 53464828 53433532 53390856 53342000 53291540 53243516 53201684 
2837.004 53168764 53146480 53136296 53139292 53157044 53191984 53247788 
2840.379 53328736 53439828 53585772 53771516 54002248 54283632 54623028 
2843.755 55029780 55514052 56086552 56755860 57525556 58391972 59341100 
2847.130 60348992 61377892 62381192 63306084 64093940 64692104 65056472 
2850.505 65156592 64981388 64538724 63855560 62970868 61934488 60801160 
2853.880 59621560 58444432 57310904 56250964 55286696 54430160 53684784 
2857.256 53046732 52507204 52054468 51675088 51355740 51085036 50852012 
2860.631 50647820 50465344 50298348 50142908 49996592 49858760 49730712 
2864.006 49614844 49514828 49434436 49377744 49348196 49348676 49381788 
2867.381 49448100 49547764 49678660 49837504 50019752 50219484 50430732 
2870.757 50647112 50862256 51069872 51264720 51442156 51599672 51737268 
2874.132 51857884 51966808 52071576 52180668 52301668 52440988 52603236 
2877.507 52790652 53003868 53242356 53504852 53789704 54094748 54417880 
2880.882 54757040 55109972 55475160 55850416 56233728 56622060 57011152 
2884.258 57395752 57769684 58127040 58462780 58773628 59058508 59318496 
2887.633 59556720 59778188 59988436 60194520 60403672 60623020 60860316 
2891.008 61123300 61419608 61758284 62149792 62606520 63144116 63779800 
2894.383 64530536 65411864 66433580 67596080 68886712 70277824 71725200 
2897.759 73166272 74530384 75739096 76715752 77401416 77756912 77772568 
2901.134 77468144 76891248 76108632 75191760 74215528 73244552 72328136 
2904.509 71504552 70798064 70222280 69784248 69485216 69323448 69294464 
2907.884 69392960 69613632 69951872 70404720 70969696 71644848 72426544 
2911.260 73308016 74278552 75323400 76422696 77551160 78681568 79781208 
2914.635 80815616 81752208 82559984 83215200 83704200 84023648 84180560 
2918.010 84189368 84069600 83840384 83518144 83115328 82639328 82093800 
2921.385 81480840 80802488 80062744 79269040 78431472 77564112 76683696 
2924.760 75806592 74950088 74129176 73354928 72635408 71974944 71374168 
2928.136 70831448 70343000 69903920 69508040 69148656 68818808 68510624 
2931.511 68216536 67929456 67642112 67348800 67044324 66725068 66388636 
2934.886 66034832 65665328 65283268 64893500 64501396 64111912 63729876 
2938.261 63359292 63003540 62666380 62351936 62064848 61810236 61592808 
2941.637 61415676 61279744 61182804 61118800 61078216 61048776 61015756 
2945.012 60962868 60875716 60741672 60552924 60307876 60011524 59675084 
2948.387 59313296 58943120 58580428 58235692 57914740 57616464 57334688 
2951.762 57058648 56776248 56476300 56149220 55789528 55395688 54969908 
2955.138 54517152 54044160 53558484 53066876 52575184 52088312 51609892 
2958.513 51143332 50691348 50256424 49839916 49442456 49063456 48701316 
2961.888 48354148 48020836 47701096 47396556 47109992 46845316 46606296 
2965.263 46395864 46215864 46066852 45948164 45858636 45796480 45759624 
2968.639 45745452 45750940 45772476 45806236 45848840 45897632 45950816 
2972.014 46008240 46070496 46139068 46215572 46301120 46395236 46495648 
2975.389 46596332 46688228 46759000 46793280 46775344 46691216 46529872 
2978.764 46286596 45963116 45568004 45114356 44619356 44102000 43579756 
2982.140 43068536 42581416 42126276 41707900 41326660 40979836 40662724 
2985.515 40369876 40097468 39844076 39611308 39403224 39224976 39079136 
2988.890 38964012 38870364 38782068 38677236 38529912 38318148 38025468 
2992.265 37646432 37187772 36667900 36114040 35555100 35019368 34528664 
2995.641 34094676 33720484 33401578 33128712 32891080 32678972 32485250 
2999.016 32305182 32135922 31975292 31821352 31671848 31524748 31379052 
3002.391 31234648 31092752 30955704 30825812 30705278 30595336 30496406 
3005.766 30408122 30329876 30261200 30201522 30150626 30108114 30073384 
3009.142 30045866 30024312 30007766 29995554 29987068 29982594 29982454 
3012.517 29987424 29998182 30015294 30039190 30069692 30106196 30148458 
3015.892 30195876 30248198 30305288 30366936 30432964 30502448 30574076 
3019.267 30646250 30717334 30785476 30849504 30908346 30961146 31006908 
3022.643 31044454 31072820 31091114 31099408 31099016 31092218 31082856 
3026.018 31074634 31071680 31076770 31091790 31117098 31151806 31193812 
3029.393 31240630 31288986 31336136 31379834 31418372 31451180 31478648 
3032.768 31501662 31521398 31539212 31555674 31571888 31588848 31607698 
3036.144 31630504 31659090 31695514 31740852 31795218 31857968 31927500 
3039.519 32002542 32082018 32165642 32253750 32346408 32443904 32545674 
3042.894 32650858 32758002 32866024 32973972 33081226 33187330 33291776 
3046.269 33393852 33492946 33588620 33681316 33771948 33861780 33952200 
3049.645 34044108 34137288 34230352 34321672 34408996 34490420 34564792 
3053.020 34631824 34692076 34746664 34797316 34845960 34894216 34943876 
3056.395 34996056 35051476 35110424 35172796 35238368 35307116 35379112 
3059.770 35454352 35532736 35613472 35695484 35777436 35857996 35936672 
3063.146 36013700 36090168 36167588 36247508 36330860 36418160 36509004 
3066.521 36602900 36699444 36798428 36899852 37003464 37109520 37217296 
3069.896 37326652 37437448 37549532 37663560 37779752 37898652 38020116 
3073.271 38144324 38270924 38400344 38532700 38668720 38808660 38952304 
3076.646 39098752 39246264 39393424 39538752 39681660 39822396 39961724 
3080.022 40100632 40239468 40378568 40517060 40654316 40789472 40922200 
3083.397 41052228 41179752 41304868 41428056 41550072 41672304 41796468 
3086.772 41924500 42057680 42196704 42341076 42489252 42639240 42789240 
3090.147 42938304 43086176 43233512 43381112 43529724 43679480 43830132 
3093.523 43981496 44133832 44287320 44442812 44601036 44762364 44926328 
3096.898 45092520 45259920 45427932 45596268 45764852 45933908 46103584 
3100.273 46273952 46444828 46616400 46788888 46962516 47137540 47313748 
3103.648 47490504 47666816 47841536 48014064 48184368 48353332 48521956 
3107.024 48691384 48862436 49035040 49209308 49384796 49561396 49739404 
3110.399 49919008 50100588 50284024 50468916 50654636 50840580 51026340 
3113.774 51211888 51397176 51582316 51767056 51950940 52133700 52315608 
3117.149 52497332 52679840 52864672 53052648 53243932 53437844 53632972 
3120.525 53827996 54021908 54213992 54404432 54593796 54782488 54971000 
3123.900 55159252 55346800 55533632 55719304 55903812 56087268 56269748 
3127.275 56451356 56632400 56812952 56992904 57172136 57350492 57527332 
3130.650 57702208 57875028 58045912 58215880 58386324 58558816 58734896 
3134.026 58915416 59100340 59288796 59479428 59670596 59860596 60047936 
3137.401 60231400 60410220 60583704 60752036 60915856 61076576 61235676 
3140.776 61394952 61555580 61718524 61883820 62051280 62220720 62391756 
3144.151 62564344 62738196 62912652 63087256 63260624 63431912 63600428 
3147.527 63766488 63930952 64094708 64258872 64424336 64591200 64759560 
3150.902 64929128 65100156 65272868 65447384 65623352 65799744 65975472 
3154.277 66148648 66318184 66483700 66645444 66804940 66963292 67122088 
3157.652 67281872 67442640 67604360 67766496 67928952 68091472 68254448 
3161.028 68417592 68581000 68744656 68908536 69072976 69238184 69404264 
3164.403 69571112 69738496 69905392 70071264 70235096 70396376 70554760 
3167.778 70709616 70861008 71008288 71151544 71290992 71427248 71560848 
3171.153 71692760 71822760 71950224 72073776 72191688 72302736 72406656 
3174.529 72503824 72595144 72682016 72764864 72843968 72919608 72992032 
3177.904 73062528 73133336 73206472 73284080 73366896 73454472 73544696 
3181.279 73634976 73723544 73809112 73891784 73972744 74053136 74134128 
3184.654 74216000 74298992 74382664 74466944 74551912 74637600 74724288 
3188.030 74811344 74898504 74984976 75070592 75154768 75238056 75320568 
3191.405 75402784 75485096 75567928 75651656 75737200 75824472 75913680 
3194.780 76003672 76092560 76178160 76258728 76333296 76403224 76470544 
3198.155 76538040 76607872 76680768 76755528 76830152 76902168 76970168 
3201.531 77034056 77095392 77156248 77218904 77284728 77353976 77426200 
3204.906 77500816 77576984 77653920 77730640 77805456 77876408 77941944 
3208.281 78000712 78053808 78103264 78152648 78204576 78261072 78321856 
3211.656 78384960 78447824 78508120 78565136 78619736 78674016 78729944 
3215.031 78788616 78849280 78910112 78968648 79022856 79071784 79115672 
3218.407 79156144 79195032 79234000 79274160 79316400 79360432 79405896 
3221.782 79452208 79498600 79544320 79589008 79632592 79675424 79718576 
3225.157 79762048 79806248 79850288 79892856 79932288 79967536 79998528 
3228.532 80025824 80051080 80075656 80100560 80125744 80151048 80175880 
3231.908 80200344 80224856 80250368 80277352 80305416 80333320 80359272 
3235.283 80381792 80400016 80414736 80427176 80439216 80452016 80465616 
3238.658 80479648 80493376 80506416 80519096 80532376 80546776 80562176 
3242.033 80576968 80588616 80595320 80595840 80591256 80584432 80579408 
3245.409 80579848 80587704 80602936 80623840 80647304 80670960 80693064 
3248.784 80713856 80734248 80755272 80778304 80803400 80830096 80857288 
3252.159 80883584 80907976 80929616 80948216 80963944 80977800 80990856 
3255.534 81004392 81019248 81036096 81053824 81070712 81084536 81093320 
3258.910 81095720 81092160 81084176 81074192 81064848 81058216 81055344 
3262.285 81056024 81059456 81064048 81068800 81072200 81073392 81071872 
3265.660 81067440 81060168 81050272 81038248 81024152 81007872 80988696 
3269.035 80966216 80939592 80908696 80873680 80835208 80794296 80752000 
3272.411 80709184 80666728 80625720 80587496 80553552 80524992 80502024 
3275.786 80483648 80467448 80450064 80428296 80399744 80363616 80321040 
3279.161 80273960 80225248 80176992 80130728 80087048 80045816 80007296 
3282.536 79971640 79939176 79910224 79884616 79862240 79842400 79825040 
3285.912 79810032 79797448 79787016 79778176 79769416 79758384 79743816 
3289.287 79724704 79701776 79677056 79653528 79633944 79620448 79613728 
3292.662 79613608 79619136 79629648 79644408 79663168 79685736 79711408 
3296.037 79739352 79768536 79798360 79828704 79860600 79894896 79932528 
3299.413 79973512 80017056 80061872 80106136 80149088 80190216 80230080 
3302.788 80269216 80309040 80349824 80392680 80438064 80486912 80539960 
3306.163 80597632 80659792 80725504 80793464 80862392 80931328 81000000 
3309.538 81069040 81138728 81209032 81279344 81348544 81415768 81480840 
3312.914 81544712 81608560 81673584 81739888 81806008 81869336 81926912 
3316.289 81976608 82017952 82052088 82081512 82108848 82136072 82163456 
3319.664 82190832 82216784 82240528 82261272 82278808 82292584 82302520 
3323.039 82307720 82308040 82303840 82296352 82287736 82279208 82271320 
3326.415 82262712 82250696 82231832 82203496 82164416 82115208 82057856 
3329.790 81994776 81927472 81856448 81780888 81700216 81613600 81521368 
3333.165 81423720 81321256 81213344 81099432 80978080 80848736 80711496 
3336.540 80567920 80419920 80269536 80117576 79963680 79806208 79643816 
3339.916 79474848 79299216 79117104 78929184 78735504 78535640 78328568 
3343.291 78113696 77891320 77662280 77428464 77191552 76952600 76711960 
3346.666 76469008 76223896 75976752 75729432 75484184 75243808 75009944 
3350.041 74782968 74562336 74346096 74132712 73920656 73709680 73499400 
3353.417 73290048 73081696 72874736 72669320 72466864 72268728 72076976 
3356.792 71893176 71718048 71551584 71393112 71241648 71096792 70958536 
3360.167 70827272 70703728 70587584 70477944 70372928 70270736 70169904 
3363.542 70069784 69970864 69873904 69779968 69690016 69604840 69524608 
3366.917 69450256 69382384 69321552 69267792 69220424 69177296 69135528 
3370.293 69092048 69044072 68989544 68926984 68856000 68776256 68687448 
3373.668 68589576 68482064 68364960 68237896 68100816 67952936 67793136 
3377.043 67620160 67432816 67230464 67013280 66782260 66538496 66282748 
3380.418 66014736 65733092 65435632 65120140 64785092 64430640 64058496 
3383.794 63671476 63273728 62868952 62460764 62051128 61641340 61231444 
3387.169 60820792 60408428 59993648 59576140 59156568 58736076 58316292 
3390.544 57899108 57486144 57078484 56676836 56281516 55892208 55508668 
3393.919 55130432 54756552 54385808 54016616 53647740 53278352 52908496 
3397.295 52539508 52173192 51811592 51455884 51105796 50760204 50416928 
3400.670 50073368 49728148 49380376 49030400 48679080 48327148 47975172 
3404.045 47622960 47270448 46917772 46565792 46216016 45870456 45530580 
3407.420 45197336 44870844 44550108 44233936 43920892 43609760 43299764 
3410.796 42990540 42681824 42373328 42065420 41758712 41454080 41152648 
3414.171 40855868 40564820 40279708 39999836 39723916 39450172 39176636 
3417.546 38901860 38624572 38344968 38063588 37781452 37500152 37220944 
3420.921 36944656 36671684 36401364 36132984 35865232 35597288 35328824 
3424.297 35060384 34792436 34525900 34261184 33997920 33735636 33473618 
3427.672 33211722 32950200 32689798 32431230 32175172 31921618 31669922 
3431.047 31419262 31168964 30919162 30670714 30424186 30180922 29941698 
3434.422 29706262 29474358 29245908 29021016 28800416 28585130 28375754 
3437.798 28172736 27974900 27780652 27587514 27393862 27198500 27001388 
3441.173 26803628 26606556 26411546 26219086 26029422 25841420 25653960 
3444.548 25465526 25274994 25081706 24886114 24689946 24495722 24306634 
3447.923 24125752 23954996 23794490 23642476 23496148 23351790 23206328 
3451.299 23058260 22907620 22756162 22605872 22458704 22315286 22175296 
3454.674 22037372 21899842 21761762 21622506 21482602 21342636 21203584 
3458.049 21065554 20928608 20792470 20656584 20520878 20385598 20250812 
3461.424 20116830 19984520 19853984 19726160 19601420 19480322 19362722 
3464.800 19247924 19134888 19022264 18909044 18794852 18680238 18565896 
3468.175 18452970 18342144 18233216 18125694 18018406 17910938 17803016 
3471.550 17695116 17588280 17483438 17381276 17281446 17184020 17087992 
3474.925 16993468 16900206 16808272 16717665 16628146 16538575 16448265 
3478.301 16356014 16261375 16164521 16066518 15968710 15873123 15782094 
3481.676 15697267 15619875 15550327 15488001 15431108 15376797 15322322 
3485.051 15264524 15201484 15132415 15058348 14981413 14904561 14830396 
3488.426 14761317 14698315 14641595 14591255 14545889 14504741 14466715 
3491.802 14430542 14395433 14360739 14326492 14293241 14261945 14233971 
3495.177 14210211 14191382 14177585 14168513 14164405 14165227 14171663 
3498.552 14183884 14201652 14223940 14249105 14274408 14298412 14320294 
3501.927 14340225 14360465 14383720 14413073 14450924 14499636 14560177 
3505.302 14633061 14718367 14815105 14921192 15033686 15148815 15263323 
3508.678 15374738 15482781 15589204 15697267 15810991 15932893 16064180 
3512.053 16203899 16350096 16500060 16651625 16803656 16955086 17105088 
3515.428 17252966 17396690 17534768 17665816 17789034 17904690 18012672 
3518.803 18113154 18205260 18286778 18355486 18409134 18445882 18464792 
3522.179 18465658 18448614 18413732 18360706 18289544 18200458 18093430 
3525.554 17969228 17828008 17669958 17495062 17303582 17096608 16875954 
3528.929 16644636 16406009 16163042 15917838 15670815 15421838 15170396 
3532.304 14916151 14659073 14399818 14138766 13876434 13613201 13349444 
3535.680 13086052 12824287 12565919 12312853 12065623 11824424 11588328 
3539.055 11356339 11127839 10903367 10684036 10471741 10267284 10070689 
3542.430 9880285 9693725 9507956 9320743 9130972 8938950 8745795 8553166 
3546.288 8363189 8177380 7997861 7826007 7662652 7508123 7361198 7219882 
3550.145 7081676 6943918 6804991 6665471 6526869 6391809 6262942 6141911 
3554.002 6028572 5921780 5820051 5721770 5626466 5533531 5442932 5354196 
3557.860 5266619 5179193 5091685 5004227 4918630 4836636 4759949 4689004 
3561.717 4623060 4559737 4495889 4428333 4355133 4274315 4185048 4086735 
3565.575 3979751 3865070 3745440 3625542 3511622 3409454 3323403 3254795 
3569.432 3202187 3161365 3127190 3094885 3060548 3021842 2977335 2927028 
3573.290 2871324 2810791 2746365 2679515 2612009 2546046 2483292 2424646 
3577.147 2369905 2318702 2269404 2221477 2174621 2129435 2087183 2048664 
3581.004 2013710 1981988 1952365 1923842 1895753 1868133 1840647 1812364 
3584.862 1781122 1743595 1696392 1636787 1564787 1483922 1400977 1324131 
3588.719 1260423 1213870 1184366 1168518 1160511 1153867 1143070 1123669 
3592.577 1093440 1052219 1002068 946377 889200 834752 785921 744496 710311 
3596.916 682069 657479 634151 610028 583816 555748 526686 498655 474009 
3601.256 454405 441536 435666 436594 442697 452183 462996 472018 476331 
3605.595 473080 458751 431387 390461 337336 276392 213071 153868 103655 
3609.935 63887 32969 6825 -19217 -48604 -82529 -118736 -152588 -179416 
3614.275 -195711 -201507 -199288 -193956 -191240 -195347 -208859 -232041 
3618.132 -262574 -296183 -328101 -353992 -370379 -375842 -370413 -356508 
3621.990 -337206 -316679 -298302 -284925 -277706 -275952 -277872 -282375 
3625.847 -289826 -303004 -327274 -368161 -428774 -506191 -590146 -665484 
3629.704 -718314 -741866 -738790 -718215 -690858 -666245 -650298 -644608 
3633.562 -647188 -654004 -661348 -667072 -671439 -675938 -682654 -692313 
3637.419 -704289 -716826 -727940 -736508 -743057 -748912 -755527 -763829 
3641.277 -773388 -782252 -788271 -789627 -785129 -775405 -762241 -747919 
3645.134 -735615 -728172 -728337 -739154 -761977 -797962 -845916 -902725 
3648.991 -963197 -1020058 -1066863 -1097370 -1108409 -1099584 -1073804 
3652.367 -1035594 -991298 -947791 -911785 -889400 -884671 -898824 -928780 
3656.224 -967264 -1005910 -1036619 -1054799 -1060021 -1054931 -1043594 
3659.599 -1029975 -1016918 -1006174 -997315 -990405 -984620 -979595 -975231 
3663.457 -970867 -966140 -959759 -950800 -938236 -922630 -905734 -890590 
3667.314 -882687 -887284 -909669 -951924 -1012158 -1081737 -1146777 -1193833 
3671.172 -1212833 -1201863 -1166935 -1120207 -1076448 -1049444 -1050370 
3674.547 -1082530 -1140432 -1208009 -1266423 -1302498 -1313136 -1304150 
3677.922 -1285915 -1267546 -1253968 -1245510 -1238935 -1229651 -1214254 
3681.297 -1192181 -1165845 -1138681 -1114457 -1094329 -1078002 -1063657 
3684.673 -1049973 -1037214 -1027496 -1024289 -1031793 -1052287 -1085339 
3688.048 -1127379 -1172388 -1214518 -1249408 -1275541 -1293249 -1303258 
3691.423 -1305934 -1301309 -1289846 -1272799 -1252844 -1233582 -1218285 
3694.798 -1209297 -1207083 -1210123 -1215079 -1218285 -1216996 -1210024 
3698.174 -1197964 -1183293 -1169612 -1160558 -1159533 -1168422 -1186795 
3701.549 -1212205 -1239827 -1264242 -1280232 -1284428 -1275739 -1255917 
3704.924 -1228065 -1195981 -1163631 -1133823 -1108210 -1087554 -1072680 
3708.299 -1063855 -1062236 -1069210 -1085372 -1110325 -1142349 -1178171 
3711.675 -1213560 -1244882 -1269495 -1286377 -1295891 -1299459 -1297841 
3715.050 -1292225 -1283173 -1271147 -1256545 -1239629 -1221027 -1201367 
3718.425 -1181343 -1162177 -1145290 -1132336 -1124900 -1123380 -1127577 
3721.800 -1135376 -1144365 -1151536 -1154940 -1154775 -1152362 -1150776 
3725.176 -1152627 -1159269 -1169810 -1181343 -1189009 -1189339 -1180352 
3728.551 -1163631 -1142514 -1122818 -1110425 -1109136 -1120538 -1142448 
3731.926 -1170372 -1198426 -1222580 -1242140 -1259683 -1279836 -1305538 
3735.301 -1336820 -1370215 -1398487 -1414637 -1414538 -1398553 -1370049 
3738.677 -1334277 -1295429 -1257172 -1220763 -1187952 -1161186 -1145323 
3742.052 -1147670 -1176485 -1237250 -1328232 -1435080 -1534440 -1600073 
3745.427 -1617404 -1588717 -1529025 -1457569 -1391948 -1345343 -1324631 
3748.802 -1329685 -1354558 -1389503 -1424974 -1453739 -1473420 -1483359 
3752.177 -1483921 -1474245 -1453904 -1423257 -1384549 -1342072 -1300847 
3755.553 -1265333 -1239166 -1223142 -1216798 -1218285 -1225818 -1237745 
3758.928 -1252943 -1269826 -1285551 -1296024 -1297378 -1287732 -1267810 
3762.303 -1241677 -1215872 -1196675 -1188712 -1193371 -1207711 -1226413 
3765.678 -1243131 -1252778 -1254628 -1250664 -1244717 -1240653 -1240818 
3769.054 -1245245 -1252217 -1258758 -1262392 -1261500 -1256148 -1246699 
3772.429 -1234408 -1220201 -1204969 -1189240 -1173644 -1158542 -1144167 
3775.804 -1130882 -1118951 -1109598 -1104509 -1105566 -1114192 -1130716 
3779.179 -1152561 -1175593 -1194758 -1205663 -1206885 -1199847 -1188712 
3782.555 -1178336 -1173115 -1175395 -1184746 -1198426 -1212403 -1223208 
3785.930 -1228891 -1229386 -1226082 -1220862 -1215311 -1210355 -1206224 
3789.305 -1202854 -1199814 -1196906 -1193404 -1188513 -1181541 -1172487 
3792.680 -1162078 -1152726 -1147405 -1149619 -1161186 -1181640 -1206951 
3796.056 -1230840 -1246005 -1247426 -1234210 -1210817 -1184383 -1164854 
3799.431 -1161285 -1179228 -1218714 -1272799 -1329058 -1372064 -1391155 
3802.806 -1382733 -1352081 -1309568 -1266621 -1234706 -1221093 -1228626 
3806.181 -1253868 -1287732 -1318487 -1334970 -1331601 -1309502 -1274517 
3809.557 -1233781 -1193668 -1158046 -1127511 -1100972 -1076085 -1052386 
3812.932 -1031198 -1016422 -1013248 -1026107 -1056220 -1099749 -1146943 
3816.307 -1185771 -1207050 -1207546 -1191487 -1168059 -1149355 -1146216 
3819.682 -1165878 -1209727 -1271147 -1336292 -1388645 -1416222 -1414736 
3823.058 -1388744 -1347225 -1300946 -1258989 -1226247 -1204473 -1191487 
3826.433 -1182995 -1173842 -1160888 -1143341 -1122818 -1102724 -1086265 
3829.808 -1076151 -1073341 -1076977 -1084348 -1092710 -1098593 -1099683 
3833.183 -1094792 -1084612 -1071557 -1059195 -1052452 -1055592 -1072284 
3836.559 -1103220 -1145125 -1192214 -1235862 -1268075 -1283965 -1282875 
3839.934 -1268207 -1245510 -1221027 -1199649 -1184383 -1176122 -1173743 
3843.309 -1174833 -1176155 -1174932 -1169315 -1158410 -1142977 -1124470 
3846.684 -1105070 -1086463 -1069574 -1054303 -1039462 -1023992 -1007563 
3850.060 -991860 -981777 -984554 -1009116 -1062302 -1145323 -1249639 
3853.435 -1356276 -1442973 -1493530 -1503535 -1479463 -1433627 -1378043 
3856.810 -1321163 -1268736 -1222844 -1184119 -1152362 -1127048 -1108177 
3860.185 -1095288 -1088016 -1085505 -1086100 -1089107 -1093900 -1101072 
3863.561 -1111581 -1124801 -1138714 -1149719 -1153387 -1147108 -1130981 
3866.936 -1109136 -1088744 -1076779 -1079721 -1099749 -1133261 -1171099 
3870.311 -1202292 -1218813 -1218516 -1205993 -1188976 -1175791 -1172256 
3873.686 -1178799 -1191586 -1203581 -1207348 -1197964 -1174767 -1141259 
3877.062 -1104145 -1070301 -1046403 -1036850 -1043098 -1062831 -1090462 
3880.437 -1118588 -1139705 -1148430 -1143175 -1126123 -1103055 -1080844 
3883.812 -1066731 -1065541 -1078630 -1101600 -1126552 -1143836 -1146117 
3887.187 -1131444 -1103154 -1068615 -1036123 -1013116 -1004455 -1010604 
3890.563 -1028256 -1051031 -1071821 -1085240 -1088909 -1083026 -1070400 
3893.938 -1053576 -1034933 -1015761 -997381 -980785 -968156 -961181 -961941 
3897.795 -971330 -988819 -1012058 -1037148 -1060187 -1078167 -1089669 
3901.170 -1095354 -1097370 -1098262 -1100477 -1104905 -1111152 -1117497 
3904.546 -1121430 -1120538 -1113366 -1099749 -1080547 -1057608 -1033181 
3907.921 -1009678 -988554 -971000 -956916 -945840 -936517 -927755 -918795 
3911.778 -909305 -899320 -889400 -880273 -872503 -866980 -864335 -865195 
3915.636 -869527 -877529 -887846 -899551 -911256 -921704 -930367 -936946 
3919.493 -941708 -944551 -945311 -943757 -939591 -932913 -924581 -916216 
3923.351 -909933 -907189 -908743 -913934 -920448 -925507 -926234 -921440 
3927.208 -910959 -896641 -880869 -866716 -856795 -852662 -855274 -864302 
3931.065 -878356 -895616 -913471 -929408 -940749 -946303 -945410 -939228 
3934.923 -929607 -918795 -908743 -900609 -894591 -889764 -885134 -879943 
3938.780 -874321 -869427 -866980 -868832 -876140 -889036 -906164 -924945 
3942.638 -942170 -954866 -960288 -957875 -947361 -930731 -910793 -890227 
3946.495 -872470 -859805 -853720 -854018 -859606 -868369 -877529 -885267 
3950.353 -890127 -891053 -888441 -882423 -873594 -862748 -850644 -838309 
3954.210 -826536 -816053 -807090 -799450 -792207 -784303 -775042 -764160 
3958.067 -751789 -739286 -727940 -718877 -713088 -710971 -712062 -715933 
3961.925 -721556 -727676 -732770 -735978 -736144 -732737 -726022 -716826 
3965.782 -706373 -695985 -686425 -678154 -670645 -663300 -655757 -647949 
3969.640 -640836 -635708 -633491 -634814 -639182 -645335 -651489 -655823 
3973.497 -657213 -655162 -649703 -641200 -629818 -615591 -598783 -579458 
3977.354 -558611 -537002 -516285 -497487 -482196 -470612 -463000 -459061 
3981.212 -458664 -461245 -466674 -474650 -484679 -496097 -508243 -520455 
3985.069 -532137 -543356 -553615 -563277 -572377 -580451 -587433 -592529 
3988.927 -595077 -594183 -589220 -579922 -566851 -550802 -534123 -518966 
3992.784 -507780 -502319 -502981 -508971 -518701 -529457 -538988 -545904 
3996.642 -549842 -551033 -550570 -549842 -549842 -551166 -554376 -559306 
4000.499 -565925 
##END=
