
##TITLE=Z235b_1_e
##JCAMP-DX=5.01  $$ Nicolet v. 1
##DATATYPE=INFRARED SPECTRUM
##ORIGIN=UniL
##OWNER=Nicolet
##LONGDATE=2011/09/22
##TIME=10:59:40
##SPECTROMETER/DATA SYSTEM=Nicolet iS5
##DATA PROCESSING=
Ratio against background
%Transmittance->Absorbance
Truncated
ElementMultiply or ElementDivide
##COMMENTS=
Number of sample scans: 32
Collection length: 51.17 sec
Sample gain: 2.0
Background collected on: Jeu Sep 22 10:47:11 2011 (GMT+02:00);
Number of background scans: 32
Background gain: 2.0
Sample spacing:  1.000
Number of scan points: 12415
Resolution points: 8192
Number of FFT points: 65536
Apodization: N-B fort;
Phase correction: Mertz;
Laser frequency: 15798.0 cm-1
Number of rejected sample scans: 0
Number of rejected background scans: 0
Bench serial number: ASB1000141;
##RESOLUTION=4.000
##XUNITS=1/CM
##YUNITS=ABSORBANCE
##FIRSTX=649.893372
##LASTX=4000.122314
##FIRSTY=0.113169
##MAXX=4000.122314
##MINX=649.893372
##MAXY=0.278608
##MINY=-0.002525
##XFACTOR=1.000000
##YFACTOR=1.000000E-009
##NPOINTS=6950
##DELTAX=0.482117
##ZPD=6100
##XYDATA=(X++(Y..Y))
649.893 113168608 111701600 110420616 109342776 108453352 107721968 
652.786 107119176 106631400 106266064 106040272 105965744 106038024 
655.679 106230224 106504056 106822672 107162592 107519176 107900048 
658.571 108311736 108751568 109205304 109654696 110089320 110513424 
661.464 110945656 111410776 111930192 112513776 113161464 113869808 
664.357 114639888 115479792 116394440 117372272 118361240 119247928 
667.250 119881336 120129176 119969600 119517608 118963464 118470568 
670.142 118112760 117893096 117767800 117683376 117596616 117489520 
673.035 117367496 117246560 117135592 117025912 116890936 116699592 
675.928 116432472 116090240 115692824 115266560 114830880 114386752 
678.820 113919000 113406528 112835712 112207680 111537512 110843344 
681.713 110137480 109419968 108682368 107916016 107122184 106314272 
684.606 105514536 104742360 104004904 103294600 102595632 101894320 
687.498 101189664 100496544 99840600 99246936 98727488 98277080 97875616 
690.873 97501232 97138656 96787928 96462064 96180976 95961432 95811064 
694.248 95728568 95709488 95752192 95862336 96050992 96327944 96694944 
697.623 97142344 97650904 98197856 98766128 99350848 99956792 100593320 
700.998 101266672 101973592 102701560 103434368 104157752 104866696 
703.890 105564216 106255656 106942520 107616464 108261264 108859560 
706.783 109400272 109884984 110327352 110747424 111162376 111580264 
709.676 112001504 112424952 112857456 113322688 113858656 114509568 
712.569 115312232 116277104 117378184 118547432 119690824 120698424 
715.461 121466552 121925400 122045504 121849064 121402488 120813544 
718.354 120212896 119725736 119467352 119517040 119908328 120627424 
721.247 121612560 122764544 123945456 125003336 125789792 126170816 
724.139 126064152 125452800 124399472 123032104 121524896 120063776 
727.032 118791808 117797264 117100712 116668040 116433776 116329080 
729.925 116304432 116330376 116395224 116492912 116612256 116735968 
732.817 116845968 116931096 116993416 117046472 117108696 117191440 
735.710 117294392 117405104 117508536 117594576 117665520 117733608 
738.603 117814904 117919224 118044312 118176904 118300360 118404624 
741.496 118491064 118572032 118662376 118771472 118897320 119028520 
744.388 119151624 119260048 119359960 119466872 119597248 119758648 
747.281 119944448 120136344 120313600 120462680 120584520 120693520 
750.174 120808904 120943488 121097648 121259696 121414096 121550144 
753.066 121667856 121777224 121891008 122015352 122145832 122268496 
755.959 122368832 122441352 122493624 122543536 122610448 122706256 
758.852 122829520 122968952 123111072 123250728 123394344 123557616 
761.744 123754680 123990368 124254952 124530320 124798888 125055168 
764.637 125311328 125593824 125934120 126355736 126871080 127480344 
767.530 128177512 128956808 129815120 130752920 131776544 132904592 
770.423 134181576 135697888 137581824 139982032 143018000 146701712 
773.315 150870336 155132528 158937248 161616288 162558400 161412784 
776.208 158164640 153174064 147029344 140439168 134025232 128192248 
779.101 123136192 118838776 115153808 111878616 108836400 105912760 
781.993 103054240 100260624 97558352 94984272 92572304 90353896 88359432 
785.368 86613024 85133240 83927720 82993400 82321056 81903384 81742808 
788.743 81854576 82264712 83000184 84085048 85534176 87357392 89566288 
792.118 92180704 95228856 98739960 102725488 107159424 111952832 116953216 
795.493 121937032 126607928 130645800 133706256 135459024 135655264 
798.385 134146232 130931424 126161992 120134160 113241488 105892968 98503784 
801.760 91424504 84907528 79127912 74164752 70021080 66646872 63960472 
805.135 61870448 60285760 59132688 58355024 57909480 57764348 57885704 
808.510 58227848 58731332 59315536 59884172 60343812 60606868 60607476 
811.885 60311304 59710932 58825832 57693504 56366952 54906660 53373320 
815.259 51829100 50327404 48909640 47606620 46434172 45397288 44494164 
818.634 43719856 43070112 42542240 42135584 41848824 41679852 41625696 
822.009 41684412 41858528 42156068 42591976 43185452 43953376 44906116 
825.384 46039148 47329376 48727116 50157744 51525572 52710100 53588660 
828.759 54051028 54013840 53447028 52378108 50894444 49119180 47196788 
832.133 45270880 43452484 41822408 40423040 39262332 38324336 37577312 
835.508 36984236 36504424 36099784 35739260 35398812 35065088 34735864 
838.883 34417072 34118868 33850712 33618228 33421296 33256576 33119488 
842.258 33007360 32920458 32861200 32831218 32830108 32854874 32901694 
845.633 32968286 33055588 33168122 33311382 33488862 33699864 33938908 
849.008 34198412 34472308 34758584 35061104 35387056 35745272 36142092 
852.382 36580624 37061880 37586744 38158292 38783732 39471292 40229944 
855.757 41066508 41985264 42989988 44086520 45285216 46601496 48055996 
859.132 49670004 51466512 53467864 55694708 58167764 60901980 63899816 
862.507 67139568 70566256 74087560 77566128 80844792 83759728 86158104 
865.882 87933720 89033680 89471664 89321576 88713696 87817544 86804336 
869.256 85842576 85070840 84579016 84415920 84586336 85060648 85780040 
872.631 86664592 87620464 88529824 89263744 89690392 89678744 89131104 
876.006 87996936 86285728 84066264 81458328 78618464 75704152 72869128 
879.381 70248104 67938712 66011652 64505548 63428500 62762080 62462488 
882.756 62469760 62706308 63090204 63547112 64010232 64431792 64784556 
886.131 65058896 65263280 65420224 65565124 65737440 65976432 66315056 
889.505 66771432 67347408 68028456 68791360 69609040 70459664 71332544 
892.880 72227488 73152272 74117264 75130464 76190920 77286272 78384520 
896.255 79431400 80349144 81027944 81342072 81164888 80382520 78928032 
899.630 76794880 74045512 70799304 67219744 63495800 59800772 56290752 
903.005 53088216 50269736 47878788 45926176 44398984 43266892 42489512 
906.379 42025192 41832552 41879108 42144276 42617052 43295624 44182324 
909.754 45279628 46587592 48102520 49815060 51709572 53758392 55915232 
913.129 58117492 60282332 62314792 64130768 65664744 66888996 67819480 
916.504 68516552 69076080 69608064 70234592 71067016 72189728 73659152 
919.879 75486752 77636328 80018048 82501952 84936928 87166528 89075080 
923.254 90607688 91790368 92727008 93591592 94610648 96010400 98010000 
926.628 100784296 104430112 108949952 114219224 119988200 125842064 
929.521 131233128 135564320 138202704 138634000 136566176 131977024 
932.414 125151064 116613424 107074864 97256608 87801728 79232648 71864200 
935.789 65845272 61185244 57796104 55539732 54262496 53829684 54115840 
939.163 54999204 56352316 58006788 59750736 61351864 62553628 63131928 
942.538 62937856 61912668 60110112 57675112 54828160 51805844 48823320 
945.913 46057348 43613424 41536652 39824284 38443640 37348136 36489256 
949.288 35826588 35323540 34948508 34674060 34473960 34325044 34210384 
952.663 34117652 34041024 33979608 33935252 33911252 33910424 33935720 
956.037 33989068 34071988 34185432 34329136 34501580 34699504 34919244 
959.412 35156840 35409704 35676956 35959456 36259752 36580224 36922648 
962.787 37287548 37674224 38081564 38508440 38954660 39420420 39906040 
966.162 40411440 40935340 41476500 42033624 42606964 43198192 43810820 
969.537 44448720 45115204 45811800 46538828 47296012 48083568 48903744 
972.912 49760436 50658804 51603660 52598408 53644856 54742984 55893676 
976.286 57098928 58362788 59690972 61090500 62568368 64131728 65790296 
979.661 67556288 69446560 71483296 73690680 76092840 78711232 81560744 
983.036 84647336 87965608 91496000 95197424 98998992 102803736 106475896 
986.411 109851360 112764912 115052792 116588728 117304776 117197696 
989.304 116334704 114839512 112891184 110692144 108444920 106349064 
992.196 104564184 103205536 102345144 102006200 102175824 102814192 
995.089 103871176 105292584 107027424 109034488 111276280 113718328 
997.982 116330032 119078392 121929088 124847080 127787560 130692840 
1000.874 133491736 136089792 138380656 140259184 141627376 142419248 
1003.767 142609616 142220192 141317456 140008736 138439040 136764880 
1006.660 135152832 133765728 132735656 132168648 132135016 132667240 
1009.552 133771000 135431536 137626032 140327424 143509792 147149280 
1012.445 151217696 155683200 160511744 165663552 171099232 176777344 
1015.338 182641264 188612768 194576080 200360304 205760480 210543776 
1018.231 214477920 217387872 219176016 219855040 219546240 218481664 
1021.123 216977632 215371328 214020064 213240208 213264272 214250752 
1024.016 216260256 219270992 223189584 227876160 233167856 238873200 
1026.909 244798080 250742192 256488080 261830992 266583024 270591136 
1029.802 273767456 276090304 277605216 278402656 278607712 278359680 
1032.695 277787104 277011648 276128608 275190080 274197824 273089504 
1035.588 271748704 270006304 267680352 264612400 260680768 255832992 
1038.481 250082560 243501248 236204064 228337824 220078720 211607648 
1041.374 203111280 194770800 186732048 179112560 171992400 165412432 
1044.267 159389840 153924416 149006096 144620672 140751392 137379520 
1047.160 134485264 132049856 130058632 128502328 127376768 126678704 
1050.053 126399752 126520600 127008480 127814728 128884984 130163504 
1052.947 131597784 133145424 134766608 136415232 138035488 139548896 
1055.840 140855680 141850464 142422240 142475744 141948544 140814576 
1058.733 139096240 136861856 134231936 131363672 128433424 125636216 
1061.626 123149608 121122648 119675632 118883032 118780960 119370344 
1064.519 120622616 122482024 124865976 127676848 130793544 134079232 
1067.412 137401744 140629072 143646336 146367824 148726624 150676464 
1070.305 152186416 153232000 153796880 153873280 153465504 152591728 
1073.198 151284672 149596192 147593520 145362464 143013440 140667008 
1076.091 138454400 136508512 134939040 133833632 133248272 133203280 
1078.984 133689312 134668512 136081680 137841344 139833696 141928736 
1081.877 143972192 145812336 147326896 148436224 149131504 149475936 
1084.770 149604656 149692560 149931056 150513024 151592960 153282080 
1087.663 155637072 158650160 162244640 166266896 170508992 174699984 
1090.556 178534128 181728656 184028720 185255600 185329728 184264816 
1093.449 182163360 179185680 175541472 171449536 167108464 162696064 
1096.343 158338112 154109408 150040336 146121856 142320000 138585760 
1099.236 134870560 131130624 127332344 123458848 119512424 115517752 
1102.129 111519856 107586280 103799048 100239080 96986856 94108928 91650488 
1105.504 89642248 88097656 87018288 86398344 86227400 86492136 87174176 
1108.879 88250368 89690232 91451296 93482072 95717456 98074368 100459720 
1112.254 102762928 104859528 106631608 107965680 108772208 108999352 
1115.147 108632112 107694408 106239112 104344200 102100544 99598992 96934032 
1118.523 94189216 91432648 88720360 86090760 83568624 81171360 78910984 
1121.898 76798192 74843512 73054640 71435488 69984216 68694512 67558488 
1125.273 66571748 65737560 65070480 64595320 64340560 64335524 64600700 
1128.648 65143004 65953024 67005312 68261576 69669520 71168296 72690864 
1132.024 74160416 75502792 76651120 77553696 78187864 78563592 78725256 
1135.399 78740592 78694752 78676600 78758104 78992008 79400208 79972360 
1138.774 80665376 81408576 82117616 82694040 83044112 83091368 82775696 
1142.149 82063336 80944704 79430568 77548504 75339328 72858000 70166704 
1145.525 67333520 64431712 61526948 58678344 55934864 53329560 50884572 
1148.900 48611296 46513532 44590420 42839444 41257208 39840008 38583684 
1152.275 37483752 36535424 35734224 35076512 34559988 34182996 33944532 
1155.650 33843224 33877184 34044684 34345524 34781556 35357148 36078328 
1159.026 36951152 37979972 39166048 40507164 41996944 43624380 45373968 
1162.401 47222052 49135576 51073560 52983092 54805756 56483956 57958736 
1165.776 59179848 60107332 60710920 60974688 60897636 60493812 59790660 
1169.151 58826176 57647072 56298752 54826616 53273032 51673224 50060168 
1172.527 48464196 46911460 45427452 44034776 42751140 41590944 40563472 
1175.902 39673416 38922224 38308812 37830720 37484508 37266032 37170696 
1179.277 37193760 37331816 37582880 37947032 38425864 39021064 39733464 
1182.652 40561980 41503988 42557628 43723084 45004712 46410612 47950896 
1186.028 49635384 51469536 53451448 55567824 57792356 60085680 62389648 
1189.403 64633460 66738592 68620576 70207600 71448768 72322104 72838448 
1192.778 73038768 72987336 72754168 72409352 72012168 71601432 71198352 
1196.153 70806480 70416840 70013024 69576600 69091664 68544640 67924928 
1199.529 67223232 66428252 65527172 64506544 63354960 62068596 60654564 
1202.904 59134812 57542464 55919676 54313372 52764984 51309352 49970864 
1206.279 48762184 47686524 46739996 45914648 45200128 44584988 44058100 
1209.654 43608224 43225092 42901068 42631272 42414976 42255208 42158188 
1213.030 42131716 42183708 42321608 42551376 42877296 43301964 43825516 
1216.405 44445672 45156488 45950264 46817748 47749616 48738868 49780088 
1219.780 50870080 52006172 53186288 54408828 55674140 56987084 58357900 
1223.155 59801764 61338964 62990368 64773864 66702896 68783400 71011912 
1226.531 73374312 75844704 78382656 80928736 83411728 85745048 87832792 
1229.906 89585392 90918280 91763848 92080920 91857584 91119472 89928880 
1233.281 88391352 86644528 84839480 83143568 81712488 80678416 80156904 
1236.656 80233224 80968216 82406168 84573824 87483016 91127160 95477632 
1240.031 100474872 106017296 111972336 118161384 124364880 130349784 
1242.925 135855376 140622400 144430944 147103488 148542608 148740288 
1245.818 147777776 145809872 143035952 139698240 136042384 132298680 
1248.711 128682408 125352440 122402440 119849160 117628680 115605552 
1251.604 113591776 111398824 108860112 105869296 102404152 98522576 94351616 
1254.979 90048360 85788000 81727016 77977472 74610136 71645040 69059888 
1258.354 66799024 64787708 62945820 61191460 59457196 57693652 55869444 
1261.729 53974892 52016816 50015512 47997892 45994720 44037560 42153584 
1265.105 40366676 38695780 37153332 35746600 34476472 33338644 32324918 
1268.480 31424858 30628614 29927500 29314918 28785474 28333346 27951718 
1271.855 27632852 27367854 27149328 26971418 26829534 26720180 26638614 
1275.230 26578480 26532866 26494618 26458908 26424150 26392074 26366408 
1278.606 26351126 26349296 26362112 26389292 26429644 26480248 26536704 
1281.981 26590634 26630054 26640906 26608070 26521666 26379680 26190508 
1285.356 25971624 25747154 25544340 25387042 25295540 25285214 25366982 
1288.731 25549506 25840260 26244252 26764440 27399262 28142332 28981094 
1292.107 29897008 30865618 31853832 32821354 33724140 34513812 35149260 
1295.482 35602108 35861596 35937536 35858072 35665120 35403268 35115920 
1298.857 34840648 34604084 34424924 34314468 34276100 34306864 34396340 
1302.232 34528520 34681884 34833068 34961256 35048280 35081072 35051440 
1305.608 34954252 34787660 34553096 34256992 33911072 33531922 33140838 
1308.983 32758608 32403596 32089830 31825200 31614542 31460512 31365692 
1312.358 31333250 31365588 31463292 31623986 31842954 32115228 32436908 
1315.733 32806416 33224386 33691588 34207480 34769244 35372388 36012548 
1319.109 36687652 37397936 38144868 38927660 39740076 40568164 41389528 
1322.484 42173668 42889400 43505732 43999060 44359460 44594096 44730740 
1325.859 44814052 44905384 45070172 45363888 45824980 46461092 47247764 
1329.234 48129208 49033036 49885856 50622652 51204692 51621912 51892124 
1332.610 52053644 52158620 52265752 52427752 52691360 53091960 53649200 
1335.985 54367932 55236984 56233840 57325196 58473548 59643188 60798492 
1339.360 61908616 62949224 63901080 64752520 65498740 66138536 66670672 
1342.735 67089408 67379568 67517688 67472864 67211312 66705600 65937752 
1346.111 64903392 63611708 62084420 60354816 58462516 56456900 54394560 
1349.486 52334148 50341504 48482756 46817196 45400048 44272316 43458632 
1352.861 42969540 42801012 42938448 43356656 44021284 44886608 45890156 
1356.236 46961112 48019616 48984036 49786520 50373576 50712608 50794876 
1359.612 50633004 50260588 49725880 49096620 48453936 47882336 47469768 
1362.987 47288364 47381992 47765076 48421340 49313896 50390956 51596160 
1366.362 52868448 54136704 55328204 56366388 57177764 57707656 57922124 
1369.737 57814120 57399912 56716816 55818084 54763580 53625660 52483012 
1373.113 51412316 50491396 49782136 49320724 49115504 49148044 49385536 
1376.488 49791312 50338344 51013112 51816484 52761020 53868768 55169972 
1379.863 56697520 58483404 60546752 62877112 65414408 68033104 70558816 
1383.238 72766744 74423016 75332160 75343504 74389392 72497320 69813008 
1386.614 66590360 63145728 59820472 56881200 54478912 52652456 51350184 
1389.989 50474796 49914328 49570904 49362784 49222892 49100144 48950396 
1393.364 48737904 48441340 48055920 47596232 47089016 46565424 46048800 
1396.739 45550120 45070872 44608632 44164020 43746060 43371596 43060340 
1400.115 42829864 42688552 42636500 42667712 42774320 42950556 43193944 
1403.490 43506060 43891128 44354140 44897372 45519948 46217048 46980936 
1406.865 47803064 48675412 49591552 50545332 51530232 52538988 53562532 
1410.240 54592028 55620432 56642292 57653544 58647700 59612628 60531024 
1413.615 61381900 62145740 62812820 63386016 63880816 64319044 64723404 
1416.991 65110976 65491260 65870724 66258976 66671908 67133264 67664256 
1420.366 68271896 68947136 69667072 70403824 71130976 71833432 72511104 
1423.741 73178824 73860208 74579720 75355176 76192464 77089216 78038344 
1427.116 79033104 80065424 81121880 82181912 83213032 84174768 85029536 
1430.492 85750208 86330384 86786128 87154936 87485856 87827560 88226864 
1433.867 88723088 89352872 90159096 91192432 92508008 94154240 96148312 
1437.242 98466784 101053080 103829856 106707384 109576400 112311992 
1440.135 114751216 116705064 118001656 118494720 118104008 116824808 
1443.028 114717592 111890320 108469512 104597192 100404936 96002176 91489408 
1446.404 86956144 82500320 78249880 74349120 70938056 68121784 65940492 
1449.779 64375648 63371332 62865356 62805124 63151436 63872948 64929404 
1453.154 66265880 67824552 69541520 71361048 73242232 75144488 77026736 
1456.529 78842720 80551920 82128624 83566296 84880288 86088816 87209416 
1459.905 88258776 89255000 90216920 91160056 92090464 92995896 93840456 
1463.280 94574680 95144456 95517264 95699696 95740224 95708624 95661792 
1466.655 95629200 95605000 95561528 95459800 95260544 94923872 94395472 
1470.030 93599280 92434664 90788320 88582280 85824736 82645984 79265336 
1473.406 75917200 72769376 69887488 67265120 64871072 62692412 60753560 
1476.781 59108352 57809200 56890836 56355372 56181116 56341188 56820656 
1480.156 57624560 58774084 60293676 62196516 64476832 67113120 70079088 
1483.531 73353912 76931832 80816448 85004952 89474920 94156584 98913776 
1486.906 103555512 107822144 111409184 114015536 115359384 115247808 
1489.800 113635544 110655632 106606240 101863200 96806984 91721360 86763992 
1493.175 82001344 77426240 73008184 68737560 64640992 60791140 57289620 
1496.550 54229460 51663444 49588508 47964404 46732096 45837168 45242632 
1499.925 44924416 44866144 45053300 45468068 46088736 46892304 47848116 
1503.301 48918320 50053176 51169164 52144984 52814712 52976504 52462632 
1506.676 51217888 49340696 47031852 44495004 41869584 39221492 36579180 
1510.051 33965776 31410396 28962216 26679130 24606832 22776414 21194016 
1513.426 19846216 18708846 17753548 16952088 16274273 15691083 15179386 
1516.802 14725290 14329917 14005253 13765642 13616244 13547256 13531565 
1520.177 13533752 13520695 13478790 13423014 13389013 13412284 13508185 
1523.552 13669753 13875374 14101799 14333102 14567886 14817471 15099411 
1526.927 15426542 15800752 16214836 16658889 17127732 17624614 18160208 
1530.302 18747728 19396224 20106904 20870720 21669942 22483934 23294420 
1533.678 24091674 24875132 25650972 26425138 27198886 27966488 28717114 
1537.053 29439288 30116424 30730064 31258042 31672988 31945974 32055404 
1540.428 32000686 31804770 31508536 31155684 30774984 30373546 29938328 
1543.803 29447798 28885398 28254660 27582042 26909830 26277656 25703910 
1547.179 25183026 24688752 24188912 23658992 23096102 22520086 21967172 
1550.554 21470312 21045382 20688066 20379730 20099720 19835152 19586758 
1553.929 19367192 19193410 19075162 19010148 18982316 18965944 18923820 
1557.304 18806580 18558324 18128078 17504790 16742701 15945988 15215244 
1560.680 14605545 14126033 13755040 13458762 13201657 12953272 12694623 
1564.055 12420786 12141941 11878463 11651764 11473457 11342258 11244964 
1567.430 11163398 11079842 10982811 10869969 10747443 10626581 10518244 
1570.805 10431249 10371315 10341657 10344135 10378171 10438919 10515529 
1574.181 10591778 10649840 10675207 10666275 10637582 10616463 10628516 
1577.556 10688790 10799852 10956407 11152655 11387120 11663404 11988365 
1580.931 12368486 12806814 13300859 13843149 14423041 15026070 15633615 
1584.306 16222714 16763981 17225628 17579932 17806570 17900682 17874858 
1587.682 17760556 17603118 17456566 17379964 17423938 17629618 18023656 
1591.057 18612342 19379352 20279488 21244364 22178678 22973082 23526788 
1594.432 23752562 23599620 23062346 22181782 21036964 19724078 18347020 
1597.807 16992848 15725540 14589130 13605988 12783029 12115501 11590947 
1601.183 11192432 10902856 10710389 10609400 10600843 10689198 10878598 
1604.558 11168395 11551509 12012106 12525914 13062559 13581680 14037010 
1607.933 14382624 14573677 14577378 14378000 13979418 13406304 12701105 
1611.308 11921575 11125867 10365072 9676954 9078323 8570603 8142672 7778070 
1615.166 7457322 7162512 6882848 6615912 6369113 6155924 5990172 5880434 
1619.023 5827170 5823913 5857999 5914424 5976735 6031630 6071377 6094898 
1622.881 6107130 6115800 6128435 6148934 6178744 6217833 6266203 6323857 
1626.738 6389892 6461621 6534606 6604070 6668701 6730817 6798025 6879212 
1630.595 6982099 7110101 7261523 7429581 7605224 7779116 7941199 8081636 
1634.453 8190144 8256226 8274057 8246399 8187240 8116205 8052405 8008189 
1638.310 7986758 7983754 7989896 7995803 7994520 7985475 7973765 7968230 
1642.168 7977005 8003532 8046025 8096895 8146690 8184369 8200914 8190279 
1646.025 8150134 8083055 7997254 7907117 7830225 7784041 7782759 7833733 
1649.883 7936812 8082581 8252748 8415041 8525693 8542419 8445041 8259265 
1653.740 8044203 7857822 7725653 7644677 7598514 7571169 7552018 7536307 
1657.597 7523428 7513416 7505291 7495515 7479266 7451491 7408449 7347212 
1661.455 7265600 7162512 7037525 6894563 6742225 6593843 6464916 6366927 
1665.312 6306006 6279784 6278708 6286507 6284591 6255883 6188155 6078165 
1669.170 5931823 5762463 5585819 5417031 5267994 5145629 5052462 4985424 
1673.027 4935286 4886695 4820185 4719518 4578489 4407614 4229914 4072420 
1676.885 3952532 3872893 3824421 3792298 3763955 3733475 3705202 3690298 
1680.742 3701226 3743735 3812053 3885496 3932838 3918227 3815930 3628047 
1684.599 3388817 3148049 2943307 2789982 2683216 2609242 2552945 2501754 
1688.457 2447703 2385663 2314472 2236164 2157006 2086218 2034449 2010981 
1692.314 2020002 2058318 2114718 2171391 2207223 2204493 2157905 2080158 
1696.172 1999197 1941980 1923975 1942979 1982986 2017638 2016773 1956692 
1700.029 1830598 1658240 1476940 1323333 1216362 1156093 1131974 1128685 
1703.886 1130578 1122739 1094935 1042919 970785 888137 806800 736498 682168 
1708.226 644039 619385 605051 599477 603657 620944 654990 708154 779680 
1712.566 865727 960889 1060157 1160245 1259825 1358065 1451340 1531302 
1716.423 1585305 1599538 1566616 1490737 1388645 1281658 1188818 1120613 
1720.281 1077794 1055274 1044812 1039232 1033254 1024286 1011832 996555 
1724.138 979386 961453 944883 932198 926620 930472 943289 962250 981511 
1728.478 995691 1002367 1003529 1005887 1017544 1044779 1086663 1134033 
1732.335 1168385 1167089 1109717 990544 824693 645201 486149 367545 294031 
1736.675 257793 246023 245194 243603 233226 210916 178297 141140 107036 
1741.014 82014 69520 69421 79197 94674 112140 129739 148333 171071 201766 
1745.836 243470 296849 359586 427307 495172 558899 615370 661759 694082 
1750.176 706694 694149 654260 591381 516336 443460 386680 353319 343371 
1754.515 348411 355375 349406 319297 262567 186253 104086 29357 -28693 
1758.855 -68847 -96011 -119431 -148878 -191472 -250719 -324989 -408747 
1762.712 -493251 -569995 -630679 -669420 -683414 -673820 -645997 -608477 
1766.570 -571484 -543687 -527968 -520786 -513472 -497123 -466640 -424272 
1770.427 -379219 -345086 -334591 -353363 -397161 -453169 -506291 -544812 
1774.284 -564502 -567347 -557850 -539683 -514564 -482362 -442941 -397823 
1778.142 -351641 -310156 -279693 -264097 -263037 -272442 -285852 -297640 
1781.999 -304428 -306448 -305918 -306116 -309328 -316612 -327141 -338862 
1785.857 -349258 -355316 -353561 -341080 -315023 -274263 -220749 -159941 
1789.714 -100152 -51752 -25247 -27036 -58808 -115688 -188922 -267541 -342801 
1794.054 -410038 -467402 -514862 -553747 -585415 -611654 -634980 -658338 
1797.911 -684705 -716032 -752848 -794324 -838772 -884539 -930367 -975727 
1801.769 -1019959 -1062236 -1100245 -1131444 -1153816 -1166770 -1171463 
1805.144 -1170372 -1166308 -1160888 -1154015 -1144266 -1130155 -1111218 
1808.519 -1089008 -1066533 -1047494 -1034107 -1026339 -1021744 -1016752 
1811.894 -1008290 -995100 -977744 -958338 -938600 -919754 -901601 -883679 
1815.752 -865195 -846379 -828025 -811323 -796970 -784931 -774579 -765020 
1819.609 -755527 -745505 -734192 -720465 -702535 -679610 -652085 -623102 
1823.467 -598055 -583959 -585547 -603183 -631208 -660521 -680735 -685499 
1827.324 -674515 -654070 -634583 -626609 -637560 -667799 -711434 -757644 
1831.181 -796606 -822502 -833713 -832324 -820881 -801666 -774843 -740312 
1835.039 -697672 -647949 -593224 -535877 -477166 -417354 -355018 -287971 
1838.896 -214655 -133642 -44794 52686 159238 275398 400244 531231 663020 
1843.236 788643 902248 1001636 1090483 1175893 1265474 1363682 1470024 
1847.093 1578953 1682754 1773936 1848001 1903641 1942779 1968175 1981455 
1850.951 1981888 1967542 1936090 1887168 1822579 1745957 1660801 1569376 
1854.808 1471421 1365843 1251484 1129715 1004260 880468 763051 654160 552563 
1859.148 454903 357564 258853 160066 64781 -22629 -99457 -164512 -218364 
1863.487 -261514 -293203 -310951 -312341 -296746 -266812 -228962 -192896 
1867.345 -167592 -159080 -169016 -193625 -226610 -261382 -294064 -322539 
1871.202 -347106 -367996 -384648 -395771 -400571 -399346 -393454 -385674 
1875.060 -378292 -372233 -367996 -365414 -365083 -369949 -383622 -409575 
1878.917 -449462 -501690 -561887 -624657 -684605 -739518 -790157 -838673 
1882.774 -887383 -936781 -984455 -1027033 -1060947 -1084513 -1098758 
1886.150 -1106359 -1110623 -1114357 -1118687 -1124206 -1131311 -1140730 
1889.525 -1153122 -1168455 -1184383 -1196873 -1201301 -1194494 -1176155 
1892.900 -1149685 -1121165 -1096015 -1077572 -1065343 -1054600 -1040189 
1896.275 -1018141 -987529 -951262 -913372 -877099 -843072 -809372 -773520 
1900.133 -734027 -692413 -652151 -618271 -593521 -577705 -567116 -557023 
1903.990 -542992 -523467 -499374 -473392 -448105 -424570 -402292 -381073 
1907.848 -361772 -346874 -340583 -345947 -363758 -391434 -423974 -456479 
1911.705 -485705 -511685 -536142 -561259 -586540 -609139 -624756 -630645 
1915.563 -627999 -623367 -626344 -647089 -690130 -752881 -825511 -895352 
1919.420 -951857 -990703 -1014372 -1029809 -1044883 -1064979 -1091652 
1922.795 -1123082 -1156196 -1188447 -1219375 -1249540 -1279010 -1306562 
1926.170 -1330115 -1347490 -1358225 -1364930 -1371602 -1381973 -1397133 
1929.546 -1415199 -1432042 -1443798 -1449578 -1452319 -1457404 -1470052 
1932.921 -1491417 -1518294 -1543619 -1561018 -1567324 -1565145 -1561777 
1936.296 -1565178 -1579671 -1603572 -1629552 -1648664 -1654177 -1645364 
1939.671 -1627307 -1608425 -1596310 -1592876 -1595055 -1595782 -1587792 
1943.047 -1567885 -1538171 -1504228 -1472958 -1448752 -1433164 -1425668 
1946.422 -1424974 -1430787 -1443501 -1461895 -1482402 -1498285 -1501389 
1949.797 -1485242 -1448389 -1395548 -1336655 -1283635 -1245080 -1224595 
1953.172 -1220102 -1227470 -1241941 -1261963 -1288458 -1324235 -1369785 
1956.548 -1423984 -1482039 -1539194 -1592381 -1641700 -1689560 -1737778 
1959.923 -1785727 -1828293 -1858680 -1870425 -1862342 -1838356 -1806350 
1963.298 -1773617 -1744312 -1717548 -1689329 -1657015 -1622092 -1591721 
1966.673 -1576073 -1583039 -1614565 -1663617 -1717977 -1765664 -1799487 
1970.049 -1819945 -1833704 -1848782 -1869138 -1893188 -1913345 -1921361 
1973.424 -1913213 -1890417 -1859274 -1826907 -1796550 -1766786 -1732234 
1976.799 -1688273 -1635659 -1581817 -1537808 -1511526 -1505549 -1513969 
1980.174 -1527572 -1536883 -1538402 -1535695 -1536652 -1548373 -1572969 
1983.550 -1604794 -1633381 -1648037 -1642360 -1617305 -1580761 -1543222 
1986.925 -1512483 -1490756 -1475434 -1460706 -1442345 -1419294 -1393962 
1990.300 -1369950 -1349240 -1329487 -1306892 -1277160 -1239629 -1198261 
1993.675 -1159533 -1130254 -1113366 -1107913 -1108376 -1108409 -1103517 
1997.051 -1092776 -1079555 -1067194 -1059294 -1056352 -1057245 -1059889 
2000.426 -1063955 -1069937 -1080018 -1095156 -1113697 -1132468 -1147504 
2003.801 -1157418 -1164391 -1173412 -1190166 -1216798 -1250928 -1284626 
2007.176 -1308643 -1317033 -1309469 -1292225 -1274352 -1263516 -1262491 
2010.552 -1268636 -1275838 -1278184 -1273625 -1264044 -1252316 -1240818 
2013.927 -1227172 -1205762 -1170438 -1117927 -1052088 -981711 -918563 
2017.302 -871378 -843072 -829149 -821344 -812613 -797995 -778978 -759232 
2021.159 -742329 -730057 -720597 -711798 -704057 -700848 -708192 -731248 
2025.017 -770676 -820187 -870750 -911355 -936318 -948055 -954932 -967561 
2028.874 -993083 -1030735 -1072680 -1107384 -1125032 -1122190 -1101501 
2032.250 -1070301 -1034966 -998306 -958800 -913141 -860565 -804577 -752418 
2036.107 -711996 -686987 -674284 -665318 -649339 -619065 -573568 -517874 
2039.964 -460947 -410932 -372531 -345649 -326777 -314096 -306116 -304991 
2043.822 -311613 -325486 -341709 -353926 -355151 -343431 -320884 -295422 
2047.679 -275091 -265554 -267475 -276514 -288104 -298567 -308600 -320983 
2051.537 -339127 -362864 -388058 -406794 -411793 -399081 -371472 -337173 
2055.394 -307010 -290554 -292011 -309792 -337537 -367565 -393354 -411230 
2059.251 -420135 -419704 -409575 -389415 -359289 -321579 -281283 -244659 
2063.109 -217139 -200977 -194254 -192333 -189949 -183556 -173819 -163883 
2066.966 -158020 -159113 -166301 -176137 -184782 -189352 -190114 -190412 
2070.824 -194320 -204653 -221775 -243566 -267044 -290653 -314659 -340947 
2074.681 -370744 -403385 -435428 -461907 -479085 -485970 -485539 -484116 
2078.539 -486797 -496660 -511784 -526809 -535910 -535149 -525519 -511685 
2082.396 -500499 -496792 -501790 -512711 -524592 -532832 -535612 -534520 
2086.253 -533891 -537896 -548783 -566487 -588856 -613672 -640406 -669784 
2090.111 -703263 -741469 -782847 -823064 -857060 -880307 -891218 -891218 
2093.968 -883977 -874123 -865658 -860168 -858052 -858812 -861987 -867179 
2097.826 -874057 -881199 -886523 -887912 -883613 -874421 -862549 -851240 
2101.683 -842642 -837218 -832357 -823692 -807718 -782517 -749375 -712327 
2105.541 -675706 -642953 -614731 -589385 -564303 -537101 -506853 -473922 
2109.398 -439631 -404676 -369088 -332505 -295190 -259097 -227074 -202335 
2113.255 -187166 -181370 -181635 -183490 -182563 -175641 -162028 -142718 
2117.113 -119365 -92666 -62188 -27334 11696 52818 92387 126159 151747 169082 
2121.935 181247 192518 206606 224143 242708 257395 263528 258323 242376 
2126.274 218640 190894 161193 129175 92354 47815 -6229 -68283 -135563 
2130.614 -204123 -270852 -335352 -398618 -462073 -525783 -587334 -643152 
2134.471 -689468 -725691 -754270 -780367 -809537 -845684 -887747 -932648 
2138.329 -974702 -1010604 -1038602 -1060451 -1078299 -1093900 -1106921 
2141.704 -1115085 -1116109 -1109830 -1098560 -1087818 -1083026 -1088909 
2145.079 -1107847 -1139342 -1181277 -1231600 -1288194 -1348844 -1409782 
2148.454 -1466023 -1511327 -1541241 -1554679 -1555174 -1550684 -1549925 
2151.830 -1560226 -1584887 -1622554 -1670218 -1725963 -1790776 -1868214 
2155.205 -1961076 -2067868 -2178425 -2277582 -2344916 -2365941 -2335523 
2158.580 -2261859 -2162402 -2055798 -1955370 -1865113 -1781734 -1699759 
2161.955 -1616117 -1533450 -1457503 -1394557 -1346631 -1311682 -1283437 
2165.331 -1256346 -1226908 -1196510 -1169645 -1151074 -1142448 -1142019 
2168.706 -1144993 -1146744 -1144662 -1139871 -1135574 -1135475 -1140532 
2172.081 -1149157 -1156890 -1160194 -1157154 -1149619 -1140598 -1134352 
2175.456 -1133261 -1137855 -1146976 -1159434 -1175428 -1195618 -1220630 
2178.832 -1248549 -1274781 -1292786 -1297675 -1288194 -1268273 -1246435 
2182.207 -1232657 -1234045 -1250961 -1278547 -1306991 -1327901 -1334904 
2185.582 -1326646 -1305472 -1274781 -1236688 -1190826 -1136401 -1072515 
2188.957 -1001513 -927689 -856861 -793861 -741039 -697077 -659628 -625848 
2192.815 -595010 -568340 -547956 -534950 -528530 -525585 -521944 -514101 
2196.672 -501790 -485771 -468693 -453401 -440624 -430131 -421260 -413911 
2200.530 -409542 -409674 -415567 -425464 -436255 -442114 -437976 -421227 
2204.387 -392758 -356309 -317208 -279693 -246215 -216775 -190677 -167592 
2208.244 -148713 -135000 -127083 -123340 -120823 -115754 -106314 -92699 
2212.102 -78984 -69774 -68283 -73716 -81170 -83357 -73915 -49863 -14346 
2216.441 25712 61434 86455 98949 101733 99711 97822 97855 98783 97491 91691 
2221.745 80954 67598 54906 45992 41021 37575 32041 21073 3214 -19681 -44529 
2227.049 -67290 -85841 -98761 -106678 -110090 -109957 -105949 -98827 -89850 
2231.389 -81369 -75837 -74611 -77195 -80541 -80872 -74379 -60200 -39361 
2235.729 -15473 7852 27932 45528 62561 82180 105975 133782 163646 192982 
2240.550 220098 245327 270259 297115 326393 357630 388571 416031 438385 
2244.890 455964 469862 482533 495603 508872 521279 531198 537468 540487 
2249.229 541449 542544 545098 549809 556411 564705 574592 587267 603458 
2253.569 623665 646794 670421 691726 708187 718343 722392 721131 715522 
2257.909 705997 692888 676394 658375 641318 629472 625723 631397 645101 
2262.248 663120 681007 695974 707822 719504 734871 757607 788377 825257 
2266.588 863469 897965 925192 943820 955144 961287 964442 965571 964442 
2270.927 960789 955011 948170 942392 939603 940898 946377 954546 964541 
2275.267 975699 988518 1003396 1020666 1039631 1058662 1075901 1090184 
2279.125 1101910 1112540 1124931 1141176 1162338 1188187 1217758 1249723 
2282.982 1284483 1322269 1364347 1411249 1461846 1513978 1564754 1611444 
2286.839 1652785 1689140 1721906 1752910 1783352 1813995 1844840 1876153 
2290.697 1908633 1943279 1981522 2024263 2070836 2120578 2171857 2223342 
2294.554 2275133 2327497 2381599 2438107 2496955 2557478 2618809 2680182 
2298.412 2741797 2804188 2867555 2931465 2994217 3052974 3105264 3149550 
2302.269 3185864 3216172 3243579 3270820 3299798 3331483 3365809 3402842 
2306.126 3442884 3487038 3536441 3591864 3652739 3717300 3783575 3849258 
2309.984 3913179 3975002 4035196 4094161 4151829 4207330 4259759 4308581 
2313.841 4354464 4399480 4446008 4496893 4553877 4617400 4687095 4761892 
2317.699 4840623 4922652 5007345 5094098 5181943 5269134 5353961 5434175 
2321.556 5507960 5573367 5628715 5672320 5703171 5721200 5727713 5725967 
2325.414 5720562 5716701 5719420 5731742 5754573 5786673 5824585 5864850 
2329.271 5903508 5938038 5966892 5989534 6006130 6017855 6026422 6034485 
2333.128 6044867 6061095 6085288 6118689 6160898 6210438 6265362 6323925 
2336.986 6385252 6448976 6514525 6580185 6643231 6700095 6747004 6781836 
2340.843 6804486 6816873 6822056 6822224 6817546 6804655 6777393 6728832 
2344.701 6653123 6549271 6422342 6284692 6152933 6045472 5979758 5968471 
2348.558 6018460 6130753 6300795 6518763 6770494 7041095 7315334 7580879 
2352.416 7829820 8058953 8268316 8459467 8634243 8793771 8939254 9072538 
2356.273 9196419 9314718 9430373 9545110 9658184 9767424 9870150 9964119 
2360.130 10048444 10123492 10189395 10246012 10291407 10323741 10341386 
2363.506 10344304 10333412 10311832 10281567 10244180 10199266 10145640 
2366.881 10081643 10006669 9920759 9825241 9721305 9609265 9489398 9361199 
2370.738 9225458 9084211 8941012 8800264 8666150 8541406 8427271 8323400 
2374.596 8229211 8144361 8069349 8005860 7955474 7919771 7899458 7894532 
2378.453 7904756 7929625 7969276 8023242 8091358 8172485 8264804 8365891 
2382.311 8473253 8584391 8697249 8809730 8919570 9023854 9118994 9201632 
2386.168 9268749 9318644 9350772 9365737 9365126 9350128 9322504 9283202 
2390.025 9233717 9175336 9109282 9036168 8955963 8867758 8770239 8662804 
2393.883 8546137 8423183 8298779 8178258 8067425 7970288 7889268 7824927 
2397.740 7777227 7745722 7730375 7731488 7749128 7782388 7829313 7887715 
2401.598 7955406 8030870 8114348 8207127 8310565 8425987 8553538 8692077 
2405.455 8840603 8998008 9164202 9340040 9526889 9725575 9936760 10159886 
2409.313 10393951 10637582 10889607 11148609 11413210 11681070 11949264 
2412.688 12213705 12469886 12713115 12938696 13142535 13321119 13471442 
2416.063 13591457 13680696 13739719 13770808 13776998 13761539 13727510 
2419.438 13677345 13612689 13535121 13446082 13347633 13242408 13132597 
2422.813 13020630 12908145 12796645 12687425 12582120 12483423 12394294 
2426.189 12318171 12258249 12216977 12196326 12197996 12223247 12273348 
2429.564 12349362 12451200 12578027 12727275 12895789 13080179 13277662 
2432.939 13486925 13707676 13940480 14185767 14443832 14714597 14997911 
2436.314 15294418 15605381 15932342 16277369 16641812 17026514 17431696 
2439.690 17857768 18305302 18775926 19271166 19792320 20339832 20912822 
2443.065 21509478 22127944 22766952 23426132 24105332 24804260 25521394 
2446.440 26253580 26996946 27747096 28499676 29252428 30003294 30751404 
2449.815 31495638 32234728 32966286 33688116 34397488 35091420 35766212 
2453.191 36416788 37037164 37620092 38157784 38643044 39069352 39430868 
2456.566 39722684 39939604 40075992 40126396 40085768 39950432 39718508 
2459.941 39390160 38967128 38452180 37849376 37163368 36399672 35565388 
2463.316 34668748 33719164 32727200 31703248 30657486 29600154 28540686 
2466.692 27488240 26452534 25442336 24466732 23533574 22648736 21816598 
2470.067 21039502 20318512 19653524 19044142 18489548 17988048 17536872 
2473.442 17132004 16767737 16438045 16137386 15860718 15604625 15366774 
2476.817 15145522 14938853 14744828 14560690 14383788 14211854 14043308 
2480.193 13877495 13714481 13555255 13401007 13253408 13114429 12985601 
2483.568 12868449 12763579 12670401 12587544 12513092 12445062 12382396 
2486.943 12324784 12273042 12228088 12190669 12160886 12138159 12121804 
2490.318 12111004 12105859 12106847 12114342 12129231 12151346 12180173 
2493.694 12214592 12253750 12296355 12342032 12389862 12439299 12489561 
2497.069 12540101 12590511 12640790 12691212 12741912 12792243 12841350 
2500.444 12887187 12928523 12964332 12995092 13022508 13048764 13076081 
2503.819 13105824 13138266 13172830 13208454 13244628 13281249 13318762 
2507.195 13357474 13396770 13435112 13469938 13498375 13517994 13527087 
2510.570 13525310 13512628 13489796 13456916 13414335 13362121 13300586 
2513.945 13230452 13152781 13069081 12980924 12889850 12797634 12705745 
2517.320 12616298 12530961 12451233 12377759 12310263 12247683 12188794 
2520.696 12133150 12080817 12032852 11990953 11956485 11929817 11910575 
2524.071 11897294 11888985 11884354 11883128 11885341 11891165 11900019 
2527.446 11911495 11924539 11938944 11954918 11973787 11997085 12026379 
2530.821 12062012 12103065 12147564 12193531 12239129 12283607 12327544 
2534.197 12372032 12418365 12467908 12521549 12580074 12643621 12712535 
2537.572 12786612 12864729 12945694 13027731 13109136 13189326 13268678 
2540.947 13348590 13430943 13517004 13607218 13700802 13795604 13889981 
2544.322 13982155 14071782 14158484 14243045 14325671 14406394 14484460 
2547.698 14559183 14629737 14695916 14757443 14814385 14866876 14915225 
2551.073 14959875 15001958 15042843 15083767 15125965 15169264 15212911 
2554.448 15255121 15294074 15328878 15359497 15386924 15412397 15436567 
2557.823 15459227 15478489 15491846 15496688 15490919 15473408 15444361 
2561.198 15404364 15354519 15295653 15228765 15155094 15076152 14994069 
2564.574 14910836 14828338 14747948 14670349 14596120 14525915 14460446 
2567.949 14401496 14350636 14309027 14277455 14256192 14244277 14240956 
2571.324 14245202 14255713 14271430 14291050 14313274 14337074 14362109 
2574.699 14388549 14417800 14451369 14490250 14534685 14583991 14636558 
2578.075 14690810 14746029 14802386 14860637 14922118 14987416 15056290 
2581.450 15127955 15201518 15276536 15353489 15433752 15518562 15608678 
2584.825 15703518 15801301 15900103 15997861 16093854 16188284 16281910 
2588.200 16375419 16469086 16561328 16651316 16737260 16818846 16896210 
2591.576 16970658 17043090 17114600 17185158 17254692 17323030 17390414 
2594.951 17457980 17526974 17598598 17673892 17752548 17834670 17919778 
2598.326 18008322 18101272 18199802 18305128 18417742 18537334 18663116 
2601.701 18794090 18929532 19069138 19212876 19360886 19512656 19667702 
2605.077 19825198 19984694 20146434 20311082 20479510 20652448 20829560 
2608.452 21009630 21190540 21370236 21546386 21717348 21881790 22038592 
2611.827 22185930 22321878 22444050 22550238 22639172 22710318 22764192 
2615.202 22802324 22826418 22838364 22839690 22831658 22815070 22791114 
2618.578 22760910 22725610 22686542 22645454 22603360 22562000 22522528 
2621.953 22486060 22453610 22425838 22403020 22385750 22374518 22369912 
2625.328 22372564 22383274 22402042 22428908 22463382 22504730 22552368 
2628.703 22606326 22666680 22734270 22809552 22892706 22983562 23081216 
2632.079 23184624 23292984 23405604 23522242 23643108 23768452 23898104 
2635.454 24032102 24169888 24311294 24455620 24602766 24752518 24904326 
2638.829 25057658 25211572 25365190 25517422 25667000 25813150 25954916 
2642.204 26091766 26223696 26350986 26474720 26596306 26717010 26838486 
2645.580 26961194 27085526 27211232 27337682 27464838 27593200 27723432 
2648.955 27856884 27994726 28137876 28286626 28440946 28600454 28764622 
2652.330 28933386 29106644 29284472 29467158 29654572 29846712 30043486 
2655.705 30245002 30451336 30662572 30878888 31099942 31325772 31555780 
2659.081 31789512 32026868 32267384 32510642 32756250 33003428 33251460 
2662.456 33499602 33747384 33994192 34240136 34485188 34729224 34972284 
2665.831 35214328 35455396 35695768 35935844 36176084 36417112 36659172 
2669.206 36902560 37147848 37395120 37645096 37898292 38155068 38415368 
2672.582 38678464 38942880 39207132 39469004 39727076 39979744 40226052 
2675.957 40465412 40697184 40921176 41137640 41346996 41550692 41750720 
2679.332 41949828 42151032 42357548 42572536 42799076 43040072 43298116 
2682.707 43574960 43872468 44191092 44531128 44891972 45272828 45672748 
2686.083 46091056 46526732 46979168 47446816 47928180 48421340 48924588 
2689.458 49436588 49957036 50486152 51024964 51574744 52136464 52710888 
2692.833 53298320 53899112 54512948 55139500 55778036 56427472 57086420 
2696.208 57753220 58426884 59106756 59792864 60485852 61185856 61893332 
2699.583 62607592 63327856 64052656 64780868 65511144 66242108 66972024 
2702.959 67698528 68418136 69127288 69822304 70498792 71153232 71781720 
2706.334 72379600 72942336 73463536 73937864 74359976 74725944 75033496 
2709.709 75281912 75471608 75603504 75679016 75699296 75665888 75579992 
2713.084 75442720 75255272 75017888 74730184 74391592 74001264 73559568 
2716.460 73067264 72526536 71940992 71314184 70650000 69952376 69225352 
2719.835 68473304 67701320 66915124 66121368 65326744 64537688 63760692 
2723.210 63001016 62263660 61553556 60874348 60230028 59623724 59057748 
2726.585 58533976 58053596 57617068 57224596 56875536 56569704 56305844 
2729.961 56083008 55899780 55755092 55647740 55576860 55541804 55541464 
2733.336 55574864 55640472 55735916 55859384 56008364 56180364 56373596 
2736.711 56585332 56813144 57053772 57303572 57559036 57816052 58070908 
2740.086 58320380 58561356 58790660 59006084 59205476 59388088 59553868 
2743.462 59704620 59842948 59971924 60094584 60213548 60330528 60446928 
2746.837 60563704 60682416 60804328 60930424 61061628 61197684 61337632 
2750.212 61480908 61626908 61776008 61930132 62092180 62265804 62454680 
2753.587 62662556 62891736 63144840 63423856 63730300 64065404 64429984 
2756.963 64823716 65245448 65693192 66163964 66653444 67157088 67668752 
2760.338 68181208 68687136 69177800 69644744 70080880 70479192 70834720 
2763.713 71143192 71401312 71606048 71755600 71848840 71886256 71870224 
2767.088 71804544 71694048 71543928 71359520 71145848 70908056 70651864 
2770.464 70383176 70108840 69835696 69569872 69315520 69075696 68851336 
2773.839 68642240 68447232 68265808 68097056 67940656 67796048 67661704 
2777.214 67535224 67412568 67288408 67156000 67008444 66838020 66638104 
2780.589 66403888 66132516 65823532 65479704 65105320 64706408 64289800 
2783.965 63862160 63429608 62997760 62571736 62155068 61750836 61360948 
2787.340 60986012 60625952 60280120 59947692 59627984 59320704 59026088 
2790.715 58744608 58476428 58221484 57979184 57748908 57529792 57320772 
2794.090 57120848 56928684 56742152 56558796 56375368 56188548 55995396 
2797.466 55793220 55580136 55355000 55117192 54866356 54602212 54324412 
2800.841 54032864 53727228 53407420 53073200 52724244 52360348 51981224 
2804.216 51587280 51179676 50760312 50331904 49898344 49462948 49030068 
2807.591 48603436 48186924 47784124 47398772 47034176 46693468 46379016 
2810.967 46091976 45833080 45601716 45396588 45216420 45060064 44926620 
2814.342 44815408 44726332 44659196 44613996 44590680 44589504 44610252 
2817.717 44653248 44718544 44806444 44917104 45050728 45207372 45387728 
2821.092 45591852 45820192 46072636 46348452 46646540 46964988 47301220 
2824.468 47652320 48015396 48387072 48763628 49141552 49516384 49883664 
2827.843 50238272 50575000 50888484 51173824 51425968 51641500 51817860 
2831.218 51953848 52049800 52107700 52130936 52123204 52089696 52035944 
2834.593 51967596 51891264 51813272 51739320 51674488 51621720 51582912 
2837.969 51558328 51547920 51551720 51571496 51610040 51672360 51764816 
2841.344 51893992 52067280 52291800 52574924 52924588 53350428 53861976 
2844.719 54469564 55181824 56003048 56930080 57949880 59037856 60154216 
2848.094 61248420 62261944 63129248 63790312 64195140 64308664 64117828 
2851.469 63630812 62877796 61901356 60756608 59503404 58196936 56890188 
2854.845 55627512 54441692 53357512 52389172 51541908 50813388 50195384 
2858.220 49675912 49240072 48872484 48558968 48285784 48042340 47819820 
2861.595 47612056 47415328 47228260 47051128 46886028 46735972 46604484 
2864.970 46495016 46410980 46355200 46330276 46337724 46378424 46452352 
2868.346 46558084 46692728 46852404 47031740 47224600 47424900 47625956 
2871.721 47821560 48006884 48177928 48332816 48472124 48598692 48717512 
2875.096 48834848 48958372 49094244 49248424 49425264 49626988 49855008 
2878.471 50109252 50388980 50692912 51019188 51366144 51731444 52113192 
2881.847 52509260 52917292 53334284 53756704 54179456 54597028 55003116 
2885.222 55391736 55758028 56098840 56412528 56699976 56963776 57208156 
2888.597 57438528 57661568 57884872 58116284 58364344 58638256 58946688 
2891.972 59299928 59709180 60187056 60748456 61409572 62186152 63093380 
2895.348 64140528 65328820 66646336 68066632 69545952 71021240 72420240 
2898.723 73662568 74668920 75377672 75747616 75768288 75458760 74867008 
2902.098 74061312 73114624 72104160 71097568 70146960 69293328 68563192 
2905.473 67971376 67525504 67226976 67072860 67058472 67178168 67426736 
2908.849 67800032 68296368 68914552 69653920 70511888 71482592 72554688 
2912.224 73712632 74933384 76188392 77445928 78668784 79818032 80857880 
2915.599 81754728 82483448 83029792 83390336 83572392 83591480 83468504 
2918.974 83224352 82877384 82441784 81925872 81333328 80665336 79922216 
2922.350 79106448 78224528 77286832 76308848 75309848 74309448 73327744 
2925.725 72382264 71486192 70648984 69875816 69167816 68523576 67939920 
2929.100 67412184 66935228 66503236 66110408 65749852 65414756 65098160 
2932.475 64792672 64491904 64190344 63884080 63571280 63251652 62926748 
2935.851 62599128 62271348 61946368 61625876 61311832 61005612 60709432 
2939.226 60426288 60160416 59916504 59700136 59516056 59367956 59257424 
2942.601 59182996 59139556 59117728 59104708 59084776 59039904 58954240 
2945.976 58814752 58614292 58352708 58037768 57683172 57305648 56923544 
2949.352 56552756 56204160 55883236 55589476 55317364 55057008 54797636 
2952.727 54528124 54239368 53925032 53582136 53210860 52814264 52396236 
2956.102 51962028 51516428 51063980 50608952 50155288 49706708 49266940 
2959.477 48838632 48423632 48022836 47635720 47261176 46898540 46547572 
2962.853 46209156 45885296 45579084 45293896 45033304 44800420 44598056 
2966.228 44428312 44292312 44190320 44120664 44080760 44065764 44070200 
2969.603 44087840 44112960 44141132 44169592 44197512 44226200 44258188 
2972.978 44297044 44346104 44408200 44484032 44571148 44663052 44749216 
2976.354 44815336 44843440 44815700 44715976 44531312 44255692 43889736 
2979.729 43441204 42923744 42355648 41758420 41152252 40557036 39989080 
2983.104 39459100 38973760 38534188 38138064 37780548 37456192 37161600 
2986.479 36895776 36661048 36461684 36302436 36184804 36104428 36048804 
2989.854 35997788 35924652 35799380 35596496 35297988 34898704 34406956 
2993.230 33844908 33243984 32636642 32054618 31521290 31049472 30642162 
2996.605 30293992 29995270 29733760 29498898 29282556 29079254 28886212 
2999.980 28702210 28526956 28360650 28203140 28054242 27913450 27780016 
3003.355 27652838 27531590 27415636 27305502 27201990 27106440 27019970 
3006.731 26943460 26876728 26819204 26769794 26727580 26691498 26661196 
3010.106 26636254 26616244 26600920 26589646 26581898 26577740 26577142 
3013.481 26580524 26588414 26601272 26619344 26642666 26671590 26706756 
3016.856 26748968 26799116 26857342 26922908 26993526 27066624 27138816 
3020.232 27206964 27269054 27323640 27369690 27406568 27433180 27448180 
3023.607 27451144 27442496 27424214 27400040 27374664 27352608 27337506 
3026.982 27331260 27334190 27344986 27362206 27384122 27409462 27436990 
3030.357 27465370 27492654 27516728 27535580 27547972 27553620 27553974 
3033.733 27551326 27548678 27548466 27553196 27564000 27581582 27606226 
3037.108 27637900 27676638 27722338 27774506 27832720 27896384 27964864 
3040.483 28037772 28115146 28196706 28282702 28372922 28467162 28564570 
3043.858 28664408 28765330 28865922 28964412 29059380 29149304 29233574 
3047.234 29312190 29386212 29457584 29528118 29599516 29672914 29747990 
3050.609 29824036 29899564 29973116 30043236 30109002 30169378 30224042 
3053.984 30272818 30315806 30353612 30387654 30419566 30451336 30484498 
3057.359 30520114 30558648 30599994 30644010 30691054 30741482 30796042 
3060.735 30855160 30918772 30985914 31055166 31124714 31193136 31259824 
3064.110 31325132 31389914 31455774 31524070 31595654 31670742 31749442 
3067.485 31831332 31915768 32002364 32090650 32180418 32271452 32363508 
3070.860 32456580 32550816 32646288 32743316 32842438 32944408 33050012 
3074.236 33160362 33276216 33397858 33524834 33655964 33789280 33922892 
3077.611 34055112 34184968 34312388 34437764 34561996 34685688 34808552 
3080.986 34930412 35050256 35167404 35281564 35392628 35501092 35607572 
3084.361 35712604 35816940 35921484 36027416 36135864 36247972 36364328 
3087.737 36484716 36608376 36734204 36861112 36988888 37117928 37249284 
3091.112 37383960 37522440 37664284 37808380 37952996 38097048 38240416 
3094.487 38383692 38528140 38675096 38825036 38977312 39130804 39284128 
3097.862 39436020 39586368 39735936 39885664 40036932 40190396 40345916 
3101.238 40502760 40659848 40816264 40971240 41124964 41277684 41430024 
3104.613 41582268 41734892 41887972 42041108 42193860 42345932 42497108 
3107.988 42647608 42798416 42950448 43105236 43263708 43426408 43593240 
3111.363 43763172 43935044 44107496 44279872 44451692 44623028 44794100 
3114.739 44964688 45134944 45304636 45473660 45642496 45811800 45982384 
3118.114 46154732 46328876 46503904 46678820 46852588 47024728 47195496 
3121.489 47365332 47535340 47705980 47877160 48048372 48218984 48388148 
3124.864 48556188 48723668 48891844 49061488 49233392 49407328 49582636 
3128.240 49758204 49932652 50104976 50274540 50440708 50603964 50764860 
3131.615 50924436 51083880 51244656 51407728 51573884 51743200 51915200 
3134.990 52088948 52263696 52438180 52611952 52784368 52955016 53123528 
3138.365 53289668 53453324 53614900 53775040 53934600 54094184 54254200 
3141.740 54414276 54574184 54733512 54892148 55050688 55209856 55370960 
3145.116 55534496 55700808 55869632 56039728 56210232 56380080 56548608 
3148.491 56715416 56880408 57043572 57205284 57365844 57526048 57686616 
3151.866 57848416 58011524 58175832 58340432 58505012 58668824 58832280 
3155.241 58996024 59161012 59327464 59494968 59662652 59828536 59991552 
3158.617 60151056 60307840 60463380 60619552 60777608 60938200 61101064 
3161.992 61265628 61431632 61599108 61769020 61941748 62117604 62295404 
3165.367 62473700 62649808 62821580 62987492 63146716 63299104 63445448 
3168.742 63586048 63721700 63853144 63981356 64107344 64232216 64356968 
3172.118 64480640 64602888 64721784 64835988 64944328 65046772 65143540 
3175.493 65235288 65322088 65403892 65480240 65551252 65618112 65682940 
3178.868 65748504 65817632 65891900 65971420 66054432 66138728 66221728 
3182.243 66302092 66379524 66455120 66530348 66606784 66685312 66766336 
3185.619 66850120 66936500 67025148 67115744 67207448 67298896 67388464 
3188.994 67475112 67557680 67636808 67713392 67789424 67866344 67945496 
3192.369 68027256 68111864 68198624 68287016 68376600 68466392 68555392 
3195.744 68642272 68725640 68804248 68878176 68947912 69014592 69079312 
3199.120 69142984 69205888 69268072 69329440 69390272 69451432 69513832 
3202.495 69578192 69644320 69711376 69777832 69842424 69904576 69964752 
3205.870 70024432 70084776 70146648 70209624 70272144 70332720 70389840 
3209.245 70443104 70493024 70540808 70587624 70634016 70680216 70726064 
3212.621 70772008 70818608 70867136 70918624 70973320 71030600 71088600 
3215.996 71145072 71198280 71247544 71293496 71337264 71380496 71423840 
3219.371 71467160 71509776 71550560 71588816 71624488 71658408 71691504 
3222.746 71724656 71758736 71793720 71829952 71867136 71905448 71944944 
3226.122 71985496 72026448 72067008 72106088 72142976 72177248 72208856 
3229.497 72237896 72264776 72289584 72312448 72334320 72356000 72378744 
3232.872 72404112 72432728 72464320 72497672 72530880 72561856 72589344 
3236.247 72613000 72633360 72651616 72668968 72686008 72702896 72719384 
3239.623 72735840 72752760 72771128 72791944 72815088 72839696 72863800 
3242.998 72884880 72900760 72910632 72914984 72916120 72917136 72921208 
3246.373 72931016 72948136 72972872 73003952 73040064 73079024 73118280 
3249.748 73155720 73189680 73218976 73243256 73262984 73279176 73293536 
3253.124 73307344 73321904 73338408 73357320 73378824 73402792 73428224 
3256.499 73454040 73478448 73500184 73517848 73531232 73540808 73547680 
3259.874 73553208 73558824 73564480 73570480 73575976 73580136 73582256 
3263.249 73582016 73579032 73573584 73565024 73553440 73538648 73520872 
3266.625 73500616 73478840 73456272 73434104 73412328 73391256 73370824 
3270.000 73350968 73331824 73313072 73294400 73274832 73252824 73227328 
3273.375 73196936 73162000 73123256 73082160 73040096 72998192 72956328 
3276.750 72914320 72871592 72828304 72784960 72743240 72703904 72667912 
3280.125 72634816 72603800 72573328 72542632 72511192 72479352 72447992 
3283.501 72417464 72387712 72358040 72327392 72295456 72262080 72228232 
3286.876 72195080 72163624 72134208 72107064 72081672 72058160 72036616 
3290.251 72017688 72001728 71988944 71978808 71970944 71964888 71961168 
3293.626 71961288 71966960 71979832 72000520 72027616 72059136 72091728 
3297.002 72123488 72153144 72180880 72208272 72236640 72266736 72298464 
3300.377 72330880 72363400 72395808 72429128 72465064 72505584 72552336 
3303.752 72605872 72665880 72731640 72802008 72875792 72952176 73029944 
3307.127 73108080 73185168 73260472 73333664 73404992 73475224 73545240 
3310.503 73615304 73684944 73753424 73820416 73885968 73951456 74018600 
3313.878 74089360 74164152 74242024 74320536 74396816 74468280 74534008 
3317.253 74594392 74651368 74706768 74761712 74816072 74868504 74917872 
3320.628 74962608 75002176 75037032 75067400 75094032 75116832 75135816 
3324.004 75150824 75162808 75172216 75180296 75187384 75193448 75196960 
3327.379 75196608 75190496 75177808 75158312 75132512 75100800 75063776 
3330.754 75021320 74973432 74920392 74862408 74799776 74732672 74660216 
3334.129 74580584 74491880 74392656 74282088 74161680 74033768 73901600 
3337.505 73767480 73632464 73496064 73356888 73212816 73062840 72906672 
3340.880 72744728 72577480 72405048 72226816 72041736 71849112 71648872 
3344.255 71442048 71230008 71013976 70794976 70572576 70346432 70116200 
3347.630 69882240 69646144 69410256 69177176 68949120 68727152 68511744 
3351.006 68302608 68099304 67901448 67708632 67520480 67335880 67153800 
3354.381 66972800 66792184 66611612 66432148 66255308 66082904 65916540 
3357.756 65757104 65605044 65460592 65323972 65195976 65077216 64968304 
3361.131 64868688 64777172 64691180 64608656 64526960 64444548 64361276 
3364.507 64278124 64196756 64119556 64048976 63986808 63934020 63890524 
3367.882 63854912 63824744 63797184 63769364 63739204 63706168 63670060 
3371.257 63631616 63591300 63548804 63502660 63450740 63390500 63319496 
3374.632 63236744 63141168 63032508 62910772 62775828 62627116 62464668 
3378.008 62288100 62097800 61894020 61676472 61444344 61196688 60931568 
3381.383 60647744 60344652 60022180 59681468 59323592 58950596 58564236 
3384.758 58166628 57760336 57348072 56932420 56516184 56100504 55686156 
3388.133 55272880 54860076 54447440 54034664 53621984 53210220 52799444 
3391.509 52390216 51982868 51578472 51178484 50785116 50400184 50024584 
3394.884 49657412 49296636 48938644 48580240 48219688 47857216 47495124 
3398.259 47136692 46784572 46439924 46102072 45768500 45436136 45102520 
3401.634 44766440 44427688 44086632 43744592 43401144 43056832 42711544 
3405.010 42366168 42021800 41680364 41343608 41012424 40686884 40366024 
3408.385 40048920 39734704 39423612 39115936 38812356 38512860 38217084 
3411.760 37924216 37633064 37343336 37055532 36770336 36489072 36211992 
3415.135 35938796 35668180 35399240 35130864 34863264 34597336 34334368 
3418.510 34074964 33819368 33566572 33315208 33064350 32812956 32561318 
3421.886 32309786 32059044 31809230 31560094 31311740 31063602 30816174 
3425.261 30569882 30325400 30082758 29841886 29601928 29362386 29122976 
3428.636 28884088 28646852 28412294 28181148 27953626 27728976 27506598 
3432.011 27285286 27064718 26844864 26626424 26409680 26195048 25982704 
3435.387 25772538 25564406 25358974 25156448 24957946 24763920 24574818 
3438.762 24390146 24209510 24032276 23857286 23684010 23511188 23338050 
3442.137 23164108 22988908 22813254 22638126 22464952 22294498 22126794 
3445.512 21960968 21795486 21629124 21461122 21293044 21127188 20966266 
3448.888 20812840 20667252 20528764 20394454 20261262 20126720 19989654 
3452.263 19850204 19709690 19569426 19430560 19293368 19157812 19023856 
3455.638 18891394 18760910 18632852 18507182 18383104 18259476 18134608 
3459.013 18008114 17879518 17749822 17620646 17492924 17367480 17244348 
3462.389 17122974 17003082 16884946 16768942 16656376 16547903 16443620 
3465.764 16342906 16244451 16147153 16049534 15951524 15852606 15753094 
3469.139 15653055 15552628 15451537 15349782 15247468 15144903 15041918 
3472.514 14938373 14833584 14726936 14618086 14507928 14398173 14291530 
3475.890 14190834 14098102 14014184 13938256 13868463 13802137 13736436 
3479.265 13669309 13599183 13525686 13448885 13369706 13289654 13210538 
3482.640 13134236 13062559 12996355 12935794 12879849 12826983 12775761 
3486.015 12724750 12673301 12621142 12568239 12514899 12461054 12406943 
3489.391 12353043 12300411 12250717 12205186 12165214 12130628 12100748 
3492.766 12074208 12049544 12026107 12003931 11984210 11967792 11955531 
3496.141 11947528 11943066 11941771 11943236 11948720 11959277 11976648 
3499.516 12001683 12034418 12073357 12116352 12161022 12205458 12248911 
3502.892 12291924 12335794 12382328 12433946 12493312 12562441 12643315 
3506.267 12736658 12841965 12956822 13077891 13201794 13325151 13447177 
3509.642 13568724 13692219 13820915 13956458 14099574 14248352 14400572 
3513.017 14553564 14705753 14856693 15006794 15156775 15306190 15453939 
3516.393 15598133 15736775 15868450 15992738 16110221 16221439 16326392 
3519.768 16423868 16512314 16588934 16651522 16697660 16725723 16734332 
3523.143 16722245 16688811 16633481 16555889 16457042 16337849 16199633 
3526.518 16043516 15870683 15682461 15480516 15266824 15043804 14813494 
3529.894 14577651 14337417 14093207 13845236 13593988 13340184 13084105 
3533.269 12826027 12565373 12300616 12030603 11754630 11473865 11191140 
3536.644 10910807 10637413 10373963 10122407 9881742 9650765 9427799 9211887 
3540.501 9003523 8803408 8612747 8431460 8257914 8090143 7925102 7759315 
3544.359 7590927 7418256 7240264 7057259 6870494 6682126 6495858 6316125 
3548.216 6146582 5989904 5846581 5714653 5590082 5468365 5345273 5218762 
3552.074 5088768 4956835 4825210 4696071 4570184 4447916 4328861 4213385 
3555.931 4101921 3995701 3895359 3801022 3711853 3626544 3543490 3461921 
3559.789 3381770 3303738 3228891 3158528 3093517 3035456 2985275 2944308 
3563.646 2913051 2890069 2870890 2848444 2812692 2754401 2666946 2550312 
3567.503 2411351 2261411 2114618 1981655 1868699 1776764 1702678 1641842 
3571.361 1589495 1542042 1497121 1453402 1409853 1364979 1317484 1266205 
3575.218 1210448 1150511 1087162 1021463 954778 887805 821606 757474 696804 
3579.558 641152 591779 549477 514014 485088 461769 444289 433510 430757 
3583.897 437059 451785 472516 493314 506815 505123 481240 432846 362471 
3588.237 277718 188905 106539 38867 -10039 -39659 -53408 -56589 -55860 
3592.577 -58046 -68217 -89518 -122181 -163982 -211012 -259196 -305256 
3596.434 -346940 -384019 -416626 -445589 -472102 -497553 -523268 -550868 
3600.292 -581642 -616319 -654070 -693405 -731116 -763995 -788635 -802460 
3604.149 -804246 -794555 -775306 -750235 -724732 -704818 -696812 -705645 
3608.006 -733200 -776828 -829744 -883051 -928218 -959362 -975463 -980289 
3611.864 -980223 -982405 -992058 -1010670 -1035594 -1061410 -1081968 
3615.239 -1093172 -1093767 -1085802 -1073507 -1062599 -1058897 -1066863 
3618.614 -1090099 -1129328 -1182632 -1246237 -1314193 -1380685 -1439703 
3621.990 -1488181 -1523544 -1545071 -1552302 -1544246 -1519087 -1474378 
3625.365 -1408593 -1323244 -1223406 -1121430 -1035098 -984885 -988224 
3628.740 -1051097 -1162838 -1298006 -1428970 -1534506 -1605289 -1643482 
3632.115 -1657973 -1660679 -1662363 -1671143 -1690847 -1721310 -1760153 
3635.490 -1803810 -1849244 -1894145 -1936601 -1975194 -2008143 -2034329 
3638.866 -2053226 -2065758 -2074034 -2080135 -2086038 -2092171 -2097216 
3642.241 -2097942 -2090225 -2069781 -2033274 -1979449 -1909386 -1826544 
3645.616 -1736227 -1645694 -1563395 -1497129 -1453904 -1438746 -1454465 
3648.991 -1501058 -1575511 -1671638 -1779490 -1886294 -1979086 -2045707 
3652.367 -2079311 -2078124 -2047059 -1995940 -1938910 -1892529 -1871052 
3655.742 -1883192 -1928882 -1998875 -2078420 -2153038 -2213139 -2255366 
3659.117 -2281966 -2297654 -2308729 -2320099 -2334468 -2352923 -2374640 
3662.492 -2397707 -2419422 -2436226 -2444199 -2439422 -2418137 -2378232 
3665.868 -2319242 -2243433 -2155280 -2062724 -1975260 -1903679 -1858779 
3669.243 -1846802 -1867522 -1911399 -1962264 -2000821 -2011903 -1989014 
3672.618 -1934424 -1859406 -1780513 -1719561 -1696986 -1725600 -1803975 
3675.993 -1915489 -2035714 -2142356 -2224512 -2281438 -2319275 -2346365 
3679.369 -2369302 -2392402 -2416127 -2439685 -2460838 -2478629 -2491510 
3682.744 -2498198 -2496748 -2484032 -2457312 -2415567 -2359811 -2294919 
3686.119 -2227611 -2166523 -2119276 -2091446 -2083828 -2093688 -2114890 
3689.494 -2140806 -2167446 -2193293 -2218743 -2244389 -2270363 -2294919 
3692.870 -2316144 -2332161 -2342147 -2346695 -2347519 -2346695 -2345904 
3696.245 -2346333 -2347156 -2347420 -2345607 -2340565 -2332227 -2322340 
3699.620 -2313475 -2308992 -2312848 -2326855 -2350650 -2381033 -2412337 
3702.995 -2438730 -2454150 -2455171 -2440443 -2411250 -2369796 -2319869 
3706.371 -2264397 -2206018 -2146543 -2087291 -2029481 -1975425 -1927827 
3709.746 -1890978 -1870161 -1869963 -1893254 -1939735 -2005043 -2081421 
3713.121 -2158577 -2227611 -2281339 -2316441 -2332788 -2333282 -2322175 
3716.496 -2303884 -2281966 -2259025 -2235357 -2210403 -2183073 -2153335 
3719.872 -2121748 -2090522 -2061833 -2037561 -2018664 -2004680 -1994654 
3723.247 -1987463 -1982978 -1982153 -1986540 -1997589 -2015762 -2038683 
3726.622 -2062262 -2080498 -2087917 -2080498 -2056953 -2018433 -1968762 
3729.997 -1912883 -1855479 -1800972 -1751738 -1708076 -1669063 -1634371 
3733.373 -1605586 -1587693 -1588255 -1614664 -1671605 -1757414 -1863101 
3736.748 -1974237 -2076739 -2160325 -2220160 -2255926 -2269375 -2261826 
3740.123 -2233544 -2183765 -2112945 -2024205 -1926969 -1836541 -1772297 
3743.498 -1754411 -1793152 -1880850 -1990267 -2086664 -2144895 -2154588 
3746.874 -2120298 -2055897 -1979119 -1906978 -1853731 -1828259 -1833242 
3750.249 -1865278 -1918062 -1985155 -2060745 -2138498 -2211919 -2273857 
3753.624 -2318352 -2342938 -2348376 -2339280 -2321648 -2302203 -2286283 
3756.999 -2276890 -2275868 -2282987 -2298577 -2323164 -2357307 -2399091 
3760.375 -2444265 -2485646 -2515032 -2525442 -2514011 -2482747 -2438170 
3763.750 -2389173 -2345179 -2313277 -2295710 -2289678 -2289052 -2287404 
3767.125 -2280351 -2268089 -2254080 -2245246 -2248015 -2266177 -2300028 
3770.500 -2344817 -2393786 -2439422 -2476257 -2501789 -2516481 -2522279 
3773.875 -2521983 -2517898 -2510848 -2500010 -2483834 -2461299 -2432371 
3777.251 -2399618 -2367028 -2340038 -2323724 -2320363 -2328800 -2345146 
3780.626 -2363271 -2377079 -2382879 -2379287 -2367654 -2350814 -2331898 
3784.001 -2314200 -2299830 -2290238 -2286020 -2287503 -2293996 -2305037 
3787.376 -2319275 -2335655 -2352396 -2368775 -2384164 -2398531 -2412337 
3790.752 -2425254 -2435962 -2442651 -2442618 -2433788 -2415468 -2388942 
3794.127 -2357142 -2324219 -2293897 -2268254 -2246664 -2225797 -2200513 
3797.502 -2165963 -2119474 -2062493 -2000162 -1942440 -1900413 -1886557 
3800.877 -1907902 -1962594 -2038946 -2117891 -2181524 -2217721 -2223754 
3804.253 -2204897 -2172721 -2140806 -2122573 -2128211 -2160292 -2213699 
3807.628 -2276428 -2336116 -2383406 -2414347 -2429669 -2432371 -2424891 
3811.003 -2408416 -2382055 -2344355 -2294919 -2235555 -2171402 -2110538 
3814.378 -2062394 -2035187 -2032615 -2050291 -2076607 -2096623 -2096887 
3817.754 -2070077 -2017378 -1946299 -1869039 -1800609 -1756424 -1746854 
3821.129 -1774112 -1830470 -1901436 -1971236 -2028756 -2069418 -2094611 
3824.504 -2108889 -2117627 -2125606 -2136025 -2149379 -2164149 -2178161 
3827.879 -2189073 -2195106 -2195733 -2190359 -2179644 -2163885 -2143807 
3831.255 -2120364 -2094347 -2066252 -2035912 -2002569 -1964969 -1921658 
3834.630 -1872899 -1820110 -1766786 -1718010 -1680714 -1660514 -1661868 
3838.005 -1684972 -1726821 -1781272 -1840731 -1898038 -1948773 -1990102 
3841.380 -2022721 -2048840 -2072650 -2098997 -2131343 -2171073 -2215875 
3844.756 -2260574 -2297984 -2321351 -2325933 -2310014 -2275044 -2224149 
3848.131 -2160753 -2086664 -2002009 -1905724 -1796583 -1676853 -1553788 
3851.506 -1440661 -1358225 -1328001 -1365029 -1468500 -1617899 -1780678 
3854.881 -1925979 -2036077 -2106812 -2143048 -2153434 -2146741 -2129728 
3858.257 -2106878 -2080861 -2053523 -2026184 -2000063 -1976645 -1956458 
3861.632 -1940460 -1929542 -1925056 -1929641 -1944947 -1971500 -2006197 
3865.007 -2042211 -2070176 -2080036 -2066252 -2028426 -1973545 -1912751 
3868.382 -1860692 -1830767 -1830569 -1858152 -1901601 -1945573 -1976150 
3871.758 -1987463 -1982120 -1969125 -1959757 -1963055 -1983440 -2018334 
3875.133 -2059657 -2096161 -2119078 -2123002 -2108164 -2078849 -2042211 
3878.508 -2007418 -1981955 -1971796 -1977799 -1996600 -2019621 -2036473 
3881.883 -2038551 -2020313 -1982054 -1929443 -1873097 -1826445 -1801995 
3885.259 -1807769 -1843206 -1898764 -1958009 -2005571 -2030603 -2030405 
3888.634 -2008506 -1973973 -1938580 -1913213 -1905889 -1919844 -1952368 
3892.009 -1996501 -2043432 -2085741 -2117891 -2136553 -2139982 -2127980 
3895.384 -2100745 -2059657 -2007582 -1948773 -1888240 -1831856 -1783648 
3898.760 -1746491 -1719561 -1700584 -1685797 -1672265 -1659524 -1649325 
3902.135 -1645859 -1653616 -1676094 -1714412 -1766489 -1827204 -1890483 
3905.510 -1950422 -2002998 -2046169 -2079509 -2103943 -2119836 -2128442 
3908.885 -2130321 -2126398 -2117957 -2106548 -2093688 -2080432 -2066846 
3912.260 -2052204 -2034692 -2012991 -1986243 -1955172 -1922285 -1890846 
3915.636 -1864552 -1846670 -1838521 -1839742 -1848320 -1861979 -1877485 
3919.011 -1892958 -1906549 -1916710 -1922219 -1922021 -1915621 -1903877 
3922.386 -1888966 -1874549 -1864354 -1861847 -1868445 -1883522 -1903976 
3925.761 -1924891 -1942440 -1952929 -1954941 -1948311 -1934490 -1915126 
3929.137 -1892067 -1867852 -1844691 -1825554 -1813544 -1811135 -1820473 
3932.512 -1840467 -1868874 -1901502 -1933105 -1959427 -1977733 -1987265 
3935.887 -1989112 -1985550 -1979218 -1971236 -1962693 -1953094 -1941153 
3939.262 -1926441 -1909122 -1891143 -1875539 -1865575 -1864552 -1873361 
3942.638 -1890846 -1912982 -1934754 -1950158 -1955469 -1948938 -1931455 
3946.013 -1906516 -1878937 -1853104 -1832879 -1819912 -1814335 -1814599 
3949.388 -1818922 -1825224 -1832021 -1838653 -1844889 -1850827 -1856865 
3952.763 -1862738 -1868940 -1875374 -1881543 -1887316 -1891671 -1893683 
3956.139 -1892859 -1888933 -1882170 -1873658 -1864387 -1854787 -1845252 
3959.514 -1835617 -1825422 -1814434 -1803051 -1792063 -1782460 -1775267 
3962.889 -1770614 -1768172 -1766885 -1765235 -1762364 -1757810 -1751639 
3966.264 -1744312 -1736623 -1728802 -1721013 -1713521 -1706557 -1700584 
3969.640 -1695930 -1692861 -1690946 -1689791 -1688471 -1686457 -1683619 
3973.015 -1680582 -1678140 -1676853 -1676754 -1676721 -1675169 -1670516 
3976.390 -1661604 -1648400 -1631632 -1613113 -1594296 -1576535 -1560457 
3979.765 -1546194 -1533780 -1523775 -1516841 -1514233 -1516610 -1524535 
3983.141 -1537015 -1552962 -1570262 -1586901 -1601130 -1611924 -1618362 
3986.516 -1620837 -1619187 -1614136 -1606081 -1596079 -1584788 -1573035 
3989.891 -1561216 -1550387 -1541043 -1534077 -1530313 -1530676 -1535629 
3993.266 -1544807 -1557518 -1571946 -1586340 -1598984 -1608722 -1615391 
3996.642 -1619253 -1621002 -1621432 -1621366 -1620804 -1620276 -1620078 
4000.017 -1620606 -1622026 
##END=
