
##TITLE=Z235b_2_a
##JCAMP-DX=5.01  $$ Nicolet v. 1
##DATATYPE=INFRARED SPECTRUM
##ORIGIN=UniL
##OWNER=Nicolet
##LONGDATE=2011/09/22
##TIME=11:16:51
##SPECTROMETER/DATA SYSTEM=Nicolet iS5
##DATA PROCESSING=
Ratio against background
%Transmittance->Absorbance
Truncated
ElementMultiply or ElementDivide
##COMMENTS=
Number of sample scans: 32
Collection length: 51.15 sec
Sample gain: 2.0
Background collected on: Jeu Sep 22 11:15:12 2011 (GMT+02:00);
Number of background scans: 32
Background gain: 2.0
Sample spacing:  1.000
Number of scan points: 12415
Resolution points: 8192
Number of FFT points: 65536
Apodization: N-B fort;
Phase correction: Mertz;
Laser frequency: 15798.0 cm-1
Number of rejected sample scans: 0
Number of rejected background scans: 0
Bench serial number: ASB1000141;
##RESOLUTION=4.000
##XUNITS=1/CM
##YUNITS=ABSORBANCE
##FIRSTX=649.893372
##LASTX=4000.122314
##FIRSTY=0.093715
##MAXX=4000.122314
##MINX=649.893372
##MAXY=0.210756
##MINY=-0.003405
##XFACTOR=1.000000
##YFACTOR=1.000000E-009
##NPOINTS=6950
##DELTAX=0.482117
##ZPD=6100
##XYDATA=(X++(Y..Y))
649.893 93714552 92759328 91953144 91288824 90740624 90278024 89881560 
653.268 89552928 89311728 89184232 89186184 89308952 89519016 89770936 
656.643 90022632 90250696 90458680 90666552 90899656 91171632 91482424 
660.018 91819016 92167024 92520312 92884968 93276000 93708920 94190704 
663.393 94717488 95275528 95848864 96422880 96978104 97486136 97900648 
666.767 98155032 98189424 97993104 97639824 97259136 96974424 96845288 
670.142 96858288 96956160 97064320 97119184 97078408 96934080 96708360 
673.517 96441384 96169888 95912248 95665712 95413904 95138888 94832144 
676.892 94496296 94140200 93769928 93383216 92970160 92520760 92032384 
680.267 91514160 90983440 90456152 89939968 89429648 88911264 88369664 
683.642 87798152 87202456 86597568 86001080 85422800 84863808 84317536 
687.016 83778008 83245624 82730312 82247416 81811216 81426680 81087408 
690.391 80777424 80481848 80191736 79910184 79649112 79424040 79246568 
693.766 79120200 79041104 79002584 79001672 79041056 79129272 79274448 
697.141 79480416 79743176 80052424 80395680 80764648 81158744 81582856 
700.516 82043048 82540344 83067176 83608832 84147744 84670128 85171368 
703.890 85654672 86127600 86595256 87056264 87502424 87923248 88310944 
707.265 88665616 88995288 89312088 89626928 89945712 90269336 90600176 
710.640 90947408 91332248 91786680 92345352 93036288 93864432 94805760 
714.015 95800864 96767848 97611080 98237608 98582312 98614496 98349296 
717.390 97843120 97193280 96521816 95949400 95590384 95527008 95797928 
720.765 96396072 97266064 98314760 99410120 100406024 101160640 101546184 
724.139 101484360 100958712 100025616 98800648 97441104 96113576 94945472 
727.514 94014744 93338680 92887136 92602688 92426016 92316088 92250120 
730.889 92220656 92224096 92251464 92286464 92311536 92314568 92296128 
734.264 92268104 92248680 92251056 92277936 92320224 92363384 92394984 
737.639 92411464 92418968 92428800 92451232 92488944 92537280 92587888 
741.013 92634712 92678024 92723192 92776888 92840648 92908520 92969168 
744.388 93012144 93034392 93044128 93058336 93095232 93164912 93265856 
747.763 93385592 93507376 93617400 93712168 93796456 93879608 93967432 
751.138 94058928 94146296 94221080 94279784 94327368 94374928 94433688 
754.513 94508032 94592472 94673352 94736816 94776960 94798712 94816480 
757.888 94846488 94899464 94975824 95067408 95163680 95258856 95355752 
761.262 95463056 95589560 95737824 95902168 96072160 96239488 96406216 
764.637 96585216 96798320 97067176 97404944 97814976 98291952 98829024 
768.012 99422368 100073960 100790480 101583696 102474840 103504672 104750496 
771.387 106319096 108333256 110890480 113998816 117521128 121130880 
774.279 124368856 126675960 127535584 126642064 123962912 119778728 
777.172 114570816 108936752 103418896 98388608 94048232 90415464 87388512 
780.547 84805400 82512336 80397304 78393928 76480152 74658648 72944056 
783.922 71353632 69906832 68624384 67525152 66624120 65927988 65434628 
787.297 65137380 65031684 65121828 65424272 65965132 66771284 67866736 
790.671 69266944 70980664 73016888 75389888 78119728 81226888 84716800 
794.046 88564280 92693120 96976952 101233464 105223504 108690320 111358192 
797.421 112960800 113294432 112230856 109758904 105989256 101152144 95563256 
800.796 89556840 83478184 77623416 72208352 67384240 63221028 59723968 
804.171 56853440 54544016 52723720 51321356 50281084 49560540 49126636 
807.546 48953068 49009628 49254324 49633264 50075336 50498060 50823516 
810.920 50980544 50917540 50608840 50051024 49260892 48268900 47117636 
814.295 45855728 44533184 43202836 41911764 40697728 39589200 38601068 
817.670 37736816 36992316 36359788 35831800 35403444 35072848 34839496 
821.045 34703308 34664084 34722544 34882584 35152348 35545500 36078220 
824.420 36764888 37613952 38620804 39765092 41004012 42272992 43490132 
827.794 44551504 45351384 45793644 45804764 45356348 44470304 43220808 
831.169 41714904 40079880 38443748 36906704 35542192 34388844 33452970 
834.544 32717268 32148946 31709022 31354546 31045628 30750870 30447462 
837.919 30126154 29789968 29452408 29130878 28840958 28592846 28388274 
841.294 28222940 28089412 27982002 27898786 27840880 27810994 27810572 
844.669 27837984 27889848 27961894 28052122 28161316 28292426 28448730 
848.043 28631916 28840922 29073162 29326476 29600582 29898108 30223084 
851.418 30579160 30967872 31388596 31839784 32321886 32839116 33400186 
854.793 34015440 34695664 35448600 36278844 37189680 38186004 39276768 
858.168 40476828 41805224 43281496 44925336 46753792 48781352 51020788 
861.543 53480676 56159852 59038424 62069552 65174648 68236344 71118416 
864.917 73677760 75779056 77327408 78274400 78629224 78454456 77860880 
868.292 76992240 75992536 75002616 74135896 73465224 73029080 72830256 
871.667 72844792 73027120 73317112 73646712 73932520 74086336 74020640 
875.042 73651536 72920824 71803800 70317952 68520824 66502272 64375832 
878.417 62251960 60236348 58419264 56864428 55616364 54697020 54107356 
881.792 53828444 53821732 54035568 54403384 54855376 55328504 55768388 
885.166 56138396 56422076 56619756 56747552 56831912 56907564 57009376 
888.541 57168464 57408196 57738388 58155568 58643380 59179388 59739100 
891.916 60302776 60860048 61408880 61954624 62504040 63062312 63628048 
895.291 64191036 64727708 65198980 65551712 65712192 65598108 65129028 
898.666 64234324 62875464 61053812 58816992 56249604 53466136 50598788 
902.040 47769884 45090684 42649732 40503452 38684224 37200728 36043616 
905.415 35190256 34610220 34272120 34145036 34204756 34436548 34832960 
908.790 35393492 36119876 37014216 38074980 39297984 40673784 42189112 
912.165 43822324 45539376 47295752 49033220 50686056 52196584 53520892 
915.540 54641744 55572756 56359184 57070888 57787776 58597716 59580360 
918.914 60795256 62279340 64034648 66025772 68173888 70368832 72484288 
922.289 74391624 75997512 77260824 78209096 78935504 79592232 80374704 
925.664 81476280 83080656 85330960 88300464 91981936 96262768 100931752 
929.039 105649736 109979136 113449768 115567688 115930752 114305992 
931.932 110664224 105212960 98350832 90632672 82634720 74883664 67817928 
935.306 61711192 56699448 52800832 49948116 48028944 46915964 46497268 
938.681 46669336 47332736 48383924 49686052 51065656 52331568 53271572 
942.056 53698544 53486936 52583752 51028764 48938384 46493248 43890760 
945.431 41313180 38913456 36785624 34973000 33477090 32271918 31317792 
948.806 30571696 29996724 29560110 29233326 28993526 28819216 28692228 
952.181 28599180 28530530 28480996 28449580 28436808 28444414 28473954 
955.555 28526674 28603356 28703980 28828388 28975604 29144024 29331120 
958.930 29534434 29752068 29982986 30227524 30487412 30764492 31060220 
962.305 31374954 31707634 32056582 32420054 32797304 33188614 33595388 
965.680 34018952 34460004 34918060 35391476 35878512 36378164 36890652 
969.055 37418016 37962868 38527920 39114704 39724136 40356824 41013628 
972.429 41697180 42410848 43158812 43944504 44769820 45635024 46539348 
975.804 47482704 48466380 49493772 50569452 51699156 52888132 54141584 
979.179 55465636 56868396 58360556 59956480 61670900 63517964 65508984 
982.554 67649736 69940344 72372792 74931144 77585344 80287040 82971224 
985.929 85548544 87912344 89957128 91580520 92706200 93296744 93356384 
989.304 92934168 92113728 91013640 89766448 88505080 87360632 86438080 
992.678 85813272 85532160 85607336 86026240 86757520 87763232 89003296 
996.053 90439992 92042584 93782680 95633328 97569544 99564520 101591312 
999.428 103623312 105628528 107568024 109395160 111049704 112466072 
1002.321 113581960 114342984 114717416 114700336 114316856 113618632 
1005.213 112680680 111600440 110481072 109432368 108561904 107958080 
1008.106 107692584 107812848 108340096 109276160 110607792 112315208 
1010.999 114374376 116760936 119451040 122416008 125623344 129038112 
1013.891 132621200 136335312 140144688 144008240 147876128 151681600 
1016.784 155331168 158716528 161718352 164221600 166143312 167440720 
1019.677 168127136 168269552 167991120 167461408 166864432 166401664 
1022.570 166258496 166577120 167459456 168949376 171037920 173671472 
1025.462 176765840 180222336 183926336 187762432 191612752 195348688 
1028.355 198847888 201996352 204698176 206895296 208567392 209733520 
1031.249 210440224 210755024 210756464 210520032 210121280 209624576 
1034.142 209071024 208471968 207797280 206978528 205908496 204465168 
1037.035 202536288 200028864 196892144 193118304 188739040 183817792 
1039.928 178443632 172731152 166804768 160799200 154850416 149072096 
1042.821 143557792 138371920 133546664 129093496 125008152 121279232 
1045.714 117894184 114841408 112112192 109700208 107601776 105816400 
1048.607 104346720 103196544 102367248 101853472 101639168 101695912 
1051.500 101982272 102452608 103060672 103763696 104528776 105326408 
1054.393 106124872 106886872 107560392 108079640 108375520 108376544 
1057.286 108023120 107279064 106133672 104608616 102755544 100659696 
1060.179 98429544 96184648 94056336 92163752 90606464 89464784 88787464 
1063.554 88596784 88890896 89646888 90823928 92363056 94196048 96239896 
1066.930 98402280 100595240 102731992 104737848 106558000 108150400 
1069.823 109487152 110549840 111324664 111802960 111981560 111865416 
1072.716 111468416 110813912 109936888 108881224 107701376 106465816 
1075.609 105248584 104129328 103187760 102487976 102078408 101985408 
1078.502 102211792 102741144 103539872 104565368 105761656 107062112 
1081.395 108395248 109679048 110835216 111803256 112548464 113076472 
1084.288 113433032 113705024 114000704 114436168 115127720 116168336 
1087.181 117624640 119530136 121877624 124614760 127635584 130795512 
1090.074 133902400 136737280 139095024 140789200 141687296 141730176 
1092.967 140928336 139359824 137148176 134455632 131452544 128293696 
1095.860 125117120 122019256 119055112 116243024 113568360 110994640 
1098.753 108471040 105946032 103371056 100705904 97926512 95026584 92021896 
1102.129 88949000 85866240 82847064 79965584 77296448 74902208 72826776 
1105.504 71100024 69736000 68736824 68096472 67803600 67842952 68194512 
1108.879 68833560 69730328 70845832 72135888 73547712 75017504 76476984 
1112.254 77848112 79046944 79997176 80629432 80893488 80765960 80248808 
1115.630 79368464 78167088 76700336 75028568 73209608 71301848 69356760 
1119.005 67416448 65516576 63682840 61932920 60280616 58735812 57307388 
1122.380 56003200 54827936 53781868 52859392 52050360 51342352 50725272 
1125.755 50196460 49763260 49443532 49260336 49238772 49397900 49745128 
1129.131 50274168 50965120 51787660 52701048 53660152 54617092 55519172 
1132.506 56317312 56968384 57439584 57717684 57810676 57749360 57579424 
1135.881 57357712 57142728 56981836 56908660 56937596 57061480 57253704 
1139.256 57470524 57660504 57764688 57727824 57506152 57066884 56394192 
1142.632 55486796 54356100 53022696 51513444 49861844 48103704 46277120 
1146.007 44422036 42574032 40765272 39021932 37361752 35796104 34330244 
1149.382 32965604 31702034 30538954 29476664 28515740 27656968 26900664 
1152.757 26246330 25693296 25241036 24889552 24638952 24489378 24440162 
1156.133 24490010 24637200 24881062 25222178 25663414 26208914 26862348 
1159.508 27625930 28498792 29476734 30552426 31715650 32953736 34249496 
1162.883 35580204 36918788 38230576 39477532 40621936 41626352 42458856 
1166.258 43094956 43516828 43716120 43693476 43459040 43030816 42433316 
1169.634 41695936 40847716 39917516 38932624 37916476 36891772 35880344 
1173.009 34901432 33974092 33115018 32336946 31649500 31057978 30564548 
1176.384 30169592 29872730 29673550 29571566 29565892 29655352 29837450 
1179.759 30109784 30470600 30919092 31455704 32081552 32797304 33602872 
1183.135 34497780 35482108 36558060 37730456 39006712 40394492 41900416 
1186.510 43526132 45266760 47107888 49024096 50979800 52923652 54794216 
1189.885 56523772 58040152 59282800 60210352 60806608 61084892 61084588 
1193.260 60864776 60488972 60019552 59508420 58988548 58477564 57977140 
1196.635 57478884 56968648 56431472 55855612 55232544 54557688 53828636 
1200.011 53042612 52195760 51283544 50301772 49250572 48136172 46973888 
1203.386 45786392 44601328 43449444 42356780 41343460 40421916 39595480 
1206.761 38861272 38212268 37640508 37137744 36696632 36311368 35975688 
1210.136 35683896 35431740 35216484 35038080 34899636 34807080 34767808 
1213.512 34789704 34880928 35048208 35297232 35632244 36055644 36567140 
1216.887 37163764 37840552 38590532 39406888 40284580 41220048 42211532 
1220.262 43257920 44357812 45509348 46711472 47965440 49276072 50652176 
1223.637 52106056 53650512 55296100 57048860 58908436 60866568 62905796 
1227.013 64999512 67110024 69185416 71166304 72983448 74562528 75837136 
1230.388 76747344 77248472 77317672 76955648 76192896 75086776 73728256 
1233.763 72232144 70721856 69332824 68190168 67399216 67051708 67214368 
1237.138 67933640 69241408 71153656 73672264 76780600 80442528 84594224 
1240.514 89137608 93952336 98885520 103758400 108389768 112584272 116154352 
1243.889 118945816 120838488 121771384 121747528 120834064 119150744 
1246.782 116848696 114111912 111127368 108072288 105113624 102375936 
1249.675 99933392 97800408 95926424 94204656 92484880 90616056 88463120 
1253.050 85938800 83022528 79758864 76248928 72619976 69015416 65565088 
1256.426 62362836 59470080 56906320 54656696 52679500 50917652 49309664 
1259.801 47792336 46313356 44833740 43328136 41787456 40215112 38624500 
1263.176 37033772 35463628 33934640 32464330 31068014 29758456 28544472 
1266.551 27432474 26424786 25519742 24712462 23995718 23362034 22804908 
1269.927 22318948 21900502 21545306 21248678 21004552 20806306 20648070 
1273.302 20525082 20433872 20371466 20333824 20315422 20309554 20309450 
1276.677 20309590 20308236 20305804 20305666 20311568 20326464 20352644 
1280.052 20390738 20440990 20502328 20572222 20644596 20709542 20754376 
1283.427 20765012 20730568 20647098 20520010 20363200 20197284 20046176 
1286.803 19931302 19870356 19876564 19957980 20120752 20369208 20706242 
1290.178 21132616 21645772 22239496 22902730 23619982 24372552 25135698 
1293.553 25880598 26576156 27188550 27689140 28058202 28288396 28387142 
1296.928 28374658 28281182 28138194 27976456 27822370 27694190 27605520 
1300.304 27564424 27574168 27633168 27733992 27864480 28007484 28143922 
1303.679 28256322 28329136 28351524 28316476 28220042 28061240 27842188 
1307.054 27569190 27253038 26908808 26554916 26209478 25887808 25601342 
1310.429 25356304 25155992 25002552 24898290 24846396 24849448 24907974 
1313.805 25019330 25178532 25379206 25616352 25886858 26190438 26527302 
1317.180 26897244 27298338 27727210 28180548 28656726 29156072 29680114 
1320.555 30229016 30798530 31378944 31953714 32501214 32999530 33428024 
1323.930 33772340 34028160 34203500 34320780 34413232 34525472 34704568 
1327.306 34989412 35406000 35956500 36618724 37346116 38079360 38759204 
1330.681 39333824 39773336 40071016 40243284 40322172 40350388 40374932 
1334.056 40437372 40574496 40814300 41173048 41656368 42257580 42961532 
1337.431 43745328 44583448 45452212 46329612 47197304 48040748 48847012 
1340.807 49605852 50308728 50947084 51511316 51988544 52359040 52598564 
1344.182 52678680 52570212 52250652 51706400 50935612 49947300 48760812 
1347.557 47403612 45907100 44309412 42653568 40984352 39353160 37812792 
1350.932 36412176 35198232 34206692 33459730 32967392 32727238 32727808 
1354.308 32949160 33364940 33939948 34626548 35370916 36112388 36789268 
1357.683 37351136 37759152 37990932 38041668 37922188 37658216 37285600 
1361.058 36854908 36427600 36068928 35846844 35816980 36011112 36436716 
1364.433 37076680 37898544 38860764 39921332 41037408 42159716 43236000 
1367.809 44207856 45012800 45597996 45922640 45965400 45726456 45226456 
1371.184 44504036 43609284 42607000 41571548 40577732 39702168 39007508 
1374.559 38531180 38283700 38248776 38395240 38687592 39099548 39618492 
1377.934 40246336 40997060 41893664 42966032 44245092 45759884 47527800 
1381.310 49540448 51746784 54038304 56263108 58223376 59711084 60550032 
1384.685 60601948 59801576 58169468 55831952 53013340 49994772 47080116 
1388.060 44505796 42404528 40808328 39668628 38897436 38394552 38073932 
1391.435 37865248 37712816 37576696 37425168 37235636 36997620 36713432 
1394.811 36397400 36069432 35748400 35445724 35163236 34897556 34645240 
1398.186 34407352 34192604 34015080 33888896 33824240 33823092 33880444 
1401.561 33987524 34136792 34324076 34550764 34823344 35151484 35545036 
1404.936 36009960 36546848 37150408 37811492 38519704 39265704 40043072 
1408.312 40846624 41671940 42514284 43367676 44225648 45083368 45936452 
1411.687 46780992 47610760 48413040 49169900 49859392 50460396 50960612 
1415.062 51359356 51668820 51907884 52098472 52260708 52410928 52567072 
1418.437 52752452 52994396 53321508 53750776 54278976 54884812 55535064 
1421.813 56197600 56846492 57471656 58080336 58694352 59341252 60043712 
1425.188 60811832 61640996 62517008 63423136 64347012 65279528 66211776 
1428.563 67131056 68015792 68836544 69564424 70177808 70671712 71060184 
1431.938 71374832 71655944 71941696 72266456 72657608 73141608 73754912 
1435.313 74547152 75579872 76914392 78580744 80564648 82809456 85232888 
1438.689 87741584 90229976 92586976 94676240 96344368 97454000 97889648 
1442.064 97588960 96549664 94821880 92493824 89668272 86460560 82976800 
1445.439 79305104 75526488 71716096 67958480 64367460 61072040 58196140 
1448.814 55831084 54008360 52707184 51873680 51451260 51394564 51672960 
1452.190 52263584 53135548 54242676 55533780 56951044 58446404 59989160 
1455.565 61558444 63142048 64724364 66286960 67805152 69254696 70623256 
1458.940 71906232 73106160 74230472 75290416 76297120 77256704 78166288 
1462.315 79006320 79738840 80318656 80703472 80877840 80865264 80728416 
1465.691 80544264 80371912 80241160 80147816 80067568 79966616 79810664 
1469.066 79564224 79178248 78584832 77694024 76404288 74643296 72410648 
1472.441 69809344 67018652 64233252 61594680 59160860 56931740 54888800 
1475.816 53029660 51383376 50001164 48928184 48190292 47782460 47679460 
1479.192 47852816 48287524 48988192 49975216 51271612 52888844 54819064 
1482.567 57038092 59515452 62224120 65150396 68289344 71631912 75154728 
1485.942 78796952 82446112 85947608 89095664 91653840 93393608 94108720 
1489.317 93668832 92061176 89412712 85972408 82039688 77908208 73788848 
1492.693 69791016 65953328 62260332 58682896 55214408 51881704 48751356 
1496.068 45913656 43448456 41398824 39758956 38491176 37543608 36870236 
1499.443 36441072 36237960 36249128 36462696 36863132 37429428 38138680 
1502.818 38959952 39854936 40775356 41644804 42358720 42782476 42763388 
1506.194 42189296 41044872 39433660 37523448 35467332 33358640 31233440 
1509.569 29103772 26984252 24900010 22895746 21023958 19325064 17824796 
1512.944 16525736 15413221 14464523 13655871 12966790 12378236 11873900 
1516.319 11440628 11069883 10760248 10515087 10337348 10224436 10164329 
1519.695 10136245 10117523 10092461 10062483 10048410 10079676 10178134 
1523.070 10345933 10568250 10821865 11087421 11355046 11628928 11923891 
1526.445 12258693 12645463 13085300 13569749 14086842 14628127 15191224 
1529.820 15780376 16402740 17064110 17766630 18507700 19280414 20076782 
1533.196 20888866 21710312 22534116 23353784 24159696 24940468 25680500 
1536.571 26361654 26967398 27479100 27881510 28163790 28321320 28354566 
1539.946 28268698 28076792 27798136 27457462 27079320 26678742 26257170 
1543.321 25803338 25300880 24739366 24124248 23478836 22836932 22227778 
1546.697 21662104 21130424 20608670 20071022 19502640 18909978 18318540 
1550.072 17764388 17274826 16857180 16498856 16176900 15870545 15571207 
1553.447 15286215 15033548 14831287 14685257 14584059 14500116 14397934 
1556.822 14234965 13966826 13556655 12990381 12299662 11563452 10876118 
1560.198 10300737 9852084 9510226 9241196 9010762 8789139 8555430 8300704 
1564.055 8029317 7758202 7508831 7300002 7137922 7015333 6914998 6818219 
1567.912 6711064 6588965 6458325 6333372 6229060 6154513 6111599 6097049 
1571.770 6106189 6135189 6180492 6236992 6295920 6345274 6373215 6373652 
1575.627 6352772 6329943 6332128 6379536 6479143 6625669 6808660 7019846 
1579.485 7256941 7524777 7831978 8187138 8594869 9053930 9556795 10092800 
1583.342 10647090 11201748 11735635 12221918 12632740 12943645 13137584 
1586.717 13211733 13179387 13071300 12930230 12806064 12751603 12810397 
1590.093 13016567 13389901 13932987 14628538 15434988 16291061 17112980 
1593.468 17804776 18279106 18460990 18308690 17819964 17033922 16022133 
1596.843 14869654 13666574 12487311 11385114 10396326 9539082 8819165 
1600.218 8233431 7772167 7422301 7169889 7005097 6922808 6923145 7008868 
1604.076 7182083 7440806 7777497 8177921 8621534 9083297 9530377 9925133 
1607.933 10228914 10403284 10418556 10259040 9925844 9439245 8835396 8164381 
1611.791 7476705 6815964 6212825 5679302 5213598 4804506 4438075 4101620 
1615.648 3787953 3498027 3239105 3022109 2856281 2745965 2688750 2676748 
1619.505 2698119 2738696 2784579 2822997 2846242 2853580 2851479 2850912 
1623.363 2862418 2892337 2939971 3000356 3067589 3138003 3210498 3285876 
1627.220 3364674 3446257 3528558 3610105 3691468 3776054 3868547 3973096 
1631.078 4090749 4217735 4346297 4466395 4568343 4643924 4689104 4704277 
1634.935 4695468 4672626 4647808 4631599 4630059 4644359 4671219 4704679 
1638.792 4737338 4762127 4773952 4771540 4758643 4742496 4730672 4728495 
1642.650 4735496 4745344 4747622 4731074 4685956 4608459 4501714 4377055 
1646.507 4250591 4139552 4058105 4013927 4009044 4040547 4102188 4184011 
1650.365 4271304 4344724 4378795 4347368 4236806 4063323 3876236 3729966 
1654.222 3655078 3646625 3681109 3732940 3784343 3826627 3857916 3880415 
1658.080 3896897 3908565 3913346 3906927 3884226 3841770 3778427 3696347 
1661.937 3599782 3495055 3389818 3290684 3204022 3133597 3080002 3040494 
1665.794 3008964 2977169 2935468 2875293 2791949 2685716 2562677 2432776 
1669.652 2307343 2194802 2100001 2024163 1965911 1921912 1886302 1851228 
1673.509 1806608 1741899 1651621 1538517 1416235 1302561 1213372 1153966 
1677.367 1119350 1097525 1075835 1045775 1006385 963645 927085 904772 896969 
1681.706 894744 880335 833557 738522 595296 424322 260014 132390 51891 10868 
1686.528 -7190 -17461 -30581 -51619 -80972 -117146 -157523 -199421 -238963 
1690.868 -271514 -291945 -296845 -286713 -267110 -249560 -248533 -277971 
1694.725 -344556 -442180 -549677 -640207 -696250 -715833 -713154 -709614 
1698.583 -729164 -789892 -896244 -1033214 -1169777 -1275607 -1335268 
1701.958 -1352510 -1342039 -1320568 -1301772 -1294537 -1303423 -1328463 
1705.333 -1365260 -1406215 -1443633 -1471042 -1485473 -1487190 -1478935 
1708.708 -1464735 -1448191 -1431315 -1414010 -1394623 -1370875 -1341147 
1712.083 -1305637 -1265993 -1224628 -1183127 -1142448 -1102261 -1063062 
1715.459 -1027396 -1000687 -989777 -999893 -1030173 -1071953 -1111052 
1718.834 -1134914 -1136830 -1117728 -1084777 -1047130 -1012984 -987298 
1722.209 -971231 -962305 -957081 -952386 -947064 -941641 -937409 -934930 
1726.067 -933673 -932615 -931094 -929871 -931061 -936517 -946865 -959660 
1729.924 -970735 -976157 -975430 -972851 -979397 -1009777 -1076878 -1185705 
1733.781 -1324929 -1470019 -1590830 -1668568 -1701508 -1701310 -1684510 
1737.157 -1665630 -1656025 -1660712 -1679493 -1707251 -1737052 -1762067 
1740.532 -1778566 -1785364 -1783912 -1776124 -1763552 -1747514 -1728439 
1743.907 -1706524 -1681342 -1652163 -1618263 -1579473 -1536553 -1490888 
1747.282 -1445450 -1402516 -1364269 -1331700 -1305372 -1285155 -1271313 
1750.658 -1263813 -1261963 -1263119 -1264077 -1261137 -1252117 -1237977 
1754.033 -1222943 -1213659 -1217227 -1239265 -1280464 -1336292 -1397562 
1757.408 -1454333 -1500332 -1535067 -1562966 -1590995 -1626515 -1673717 
1760.783 -1732465 -1798464 -1864948 -1925122 -1973677 -2008704 -2030603 
1764.159 -2040958 -2042409 -2038287 -2032417 -2028591 -2030042 -2037396 
1767.534 -2047752 -2055666 -2055040 -2042706 -2019686 -1992378 -1969290 
1770.909 -1959328 -1966948 -1990168 -2019587 -2043333 -2053061 -2045806 
1774.284 -2024930 -1996632 -1966486 -1937162 -1908199 -1877551 -1843371 
1777.660 -1806284 -1769426 -1736425 -1711211 -1694808 -1685203 -1678602 
1781.035 -1670879 -1660151 -1647410 -1635593 -1628034 -1626746 -1631368 
1784.410 -1639521 -1647344 -1652064 -1651899 -1646420 -1635956 -1620804 
1787.785 -1600799 -1576634 -1550486 -1526285 -1510106 -1508091 -1524964 
1791.161 -1561777 -1614499 -1675004 -1734511 -1785661 -1825785 -1856139 
1794.536 -1880223 -1901436 -1922384 -1943759 -1966618 -1991092 -2018433 
1797.911 -2049730 -2085543 -2125145 -2166325 -2206150 -2241818 -2271814 
1801.286 -2295809 -2314562 -2328701 -2338654 -2343894 -2343894 -2339115 
1804.662 -2331239 -2322208 -2314332 -2308992 -2305235 -2301478 -2295611 
1808.037 -2286679 -2275308 -2263771 -2254410 -2248542 -2245345 -2242609 
1811.412 -2236939 -2226028 -2209578 -2189040 -2166787 -2144796 -2123562 
1814.787 -2101965 -2078387 -2051478 -2021039 -1988552 -1956393 -1926804 
1818.163 -1901106 -1879399 -1861286 -1846076 -1833506 -1823772 -1816612 
1821.538 -1811861 -1808726 -1806746 -1805723 -1806845 -1811333 -1819846 
1824.913 -1831592 -1843767 -1852444 -1854853 -1850464 -1842051 -1835122 
1828.288 -1835584 -1847528 -1870788 -1900281 -1927695 -1944584 -1946299 
1831.664 -1932907 -1908726 -1879201 -1848518 -1818658 -1789027 -1757447 
1835.039 -1722135 -1682629 -1639884 -1595682 -1551047 -1505186 -1455720 
1838.414 -1399676 -1334442 -1258923 -1174304 -1082497 -986538 -889003 
1841.789 -792571 -699459 -611422 -528894 -450753 -373359 -291382 -199951 
1845.647 -96840 16004 133583 248742 353982 444588 518459 577048 622836 
1849.986 658142 682965 695476 692324 671051 631563 576450 509900 435997 
1854.326 356933 272281 180220 79098 -30813 -146792 -264097 -378126 -486135 
1858.666 -587334 -683216 -775009 -863409 -946799 -1022901 -1089405 -1146117 
1862.523 -1194296 -1236523 -1274418 -1307586 -1334244 -1351156 -1357036 
1865.898 -1352907 -1343096 -1333979 -1331238 -1337943 -1352874 -1371238 
1869.273 -1387489 -1396671 -1397298 -1390692 -1379694 -1366912 -1354162 
1872.649 -1342535 -1332625 -1325721 -1323541 -1327307 -1337118 -1351222 
1876.024 -1366845 -1380586 -1391353 -1399775 -1409023 -1422894 -1444261 
1879.399 -1473552 -1508917 -1547184 -1585944 -1624237 -1663287 -1704973 
1882.774 -1750385 -1798101 -1844229 -1884281 -1914335 -1933038 -1942638 
1886.150 -1946959 -1951049 -1958372 -1969685 -1984396 -2000821 -2016949 
1889.525 -2031592 -2043860 -2052303 -2055304 -2050588 -2037297 -2016125 
1892.900 -1989904 -1963320 -1939867 -1921757 -1907737 -1894277 -1877122 
1896.275 -1853566 -1823508 -1789588 -1755467 -1723059 -1692530 -1662198 
1899.651 -1629057 -1591721 -1550948 -1510007 -1472363 -1440892 -1415892 
1903.026 -1394656 -1374641 -1353072 -1329388 -1305372 -1283041 -1264044 
1906.401 -1248549 -1235168 -1222646 -1210916 -1201664 -1198261 -1203647 
1909.776 -1218549 -1240851 -1266885 -1291333 -1311220 -1325919 -1336721 
1913.152 -1345574 -1353964 -1361693 -1367935 -1372626 -1377910 -1388050 
1916.527 -1408692 -1443732 -1492902 -1551609 -1611627 -1664904 -1707086 
1919.902 -1738702 -1764278 -1789588 -1818625 -1851388 -1884743 -1914401 
1923.277 -1937030 -1952896 -1965167 -1977206 -1991553 -2007055 -2019950 
1926.653 -2025722 -2022160 -2010551 -1995676 -1982879 -1976546 -1977569 
1930.028 -1983604 -1991454 -1998612 -2005505 -2014772 -2029844 -2052204 
1933.403 -2079443 -2107174 -2129992 -2144202 -2149774 -2149214 -2146114 
1936.778 -2142158 -2135960 -2124189 -2103251 -2072913 -2036836 -2001745 
1940.154 -1975425 -1962825 -1964342 -1975820 -1990729 -2003361 -2011474 
1943.529 -2016224 -2020676 -2026909 -2034989 -2042937 -2047818 -2047917 
1946.904 -2044586 -2040398 -2037396 -2035550 -2031163 -2019522 -1996501 
1950.279 -1961703 -1919448 -1876825 -1840171 -1812884 -1792987 -1774937 
1953.655 -1753817 -1727416 -1698999 -1675664 -1665102 -1672232 -1696755 
1957.030 -1733653 -1775036 -1814632 -1848716 -1876825 -1899555 -1916809 
1960.405 -1925847 -1923373 -1907374 -1879234 -1845680 -1815655 -1795659 
1963.780 -1789027 -1792327 -1798563 -1800873 -1796022 -1785925 -1776191 
1967.156 -1772627 -1776553 -1784011 -1788565 -1783714 -1767941 -1745039 
1970.531 -1722399 -1707118 -1701574 -1701805 -1700485 -1690583 -1669162 
1973.906 -1640049 -1610175 -1585878 -1568083 -1551377 -1525360 -1480420 
1977.281 -1414373 -1334013 -1253571 -1188150 -1148595 -1138053 -1153255 
1980.656 -1185672 -1227536 -1272865 -1317859 -1359116 -1393004 -1414934 
1984.032 -1421308 -1411863 -1392080 -1371503 -1360504 -1366581 -1389570 
1987.407 -1422596 -1453276 -1470613 -1468136 -1447728 -1416288 -1384054 
1990.782 -1358390 -1340883 -1328397 -1314919 -1295165 -1267381 -1233880 
1994.157 -1198559 -1165217 -1136037 -1110953 -1089504 -1072416 -1060550 
1997.533 -1054600 -1054501 -1056881 -1056088 -1047692 -1029148 -1002968 
2000.908 -976752 -959627 -958999 -977116 -1010439 -1050832 -1090198 -1121595 
2004.765 -1142547 -1154477 -1159137 -1157617 -1150148 -1136037 -1115349 
2008.141 -1092346 -1073474 -1063888 -1067260 -1081307 -1099783 -1114424 
2011.516 -1118687 -1111416 -1095519 -1076614 -1058931 -1043726 -1028256 
2014.891 -1007959 -979661 -943658 -902494 -861359 -822998 -786783 -749739 
2018.749 -709019 -664226 -619562 -582304 -557552 -547559 -548419 -552258 
2022.606 -550140 -539219 -521746 -507283 -505662 -522838 -557486 -602158 
2026.463 -644740 -676666 -695092 -703726 -709945 -719869 -735317 -752054 
2030.321 -763598 -763829 -750599 -727213 -699558 -671836 -645071 -616518 
2034.178 -581510 -538657 -490769 -444431 -406827 -382331 -368824 -359819 
2038.036 -346675 -324228 -291547 -254394 -219821 -194916 -181900 -177860 
2041.893 -177297 -175972 -171633 -166632 -165075 -169977 -181006 -195380 
2045.750 -207435 -213264 -212105 -206872 -202600 -203925 -213363 -230684 
2049.608 -255123 -285422 -321844 -365215 -414971 -467302 -516782 -555468 
2053.465 -576911 -579657 -567116 -547393 -530218 -523268 -529159 -545639 
2057.323 -567314 -589021 -607518 -622473 -635079 -645931 -654367 -657014 
2061.180 -650530 -632697 -603878 -567414 -528100 -489081 -452573 -418182 
2065.038 -385773 -356111 -332240 -318367 -318500 -333697 -361275 -394513 
2068.895 -426689 -452044 -468990 -479780 -488286 -498943 -514167 -532766 
2072.752 -552887 -572112 -589948 -607518 -627138 -650497 -677592 -706306 
2076.610 -733696 -756652 -774546 -787676 -797896 -806263 -813209 -816879 
2080.467 -816383 -811323 -802956 -794192 -788503 -787941 -793133 -802824 
2084.325 -815160 -828124 -841616 -856564 -874321 -896244 -922101 -950800 
2088.182 -980488 -1009976 -1038338 -1065442 -1090958 -1113994 -1133063 
2091.557 -1146414 -1153750 -1155733 -1154444 -1152362 -1150446 -1148430 
2094.933 -1144002 -1135376 -1121860 -1105203 -1089933 -1080547 -1079820 
2098.308 -1087554 -1099386 -1109301 -1112408 -1106359 -1092445 -1075358 
2101.683 -1059922 -1049345 -1043858 -1040916 -1036784 -1028686 -1015496 
2105.058 -997744 -976884 -953874 -928482 -900014 -868501 -834738 -801832 
2108.916 -773189 -750566 -733762 -719770 -704454 -684308 -658701 -629851 
2112.773 -602885 -582569 -571715 -569697 -573568 -577639 -577275 -569895 
2116.631 -554343 -531773 -503974 -472168 -438042 -403319 -370313 -341709 
2120.488 -319625 -304792 -295554 -288733 -280521 -268037 -251348 -233234 
2124.345 -217801 -209091 -209522 -218430 -234062 -254129 -277607 -305454 
2128.203 -339954 -382430 -433574 -491133 -552522 -614036 -673589 -730620 
2132.060 -785196 -836954 -883712 -921903 -947890 -960288 -960916 -955428 
2135.918 -950304 -950733 -958238 -969281 -978074 -979562 -971099 -954304 
2139.775 -934103 -915257 -900609 -889367 -878620 -865327 -849156 -833812 
2143.633 -824784 -828124 -846478 -877463 -915951 -953940 -985248 -1007199 
2147.490 -1020223 -1027033 -1030702 -1032950 -1035231 -1038635 -1046238 
2150.865 -1061310 -1086926 -1124272 -1170240 -1219573 -1266522 -1306628 
2154.240 -1340322 -1370875 -1401162 -1430589 -1450865 -1448025 -1405092 
2157.616 -1311418 -1166803 -987166 -798888 -628925 -498017 -414441 -373723 
2161.473 -363659 -371207 -385111 -398982 -411429 -421426 -429536 -436387 
2165.331 -442213 -449263 -459921 -476702 -499969 -527537 -554905 -577142 
2169.188 -592032 -600205 -605367 -613110 -626973 -646361 -667336 -683414 
2173.045 -688707 -680569 -660620 -632962 -603018 -574892 -550438 -529291 
2176.903 -512016 -499473 -493615 -496726 -508938 -527405 -547128 -561921 
2180.760 -567877 -564270 -554276 -543124 -536241 -535612 -541039 -550438 
2184.618 -561788 -574032 -587632 -603150 -619628 -634583 -642986 -639281 
2188.475 -620653 -586904 -540642 -486996 -430462 -373624 -318367 -265918 
2192.333 -217536 -177065 -148448 -133708 -132780 -140730 -151263 -157060 
2196.190 -153847 -140631 -120922 -100649 -84218 -74710 -71795 -73352 -77592 
2200.530 -83556 -91274 -101577 -113668 -125526 -133178 -133443 -123936 
2204.387 -106082 -83224 -59438 -37472 -18587 -662 18456 39994 64251 88940 
2209.209 111178 129175 141936 149891 153437 152841 146344 132755 112106 
2213.548 86919 62197 45130 40193 49770 71343 98816 125165 144853 156056 
2218.370 160066 160497 160663 161790 163381 162851 158376 148929 135738 
2222.710 120889 105809 91227 76281 59579 40988 21007 2054 -13087 -23027 
2227.531 -27599 -28163 -27765 -27897 -30349 -35882 -44430 -56324 -71696 
2231.871 -90214 -109891 -127646 -139074 -140233 -129866 -109692 -84218 
2235.729 -59570 -40388 -28262 -21635 -15738 -5732 11066 34195 60970 87151 
2240.550 109820 127551 141671 153868 165370 176308 185457 191424 193744 
2244.890 193877 194308 197755 205413 217015 229911 241415 249471 253483 
2249.229 254146 253416 251924 250035 247018 242774 237735 234552 236575 
2253.569 246322 265783 293501 326095 359288 388206 409431 420939 422100 
2257.909 413079 395170 370298 341945 314423 292937 281233 281598 293103 
2262.248 312201 333721 353418 368606 379451 387974 396994 408204 422067 
2266.588 437125 451089 462466 470426 475269 477690 478254 476629 472450 
2270.927 465484 456230 446744 438949 435035 435931 441536 450558 462034 
2275.267 475236 489931 506782 525326 545364 565037 582754 597386 609431 
2279.607 620778 633288 649116 668994 691859 716119 739783 761325 780377 
2283.946 797771 813539 828013 840761 850554 856829 859585 859717 858721 
2288.286 858323 859452 862606 868217 876749 889067 906598 930206 959892 
2292.625 994994 1033054 1071251 1107823 1141242 1171774 1200447 1228091 
2296.483 1255140 1281259 1305951 1328086 1347728 1365211 1381133 1396290 
2300.340 1410650 1423482 1433954 1441134 1444924 1445423 1443495 1439871 
2304.198 1435051 1428867 1421288 1412512 1403204 1394429 1387415 1383094 
2308.055 1381066 1380833 1381399 1381698 1381432 1381033 1380867 1381332 
2311.913 1382562 1384091 1385919 1387947 1390839 1395459 1402473 1411847 
2315.770 1422318 1432258 1439771 1443461 1443229 1439771 1434386 1428635 
2319.627 1423615 1419859 1418329 1419526 1424114 1432258 1442697 1452770 
2323.485 1458322 1455263 1440636 1413875 1377543 1335929 1294984 1259792 
2327.342 1233076 1215498 1204999 1198819 1194200 1189981 1186027 1183967 
2331.200 1185495 1191808 1203537 1220283 1241150 1264677 1289501 1313961 
2335.057 1336527 1356403 1373521 1388445 1403005 1418728 1436713 1456959 
2338.915 1477771 1496722 1511817 1521892 1527179 1529573 1530604 1531169 
2342.772 1531169 1529307 1524419 1517403 1511485 1511717 1524652 1555742 
2346.629 1607553 1679594 1768047 1867534 1971903 2075031 2172157 2259046 
2350.487 2332860 2392527 2438473 2473295 2500621 2524716 2549345 2576509 
2354.344 2606275 2637710 2669513 2700919 2732794 2766939 2805655 2850511 
2358.202 2901810 2958786 3019707 3083573 3149384 3216840 3286110 3356092 
2362.059 3425718 3492883 3555817 3613747 3666907 3716498 3763788 3809446 
2365.917 3852634 3892484 3926887 3954271 3973999 3986071 3990518 3987910 
2369.774 3978681 3963132 3942601 3919297 3895827 3875868 3862930 3858919 
2373.631 3865872 3884961 3916756 3962229 4022622 4098275 4189397 4294961 
2377.489 4413371 4542828 4681736 4829499 4985759 5150692 5323403 5502054 
2381.346 5683901 5865388 6043154 6214673 6378258 6533092 6678223 6812531 
2385.204 6933783 7040051 7129064 7199163 7250270 7282885 7297947 7296734 
2389.061 7280055 7249125 7205159 7150049 7085717 7014592 6938295 6857534 
2392.918 6772379 6682160 6586947 6487786 6387236 6288659 6196120 6113245 
2396.776 6042314 5984562 5940355 5909554 5891887 5887386 5895918 5917044 
2400.633 5950231 5994809 6050176 6116203 6193028 6281095 6380646 6491116 
2404.491 6611438 6740542 6876957 7020250 7170192 7327297 7492177 7665046 
2408.348 7846013 8035055 8232284 8438352 8653475 8877802 9109959 9346946 
2412.206 9585113 9818970 10043629 10254833 10448864 10622982 10774921 
2415.581 10902449 11004220 11079298 11128688 11154015 11158536 11145958 
2418.956 11118966 11079230 11027432 10963509 10887601 10801245 10706279 
2422.331 10606073 10503716 10401553 10301484 10204049 10110300 10021486 
2425.707 9940184 9869540 9813412 9775049 9756749 9759665 9783995 9828969 
2429.564 9893674 9977003 10077675 10194518 10326320 10471910 10630825 
2432.939 10803114 10989437 11190392 11406611 11638015 11884184 12144565 
2436.314 12418296 12704518 13003184 13313774 13636006 13969837 14315465 
2439.690 14674187 15048160 15440412 15853671 16290510 16751964 17237694 
2443.065 17746128 18275546 18823880 19390022 19972932 20571146 21182746 
2446.440 21805204 22435536 23070802 23708890 24348090 24987040 25624504 
2449.815 26258156 26885576 27503880 28110834 28704372 29282982 29844478 
2453.191 30385344 30900734 31384178 31828552 32227342 32575208 32867956 
2456.566 33102252 33274998 33381578 33417932 33379004 33260510 33060488 
2459.941 32778546 32416626 31977966 31466960 30888318 30246530 29546882 
2463.316 28794892 27996774 27160050 26292616 25403200 24501472 23596682 
2466.692 22698588 21817330 20961500 20139770 19359292 18624758 17939494 
2470.067 17304928 16720800 16185980 15699122 15258004 14860054 14501693 
2473.442 14178817 13886321 13619629 13374524 13147522 12936784 12740854 
2476.817 12558382 12387987 12227644 12075264 11929136 11787721 11650641 
2480.193 11517721 11389433 11265638 11147012 11033618 10925554 10823563 
2483.568 10727642 10638228 10554942 10477545 10405320 10338638 10278208 
2486.943 10225488 10182034 10148693 10125052 10109146 10098192 10089138 
2490.318 10080286 10071062 10062653 10056888 10056142 10061500 10073097 
2493.694 10090698 10113182 10139366 10169043 10201437 10236242 10272101 
2497.069 10307760 10341556 10372266 10399585 10423918 10446420 10467939 
2500.444 10489222 10510335 10531076 10551072 10570220 10588961 10607499 
2503.819 10626818 10646852 10667702 10689300 10711578 10734605 10758922 
2507.195 10784499 10811199 10838272 10864398 10887636 10906187 10918554 
2510.570 10923175 10919234 10905948 10882404 10848599 10805219 10752945 
2513.945 10693545 10629025 10560782 10490512 10418760 10345899 10272407 
2517.320 10198927 10126409 10056006 9988767 9925268 9865947 9810837 9760071 
2521.178 9714291 9674244 9640906 9614719 9595817 9583657 9577220 9575764 
2525.035 9578643 9585418 9595918 9609807 9626305 9644497 9663537 9682984 
2528.893 9703381 9725914 9751430 9780505 9812802 9846695 9880963 9914217 
2532.750 9946252 9978460 10012569 10050139 10092088 10138144 10186953 
2536.125 10237057 10287302 10337586 10388487 10441567 10497741 10557692 
2539.500 10621487 10688757 10759025 10832565 10909210 10989165 11071990 
2542.876 11156939 11242550 11327362 11410557 11491353 11569373 11644277 
2546.251 11715482 11781899 11842675 11897192 11945654 11989284 12029683 
2549.626 12069200 12109539 12151686 12195917 12241686 12288175 12334635 
2553.001 12380043 12423581 12464566 12502315 12536146 12566533 12593581 
2556.377 12617901 12639664 12658802 12673983 12683910 12687015 12681830 
2559.752 12668218 12646351 12616776 12580654 12538225 12489731 12435038 
2563.127 12374555 12308762 12239095 12167429 12095194 12024404 11956621 
2566.502 11892731 11834265 11782547 11738596 11702956 11675181 11653841 
2569.878 11636959 11622631 11609869 11598911 11590982 11587817 11591118 
2573.253 11601565 11618887 11641452 11668680 11699586 11734681 11774852 
2576.628 11820951 11873150 11930771 11991976 12054347 12116114 12175845 
2580.003 12232892 12287630 12340635 12392658 12444277 12496416 12549787 
2583.379 12606031 12666410 12732017 12803675 12881078 12963035 13048218 
2586.754 13134954 13221605 13307077 13390516 13471613 13550058 13625920 
2590.129 13699503 13771012 13840550 13908319 13973875 14037079 14097931 
2593.504 14156840 14214901 14273826 14335054 14400263 14469867 14543319 
2596.880 14619971 14698247 14777703 14858408 14941288 15027648 15118726 
2600.255 15215176 15316624 15422594 15532058 15644126 15758626 15875736 
2603.630 15995694 16119402 16247513 16380442 16518680 16662573 16811578 
2607.005 16965042 17121216 17278344 17434354 17587694 17737292 17883214 
2610.381 18025452 18163974 18297836 18425278 18543594 18649660 18741086 
2613.756 18816406 18875544 18919738 18950680 18970442 18980966 18983354 
2617.131 18978544 18966878 18948534 18923718 18892882 18856510 18815578 
2620.506 18771668 18726764 18682900 18642294 18606808 18577656 18555696 
2623.882 18540966 18533218 18532320 18537886 18549678 18567556 18591246 
2627.257 18620194 18654814 18695182 18741950 18795958 18858034 18928286 
2630.632 19006304 19090810 19180182 19272724 19367122 19462684 19559444 
2634.007 19657786 19758094 19860644 19965752 20073312 20183364 20296256 
2637.383 20412026 20530606 20651790 20774396 20897560 21020062 21141070 
2640.758 21260194 21377510 21492942 21606488 21718008 21826808 21932460 
2644.133 22034792 22134116 22231126 22326830 22422558 22519282 22617670 
2647.508 22718278 22821564 22927670 23037296 23150792 23268864 23391932 
2650.884 23520178 23653604 23791726 23934234 24080466 24230076 24382330 
2654.259 24537338 24695242 24856114 25020558 25189206 25362276 25540088 
2657.634 25722860 25910210 26102182 26298426 26498490 26701786 26907326 
2661.009 27113704 27319616 27524038 27726222 27926066 28124442 28321992 
2664.385 28519456 28717362 28915182 29112524 29308928 29504074 29698564 
2667.760 29893388 30089932 30289586 30493420 30702078 30915496 31133258 
2671.135 31354726 31578622 31803880 32029186 32252964 32474324 32692228 
2674.510 32906126 33115696 33321004 33521612 33717156 33907308 34091592 
2677.885 34270328 34444472 34615424 34785504 34957340 35133200 35315564 
2681.261 35506812 35709188 35924576 36155092 36402268 36666996 36949672 
2684.636 37249608 37565900 37897492 38243496 38603712 38977784 39365676 
2688.011 39766616 40180000 40604400 41038612 41481676 41932892 42392288 
2691.386 42859776 43335864 43820384 44313556 44814892 45324204 45841368 
2694.762 46366148 46898356 47437800 47984128 48537108 49096064 49660312 
2698.137 50229304 50801988 51377744 51955792 52535584 53116860 53699856 
2701.512 54284572 54870756 55457164 56041728 56621076 57191408 57748416 
2704.887 58287980 58806064 59299052 59763284 60195124 60590904 60947312 
2708.263 61261508 61531568 61756492 61935860 62069932 62158968 62203588 
2711.638 62204428 62162636 62079532 61956728 61795376 61596056 61358696 
2715.013 61082644 60767052 60411704 60016888 59584236 59116096 58614900 
2718.388 58083972 57526160 56945340 56345260 55730192 55104968 54474744 
2721.764 53843824 53216928 52598336 51992016 51402284 50833500 50289492 
2725.139 49773776 49289136 48836960 48418040 48032532 47680608 47362632 
2728.514 47079376 46831252 46618908 46441660 46298392 46187636 46107048 
2731.889 46055064 46030084 46031224 46057824 46109072 46184096 46281768 
2735.265 46400400 46538980 46695460 46867908 47054008 47250792 47454908 
2738.640 47663008 47871756 48077908 48279268 48473196 48657692 48830768 
2742.015 48990680 49135948 49266868 49384428 49490912 49589512 49683824 
2745.390 49776488 49869688 49964728 50062140 50162356 50265348 50371344 
2748.766 50480308 50592012 50706168 50822252 50940456 51061596 51187280 
2752.141 51320200 51462972 51618440 51789192 51977640 52185560 52414852 
2755.516 52667124 52943340 53244044 53568680 53915356 54281720 54664096 
2758.891 55058704 55461456 55867860 56272536 56670300 57054488 57418560 
2762.267 57756248 58061820 58330460 58559040 58745480 58888360 58987260 
2765.642 59042372 59054820 59025860 58958300 58854892 58719384 58556236 
2769.017 58370144 58166208 57950408 57727976 57504980 57286064 57075120 
2772.392 56874932 56687028 56511884 56349488 56199220 56060352 55932264 
2775.768 55813752 55703560 55599868 55500308 55401528 55299000 55187808 
2779.143 55061936 54915080 54741780 54537740 54300792 54031292 53732588 
2782.518 53409740 53068860 52716500 52358816 52000720 51646428 51299132 
2785.893 50960836 50632964 50315796 50009008 49711948 49423812 49144224 
2789.269 48873484 48612440 48362664 48125360 47901688 47691884 47495348 
2792.644 47310568 47136320 46970748 46811992 46658380 46507964 46358368 
2796.019 46207352 46052480 45891888 45724100 45548208 45363744 45170236 
2799.394 44967560 44755276 44532596 44299064 44054140 43797184 43528040 
2802.770 43246028 42950884 42642820 42322080 41989936 41648124 41299184 
2806.145 40946120 40592212 40240484 39894196 39556464 39230344 38918672 
2809.520 38624176 38349168 38095380 37863620 37654096 37466808 37301088 
2812.895 37156404 37032040 36927556 36842140 36775060 36725336 36692484 
2816.271 36676116 36676152 36693388 36728328 36782092 36854944 36947580 
2819.646 37060008 37191848 37343588 37514924 37706060 37916624 38146312 
2823.021 38394192 38658724 38937952 39229800 39531460 39840264 40152852 
2826.396 40465992 40775752 41078200 41369080 41643712 41898008 42127152 
2829.771 42327160 42494880 42628312 42726972 42791908 42825952 42832756 
2833.147 42816260 42780792 42730484 42669140 42600752 42529340 42458780 
2836.522 42392840 42334136 42284752 42245568 42217192 42200576 42197692 
2839.897 42211716 42247100 42309080 42403284 42535224 42710084 42933584 
2843.272 43212060 43553932 43968116 44465272 45055212 45743536 46530420 
2846.648 47406532 48351852 49332380 50303704 51213488 52002028 52614644 
2850.023 53004692 53138432 53002072 52600692 51958292 51111500 50107540 
2853.398 48999320 47836464 46667788 45535548 44472064 43502548 42641980 
2856.773 41896076 41262492 40732408 40293016 39928888 39624444 39365964 
2860.149 39141100 38940016 38755512 38582240 38416960 38258368 38106740 
2863.524 37963520 37831152 37712456 37610156 37526880 37464788 37426140 
2866.899 37412776 37426392 37467892 37537468 37633928 37754884 37896340 
2870.274 38053388 38220516 38391368 38560292 38721892 38871780 39007724 
2873.650 39129172 39238356 39339156 39437220 39538716 39649132 39773700 
2877.025 39915776 40077372 40260076 40464244 40689504 40935196 41199896 
2880.400 41481344 41777024 42084072 42400180 42723280 43051268 43382468 
2883.775 43714436 44043944 44367132 44679692 44977440 45257564 45518220 
2887.151 45759700 45983928 46194344 46395052 46590984 46787448 46989244 
2890.526 47201476 47429596 47678832 47956080 48269120 48626932 49040568 
2893.901 49521548 50081212 50729740 51473716 52313292 53240148 54236292 
2897.276 55271528 56303012 57282136 58154580 58867568 59380760 59667780 
2900.652 59722944 59560708 59214096 58728904 58153368 57537700 56925280 
2904.027 56349940 55838284 55408224 55070624 54831808 54694048 54656960 
2907.402 54718444 54875492 55126220 55469284 55904640 56432980 57053924 
2910.777 57765256 58561772 59433644 60367344 61344500 62341800 63333532 
2914.153 64289384 65177612 65969572 66638952 67168264 67549352 67784464 
2917.528 67884560 67865608 67746392 67543472 67268528 66928728 66525520 
2920.903 66056588 65518120 64906584 64221808 63467688 62653752 61794804 
2924.278 60910408 60020888 59147496 58308408 57516440 56779908 56102124 
2927.654 55482840 54919480 54408904 53947956 53533224 53161048 52827360 
2931.029 52527020 52254616 52004456 51771048 51549968 51337352 51130100 
2934.404 50926188 50723928 50522552 50321820 50122304 49924696 49729560 
2937.779 49537072 49347336 49159956 48975360 48795252 48622484 48461344 
2941.155 48317260 48195104 48098860 48030088 47987052 47964440 47953560 
2944.530 47942572 47917004 47863360 47769444 47626732 47433292 47193276 
2947.905 46917772 46621196 46320804 46032552 45767760 45532496 45326004 
2951.280 45142148 44969652 44795608 44607532 44394180 44148100 43866092 
2954.656 43548476 43199284 42824596 42432000 42028404 41620372 41213120 
2958.031 40810404 40415004 40028720 39652944 39288592 38936032 38595636 
2961.406 38267412 37952020 37649868 37362652 37092196 36840448 36609460 
2964.781 36400900 36215668 36054672 35918532 35807728 35722640 35663104 
2968.156 35628004 35614768 35619480 35637028 35661812 35689224 35715592 
2971.532 35739368 35760560 35780888 35802692 35828920 35862064 35903236 
2974.907 35952076 36005384 36057048 36098488 36117428 36100936 36036168 
2978.282 35911764 35720808 35460896 35135392 34752444 34324436 33866864 
2981.657 33395424 32925644 32471292 32041990 31643976 31279620 30947520 
2985.033 30644472 30367008 30112694 29881746 29677310 29504182 29367244 
2988.408 29268450 29204302 29163796 29129106 29076952 28980916 28818544 
2991.783 28573736 28240940 27826432 27347950 26831542 26305044 25795674 
2995.158 25325008 24905096 24540668 24228780 23962138 23731322 23527174 
2998.534 23342422 23171272 23009660 22854778 22704454 22557288 22412544 
3001.909 22270674 22132512 21999446 21873010 21754064 21643124 21540154 
3005.284 21444830 21357218 21277246 21205602 21142634 21088682 21043572 
3008.659 21006916 20977602 20954512 20936256 20921480 20908928 20897802 
3012.035 20887616 20878472 20871102 20866652 20866340 20871240 20882018 
3015.410 20898812 20921376 20949296 20982572 21021174 21064996 21113622 
3018.785 21166048 21220458 21274776 21326244 21373124 21413606 21446848 
3022.160 21472296 21489564 21498582 21499174 21491860 21477866 21459172 
3025.536 21439084 21420706 21407026 21400482 21401980 21411482 21427842 
3028.911 21449252 21473550 21498372 21521526 21541060 21555614 21564318 
3032.286 21567346 21565640 21560974 21555404 21550878 21549170 21551366 
3035.661 21558086 21569576 21585732 21606802 21632538 21662802 21697770 
3039.037 21737412 21782004 21831790 21887088 21947900 22014018 22084678 
3042.412 22158662 22234752 22311622 22388088 22463554 22537500 22609434 
3045.787 22679352 22746978 22812310 22875696 22938010 23000228 23063256 
3049.162 23127552 23192872 23258166 23321792 23382422 23438722 23489994 
3052.538 23536022 23576950 23613090 23644718 23672392 23696746 23718862 
3055.913 23740384 23762712 23787422 23815318 23846820 23881440 23918760 
3059.288 23957868 23998590 24040472 24083548 24127434 24171816 24216308 
3062.663 24260942 24305724 24351350 24398452 24447908 24500386 24556376 
3066.039 24616230 24680092 24748134 24820330 24896500 24975740 25056746 
3069.414 25137770 25217542 25295294 25371162 25446200 25522166 25600500 
3072.789 25682572 25768494 25857986 25950308 26044656 26140430 26237390 
3076.164 26335636 26434962 26535508 26637028 26739208 26841764 26944554 
3079.540 27047122 27148762 27248910 27346434 27440874 27532050 27620492 
3082.915 27707150 27793050 27878896 27964686 28050142 28134694 28218556 
3086.290 28301904 28386366 28473246 28564076 28659062 28758002 28859584 
3089.665 28962110 29064588 29166384 29267670 29369016 29471378 29575254 
3093.041 29680894 29788512 29898000 30009578 30123384 30239568 30358090 
3096.416 30478988 30601914 30726758 30853132 30981002 31109730 31238672 
3099.791 31366658 31492788 31616252 31736824 31854972 31971510 32087404 
3103.166 32203146 32318852 32434158 32548744 32662540 32776508 32891866 
3106.542 33009968 33131574 33256646 33384010 33512342 33639960 33766076 
3109.917 33890400 34013648 34136792 34260644 34385940 34512664 34641112 
3113.292 34771468 34904056 35039156 35176672 35315924 35455828 35594984 
3116.667 35732316 35867320 36000528 36132552 36264544 36397184 36530268 
3120.042 36663500 36795976 36927232 37057192 37185964 37314160 37442432 
3123.418 37570992 37699700 37828700 37957700 38086592 38215672 38344676 
3126.793 38473796 38602736 38731132 38858736 38985504 39111476 39236508 
3130.168 39360376 39482940 39603868 39723304 39841716 39960092 40079588 
3133.543 40201152 40325260 40451480 40578572 40705260 40830208 40953072 
3136.919 41073608 41192720 41310772 41428308 41545516 41662164 41778116 
3140.294 41893812 42009424 42125544 42242168 42358788 42474712 42588872 
3143.669 42700356 42809240 42916176 43022512 43129572 43238488 43349664 
3147.044 43462664 43576900 43691536 43806272 43921188 44036904 44153968 
3150.420 44272792 44393628 44515892 44638784 44761484 44882676 45001664 
3153.795 45117884 45231348 45342852 45452984 45562964 45673632 45785360 
3157.170 45897928 46010672 46122708 46233596 46343328 46452684 46562696 
3160.545 46674760 46789628 46907472 47027828 47149656 47271776 47392896 
3163.921 47512348 47630172 47746324 47861436 47976208 48091048 48206104 
3167.296 48321040 48435264 48547560 48656764 48761776 48861880 48956928 
3170.671 49047428 49133720 49216504 49295928 49371284 49441860 49506840 
3174.046 49565628 49618816 49666552 49710240 49750996 49789828 49827508 
3177.422 49865340 49903920 49944472 49987672 50034064 50083220 50134504 
3180.797 50186416 50237860 50287968 50336704 50384480 50432224 50480232 
3184.172 50528952 50577864 50626972 50675932 50725008 50774580 50824896 
3187.547 50876412 50928832 50981700 51034728 51087908 51141728 51196864 
3190.923 51254240 51314048 51375988 51438988 51501952 51563884 51624224 
3194.298 51682848 51739916 51795352 51848812 51899780 51947576 51992540 
3197.673 52035528 52078076 52122196 52169308 52219600 52272888 52327272 
3201.048 52380984 52432200 52479832 52523840 52564824 52604172 52643408 
3204.424 52684328 52728432 52777032 52830316 52888060 52948728 53010420 
3207.799 53070732 53127684 53180296 53228872 53273820 53316600 53357960 
3211.174 53398272 53437392 53475092 53511448 53547316 53584088 53622960 
3214.549 53665436 53711180 53759368 53808528 53856652 53902412 53944992 
3217.925 53984576 54021420 54056092 54089268 54121092 54151796 54181636 
3221.300 54210728 54239260 54267488 54295272 54323172 54351332 54380324 
3224.675 54410744 54443004 54477036 54512008 54546344 54578428 54606832 
3228.050 54630692 54649744 54665040 54677516 54688036 54697844 54707728 
3231.426 54718856 54732388 54749748 54771588 54797900 54827296 54857108 
3234.801 54884776 54907528 54924184 54934976 54941480 54945952 54950168 
3238.176 54955204 54961336 54968024 54975132 54982128 54989424 54997432 
3241.551 55005896 55013980 55020300 55023384 55022296 55017292 55009396 
3244.927 55000672 54993260 54988788 54988256 54991984 54999728 55011464 
3248.302 55026880 55045952 55067692 55090448 55112152 55130696 55144164 
3251.677 55151876 55154624 55153796 55151800 55150864 55152104 55156168 
3255.052 55162676 55170312 55177612 55182840 55184872 55182952 55177308 
3258.427 55168356 55158236 55148680 55141720 55138408 55138712 55141308 
3261.803 55144016 55144692 55141420 55133296 55120580 55104104 55085744 
3265.178 55066636 55047944 55030268 55013720 54998072 54982544 54966560 
3268.553 54948736 54928656 54905308 54878876 54849740 54818688 54786772 
3271.928 54754448 54721936 54689128 54655904 54622576 54589700 54558668 
3275.304 54530076 54504608 54481432 54459232 54436736 54412924 54387760 
3278.679 54362112 54337552 54315208 54295424 54277552 54259828 54240724 
3282.054 54219136 54195376 54170072 54145148 54121956 54101500 54084052 
3285.429 54069752 54057928 54048588 54041120 54035192 54029752 54023484 
3288.805 54015268 54004196 53990280 53974708 53958948 53944992 53934036 
3292.180 53926648 53922820 53922260 53925144 53932048 53943568 53960184 
3295.555 53981496 54006072 54032112 54057556 54081384 54103452 54124996 
3298.930 54147480 54172288 54199916 54230136 54261780 54293772 54325388 
3302.306 54356516 54387420 54418632 54450704 54483908 54518772 54555884 
3305.681 54595788 54639824 54687960 54739900 54794028 54848124 54899816 
3309.056 54947420 54990476 55029516 55066336 55102560 55139916 55179456 
3312.431 55221368 55265168 55310216 55355752 55400584 55443840 55484348 
3315.807 55521020 55553436 55582020 55607252 55630752 55653384 55675988 
3319.182 55698436 55720508 55741152 55759764 55775660 55788396 55797780 
3322.557 55803392 55805276 55803356 55798156 55790996 55783044 55775436 
3325.932 55768540 55761684 55753208 55741304 55724280 55701864 55674668 
3329.308 55644236 55611884 55578476 55543760 55506748 55465636 55418916 
3332.683 55365276 55304116 55234800 55157180 55070740 54975812 54873312 
3336.058 54765084 54653880 54542660 54433580 54327188 54222476 54116964 
3339.433 54007724 53892284 53769676 53640168 53504740 53365152 53222656 
3342.809 53077696 52929828 52778756 52623544 52463980 52300064 52131836 
3346.184 51959972 51784936 51607616 51429212 51251292 51074976 50901408 
3349.559 50731344 50564204 50399736 50237300 50076824 49918672 49763220 
3352.934 49610792 49461092 49313748 49167376 49021352 48875748 48731008 
3356.310 48588948 48451120 48319076 48193628 48074796 47962148 47855108 
3359.685 47753388 47656348 47563400 47473208 47384248 47294684 47203140 
3363.060 47108992 47013392 46918256 46826312 46739996 46660888 46589400 
3366.435 46525148 46466736 46412528 46361392 46312288 46264036 46216084 
3369.811 46167404 46116960 46063760 46006988 45945772 45879512 45807412 
3373.186 45728812 45643228 45550600 45451072 45345464 45233996 45117076 
3376.561 44994164 44864452 44726224 44578488 44420604 44252832 44075920 
3379.936 43891052 43698972 43499508 43291344 43073040 42842332 42597680 
3383.312 42338444 42065492 41780416 41486120 41186052 40883860 40582356 
3386.687 40284180 39990244 39700972 39415776 39133268 38852104 38570832 
3390.062 38288584 38005324 37721456 37437916 37156080 36877848 36604052 
3393.437 36335688 36072924 35814888 35559884 35305788 35050580 34792684 
3396.813 34531856 34268676 34005120 33743332 33485070 33231392 32982334 
3400.188 32736742 32493286 32250826 32008532 31766306 31524710 31283930 
3403.563 31044524 30806284 30568744 30331156 30093306 29855054 29616720 
3406.938 29378696 29141756 28906432 28673574 28443636 28217568 27995856 
3410.313 27778920 27567108 27359878 27156242 26955306 26755910 26557240 
3413.689 26358976 26161192 25964236 25768882 25575020 25382332 25190436 
3417.064 24998202 24804472 24608340 24409038 24206672 24002022 23796522 
3420.439 23591994 23390114 23192034 22997922 22807492 22619520 22432572 
3423.814 22245772 22058602 21870884 21683072 21495344 21307868 21120580 
3427.190 20933510 20746278 20559544 20373374 20188570 20005440 19824158 
3430.565 19644510 19466460 19290112 19115914 18944866 18777344 18613622 
3433.940 18453246 18294588 18136370 17977170 17816442 17655152 17494752 
3437.315 17337478 17185052 17038678 16897760 16761262 16627319 16493728 
3440.691 16359007 16221991 16082609 15941383 15799239 15657693 15518184 
3444.066 15381569 15248085 15117423 14988478 14860294 14732146 14604242 
3447.441 14477437 14354060 14235547 14123260 14017196 13915983 13817597 
3450.816 13719748 13620825 13519943 13417444 13313910 13209854 13105619 
3454.192 13000896 12895345 12788864 12682068 12575947 12472068 12371555 
3457.567 12274711 12181229 12089710 11998481 11906353 11812371 11716436 
3460.942 11618819 11520647 11422837 11326137 11232009 11140824 11053432 
3464.317 10969422 10888111 10808617 10729917 10651130 10572630 10494890 
3467.693 10419167 10346442 10276919 10209749 10143504 10075844 10004940 
3471.068 9929879 9850152 9766814 9681053 9594292 9507753 9422855 9340412 
3474.925 9261167 9185894 9114865 9047502 8982990 8920077 8857647 8794820 
3478.783 8731461 8667706 8604230 8541035 8478118 8415211 8352312 8289829 
3482.640 8229582 8172991 8122011 8077214 8037756 8001236 7964720 7925137 
3486.498 7880765 7831810 7779622 7727002 7676513 7630144 7588871 7552591 
3490.355 7520833 7493155 7469390 7449232 7432716 7419166 7407033 7394866 
3494.212 7381149 7365006 7346539 7327061 7308123 7291814 7279954 7273552 
3498.070 7273350 7279145 7290264 7305798 7324735 7345864 7368848 7392945 
3501.927 7418762 7446907 7478761 7515000 7557278 7605561 7660055 7720121 
3505.785 7785390 7854684 7927228 8002181 8078936 8157426 8237788 8320832 
3509.642 8407542 8498728 8594902 8695593 8799993 8906244 9013062 9118791 
3513.500 9222514 9323994 9423093 9519505 9612890 9702704 9788604 9870421 
3517.357 9948389 10023284 10095411 10164566 10229695 10288896 10339757 
3520.732 10380071 10408103 10422459 10422594 10408137 10379290 10335991 
3524.107 10278379 10206967 10122407 10025522 9917030 9797179 9666586 9525127 
3527.965 9373658 9213341 9045303 8871545 8694309 8515082 8335525 8156785 
3531.822 7979198 7802628 7625928 7447244 7264320 7075175 6879515 6677987 
3535.680 6473829 6271010 6074401 5887487 5711631 5546116 5389118 5237743 
3539.537 5090276 4946111 4805175 4668908 4537371 4409656 4283952 4158051 
3543.395 4029812 3898234 3763387 3626477 3488608 3351217 3214937 3080603 
3547.252 2949112 2822063 2700619 2586275 2478960 2378134 2281395 2186610 
3551.109 2091844 1996933 1902409 1810102 1721673 1638018 1559234 1484387 
3554.967 1412445 1342942 1275743 1211245 1149216 1089454 1030397 970884 
3558.824 909686 846504 783066 721230 663286 610691 563677 521080 481372 
3563.164 442266 401903 358791 310543 255306 190297 114294 27170 -67455 
3567.503 -164048 -255520 -335650 -400538 -450124 -486896 -515557 -540212 
3571.361 -564402 -590146 -618073 -647453 -678187 -710342 -744248 -780069 
3575.218 -818103 -857589 -897303 -936417 -974140 -1011000 -1047494 -1084711 
3579.076 -1123809 -1164556 -1205894 -1246633 -1284824 -1318850 -1347655 
3582.451 -1370611 -1387489 -1399214 -1406843 -1412623 -1419591 -1431315 
3585.826 -1450965 -1481147 -1522025 -1571550 -1625228 -1677546 -1723422 
3589.201 -1759625 -1785298 -1801896 -1812620 -1821133 -1830635 -1844196 
3592.577 -1863266 -1888405 -1918887 -1952896 -1988354 -2023017 -2055172 
3595.952 -2083993 -2109021 -2130354 -2148686 -2164776 -2179249 -2192996 
3599.327 -2206744 -2221084 -2236148 -2251938 -2267430 -2281504 -2293073 
3602.702 -2301115 -2305268 -2306059 -2304312 -2301675 -2299665 -2300028 
3606.078 -2304049 -2313475 -2329030 -2351045 -2378957 -2410624 -2442980 
3609.453 -2472402 -2496254 -2513451 -2524717 -2532491 -2540463 -2551004 
3612.828 -2565629 -2583317 -2601893 -2617801 -2628241 -2632523 -2631436 
3616.203 -2628143 -2626463 -2630316 -2642864 -2665192 -2696475 -2734210 
3619.579 -2774444 -2812633 -2845453 -2870306 -2885940 -2893083 -2892622 
3622.954 -2885644 -2873301 -2855394 -2831628 -2801901 -2766510 -2727889 
3626.329 -2690680 -2662623 -2652809 -2669539 -2716364 -2788831 -2874321 
3629.704 -2955779 -3018961 -3057786 -3073315 -3071966 -3062294 -3051831 
3633.080 -3045711 -3045843 -3050943 -3058082 -3064268 -3067393 -3067130 
3636.455 -3065090 -3062721 -3061603 -3062162 -3063478 -3065090 -3065847 
3639.830 -3065814 -3065288 -3064992 -3064926 -3064366 -3061800 -3054661 
3643.205 -3040973 -3019685 -2991155 -2957589 -2922573 -2890417 -2864710 
3646.581 -2848646 -2843412 -2849338 -2865895 -2892227 -2927608 -2971312 
3649.956 -3020408 -3070782 -3115755 -3148881 -3164736 -3161940 -3142039 
3653.331 -3110722 -3075816 -3046007 -3029457 -3031003 -3051239 -3086048 
3656.706 -3127696 -3168354 -3201608 -3225190 -3239003 -3245219 -3245910 
3660.082 -3242752 -3237063 -3229137 -3220191 -3210949 -3202233 -3194569 
3663.457 -3187465 -3180262 -3170854 -3157762 -3139605 -3115886 -3087857 
3666.832 -3057622 -3029194 -3007444 -2998099 -3005864 -3032912 -3075816 
3670.207 -3126150 -3172170 -3202364 -3210028 -3194701 -3162598 -3123848 
3673.583 -3090522 -3074500 -3083284 -3118288 -3171808 -3230518 -3282545 
3676.958 -3320919 -3345481 -3360079 -3368792 -3373822 -3374348 -3368693 
3680.333 -3354819 -3333611 -3307799 -3282479 -3261629 -3247488 -3238280 
3683.708 -3229959 -3216770 -3194931 -3163815 -3126907 -3090686 -3063478 
3687.083 -3052292 -3061109 -3089206 -3131381 -3179768 -3227393 -3269588 
3690.459 -3305103 -3333973 -3356824 -3373888 -3384738 -3388880 -3387302 
3693.834 -3381088 -3372441 -3363301 -3355476 -3349393 -3344955 -3341371 
3697.209 -3337721 -3333348 -3328843 -3324569 -3322004 -3322267 -3326575 
3700.584 -3335518 -3348769 -3364682 -3380825 -3394469 -3403148 -3405318 
3703.960 -3401110 -3391181 -3377472 -3361723 -3344659 -3326476 -3305760 
3707.335 -3280999 -3250843 -3215685 -3177597 -3141118 -3112333 -3096904 
3710.710 -3099273 -3120393 -3157105 -3202989 -3249691 -3289023 -3315987 
3714.085 -3328153 -3326607 -3314376 -3295534 -3274126 -3253605 -3236306 
3717.461 -3223348 -3214567 -3209403 -3207101 -3207298 -3210192 -3215521 
3720.836 -3223907 -3234760 -3246863 -3259426 -3270870 -3281097 -3290042 
3724.211 -3298723 -3308062 -3318617 -3329764 -3339266 -3344462 -3342094 
3727.586 -3330126 -3308424 -3279157 -3245646 -3213120 -3186610 -3170098 
3730.962 -3165460 -3171940 -3185656 -3201411 -3214073 -3221704 -3225026 
3734.337 -3227722 -3233478 -3245482 -3263011 -3283268 -3301584 -3314606 
3737.712 -3320623 -3320261 -3314639 -3304478 -3288661 -3265181 -3231669 
3741.087 -3188386 -3138914 -3091147 -3057424 -3049561 -3075816 -3134670 
3744.463 -3210949 -3280538 -3322267 -3327134 -3298822 -3249132 -3192366 
3747.838 -3142039 -3107300 -3092496 -3097069 -3116841 -3145493 -3177696 
3751.213 -3210751 -3242654 -3271068 -3293067 -3305004 -3304379 -3291259 
3754.588 -3268108 -3239332 -3209666 -3183682 -3164407 -3153124 -3150427 
3757.964 -3155855 -3168913 -3188386 -3212758 -3238510 -3260610 -3274323 
3761.339 -3276099 -3265674 -3246008 -3222427 -3201246 -3187531 -3183715 
3764.714 -3189109 -3199898 -3211146 -3218448 -3220454 -3218086 -3214238 
3768.089 -3212199 -3214402 -3221506 -3232393 -3244364 -3254855 -3261662 
3771.465 -3263899 -3261531 -3255809 -3247916 -3239003 -3229926 -3220881 
3774.840 -3211475 -3201246 -3189669 -3177137 -3165098 -3156118 -3153190 
3778.215 -3158684 -3173288 -3195128 -3220158 -3243015 -3259163 -3266858 
3781.590 -3266496 -3260807 -3253506 -3247389 -3244035 -3243903 -3245449 
3784.966 -3247850 -3250415 -3253210 -3256696 -3260972 -3265280 -3268700 
3788.341 -3269851 -3268404 -3264721 -3260544 -3257354 -3255874 -3255512 
3791.716 -3254328 -3249757 -3240088 -3225552 -3208548 -3193385 -3183682 
3795.091 -3182367 -3189208 -3200325 -3209831 -3211968 -3202891 -3182630 
3798.467 -3155131 -3127400 -3108123 -3105228 -3123420 -3161940 -3213153 
3801.842 -3263537 -3298921 -3310693 -3296652 -3261991 -3216507 -3172367 
3805.217 -3141578 -3132729 -3148914 -3186182 -3233873 -3277875 -3307141 
3808.592 -3316611 -3306846 -3282808 -3250678 -3215422 -3179900 -3144769 
3811.968 -3109702 -3074796 -3041861 -3015012 -2999547 -3000402 -3020343 
3815.343 -3056865 -3101379 -3141973 -3167433 -3171578 -3154999 -3124308 
3818.718 -3089963 -3063083 -3053937 -3068940 -3108024 -3163716 -3222822 
3822.093 -3272416 -3303557 -3314277 -3308292 -3292410 -3273698 -3257190 
3825.469 -3245383 -3237523 -3230518 -3220651 -3205193 -3183255 -3156842 
3828.844 -3128782 -3102662 -3081475 -3066637 -3058247 -3054759 -3053937 
3832.219 -3053114 -3050285 -3043803 -3033405 -3020145 -3005963 -2994018 
3835.594 -2988490 -2992373 -3007970 -3034919 -3070025 -3107958 -3142763 
3838.969 -3169999 -3187629 -3196313 -3198418 -3196970 -3194701 -3193023 
3842.345 -3192859 -3194668 -3197858 -3201805 -3204996 -3206279 -3204009 
3845.720 -3196773 -3183913 -3165525 -3142039 -3113880 -3081804 -3045612 
3849.095 -3004779 -2959794 -2912337 -2866718 -2830410 -2812962 -2824320 
3852.470 -2870766 -2950744 -3051107 -3151907 -3233807 -3285636 -3306517 
3855.846 -3302768 -3282676 -3253441 -3220059 -3185458 -3151184 -3118354 
3859.221 -3087693 -3060714 -3038144 -3020507 -3007872 -2999908 -2996651 
3862.596 -2999020 -3008365 -3025278 -3048574 -3074039 -3095325 -3105228 
3865.971 -3098845 -3075717 -3040611 -3002870 -2973122 -2961637 -2974603 
3869.347 -3010833 -3062096 -3114241 -3155098 -3177959 -3183419 -3177499 
3872.722 -3169210 -3166085 -3171446 -3184472 -3199963 -3210751 -3210751 
3876.097 -3196970 -3171019 -3137499 -3103122 -3074960 -3058905 -3058247 
3879.472 -3072295 -3096181 -3122828 -3143519 -3151710 -3144967 -3124867 
3882.848 -3096839 -3067854 -3045908 -3037288 -3044724 -3066637 -3096542 
3886.223 -3125163 -3143322 -3145361 -3130328 -3101543 -3065551 -3029819 
3889.598 -3002047 -2988029 -2990497 -3007707 -3034129 -3061899 -3082824 
3892.973 -3091970 -3086870 -3068775 -3041171 -3008727 -2975919 -2946663 
3896.349 -2923626 -2908420 -2901410 -2901871 -2908519 -2919314 -2932117 
3899.724 -2945149 -2956997 -2967594 -2977433 -2987700 -3000007 -3015045 
3903.099 -3032747 -3051239 -3068643 -3082495 -3090983 -3093549 -3090884 
3906.474 -3083909 -3073973 -3061998 -3048738 -3034919 -3021132 -3008431 
3909.850 -2997375 -2988589 -2981349 -2974603 -2966310 -2954693 -2938864 
3913.225 -2919512 -2899172 -2881069 -2868857 -2864973 -2869943 -2882089 
3916.600 -2898283 -2914805 -2928563 -2937942 -2943241 -2945248 -2945084 
3919.975 -2943339 -2939522 -2933367 -2924712 -2914213 -2904109 -2896440 
3923.351 -2893412 -2895452 -2901673 -2909737 -2916583 -2919676 -2918031 
3926.726 -2911909 -2903582 -2894926 -2888244 -2884591 -2884196 -2886302 
3930.101 -2890219 -2895090 -2900653 -2906808 -2913160 -2919216 -2924416 
3933.476 -2927509 -2927970 -2925864 -2921585 -2915990 -2910165 -2904569 
3936.852 -2899402 -2894531 -2889298 -2883274 -2876823 -2870569 -2865664 
3940.227 -2863360 -2864710 -2869910 -2878073 -2887290 -2895288 -2899764 
3943.602 -2899172 -2893083 -2882846 -2870602 -2859312 -2851576 -2849469 
3946.977 -2853222 -2861978 -2873038 -2883932 -2892161 -2896012 -2895716 
3950.353 -2891997 -2886664 -2881200 -2876592 -2872610 -2869088 -2865105 
3953.728 -2860069 -2854111 -2847692 -2841602 -2836664 -2833010 -2830344 
3957.103 -2827974 -2825143 -2821127 -2816057 -2810691 -2805950 -2802658 
3960.478 -2801539 -2802296 -2804206 -2805819 -2805950 -2803909 -2799169 
3963.854 -2792288 -2784090 -2775399 -2766806 -2758443 -2749949 -2740828 
3967.229 -2731050 -2720348 -2709910 -2700592 -2693446 -2689132 -2687222 
3970.604 -2687025 -2686926 -2685543 -2682118 -2676487 -2669374 -2661800 
3973.979 -2654917 -2649187 -2644576 -2640361 -2636014 -2630415 -2623663 
3977.354 -2616154 -2608612 -2602025 -2597480 -2595273 -2595207 -2596953 
3980.730 -2599686 -2602387 -2604265 -2604956 -2603968 -2601498 -2598040 
3984.105 -2593890 -2589970 -2586742 -2584371 -2583119 -2582987 -2583679 
3987.480 -2585194 -2587401 -2590629 -2594746 -2599653 -2605088 -2610489 
3990.855 -2615068 -2617966 -2618987 -2617966 -2615298 -2611774 -2608480 
3994.231 -2606603 -2606834 -2609534 -2614508 -2620732 -2627089 -2632161 
3997.606 -2635059 -2635157 -2633313 -2630151 -2627451 -2626298 -2627649 
##END=
