
##TITLE=Z235b_2_c
##JCAMP-DX=5.01  $$ Nicolet v. 1
##DATATYPE=INFRARED SPECTRUM
##ORIGIN=UniL
##OWNER=Nicolet
##LONGDATE=2011/09/22
##TIME=11:20:17
##SPECTROMETER/DATA SYSTEM=Nicolet iS5
##DATA PROCESSING=
Ratio against background
%Transmittance->Absorbance
Truncated
ElementMultiply or ElementDivide
##COMMENTS=
Number of sample scans: 32
Collection length: 51.16 sec
Sample gain: 2.0
Background collected on: Jeu Sep 22 11:15:12 2011 (GMT+02:00);
Number of background scans: 32
Background gain: 2.0
Sample spacing:  1.000
Number of scan points: 12415
Resolution points: 8192
Number of FFT points: 65536
Apodization: N-B fort;
Phase correction: Mertz;
Laser frequency: 15798.0 cm-1
Number of rejected sample scans: 0
Number of rejected background scans: 0
Bench serial number: ASB1000141;
##RESOLUTION=4.000
##XUNITS=1/CM
##YUNITS=ABSORBANCE
##FIRSTX=649.893372
##LASTX=4000.122314
##FIRSTY=0.103685
##MAXX=4000.122314
##MINX=649.893372
##MAXY=0.248094
##MINY=-0.003636
##XFACTOR=1.000000
##YFACTOR=1.000000E-009
##NPOINTS=6950
##DELTAX=0.482117
##ZPD=6100
##XYDATA=(X++(Y..Y))
649.893 103685368 102477360 101431496 100553056 99822880 99211336 98695664 
653.268 98274000 97962048 97782480 97747368 97844864 98037824 98279032 
656.643 98527896 98765000 98998960 99255312 99560232 99925128 100341848 
660.018 100786840 101237768 101682504 102125064 102581032 103066216 
662.911 103586552 104135944 104699480 105262896 105818432 106359560 
665.803 106876024 107343928 107717720 107946056 108004648 107929784 
668.696 107806896 107731392 107758280 107884664 108069864 108253232 
671.589 108380360 108412256 108340736 108183304 107975408 107749312 
674.481 107521216 107289504 107041928 106766528 106461840 106134600 
677.374 105794128 105442088 105068720 104654736 104182352 103645816 
680.267 103054664 102431504 101798184 101168288 100540736 99904528 99247104 
683.642 98565888 97870888 97181504 96517512 95887544 95287776 94704752 
687.016 94125552 93545520 92973192 92425328 91920144 91466264 91059648 
690.391 90686280 90332112 89989656 89664120 89370216 89126256 88945384 
693.766 88831056 88777464 88775280 88819224 88910864 89059304 89275056 
697.141 89564984 89928752 90358760 90844672 91378824 91958672 92585344 
700.516 93259608 93975944 94720456 95474416 96219512 96944392 97648832 
703.890 98340736 99029008 99716064 100392536 101039192 101635904 102168320 
707.265 102635920 103051592 103436176 103809272 104183152 104563008 
710.158 104951328 105357144 105800928 106314736 106933832 107686984 
713.051 108579048 109585648 110646616 111680128 112591056 113288192 
715.943 113707352 113817792 113632448 113205240 112630776 112029888 
718.836 111524056 111230176 111232880 111571904 112239304 113176768 
721.729 114287112 115435536 116474976 117264840 117680984 117649616 
724.621 117157808 116264896 115087904 113783168 112515576 111409704 
727.514 110539840 109920200 109518320 109277016 109140328 109071960 
730.407 109055440 109087680 109166536 109280384 109407304 109523992 
733.300 109613376 109674448 109720856 109774264 109851320 109955912 
736.192 110077704 110199560 110306632 110394384 110470392 110549584 
739.085 110645416 110762384 110895304 111032760 111165416 111289896 
741.978 111409704 111530392 111653696 111774112 111881576 111967408 
744.870 112031816 112087104 112153672 112251664 112389792 112561552 
747.763 112747728 112925000 113075912 113197672 113300152 113399816 
750.656 113508976 113629952 113754232 113870112 113969304 114052976 
753.548 114131048 114215216 114311560 114415808 114515216 114595712 
756.441 114651528 114688080 114720312 114764976 114832168 114920192 
759.334 115019104 115116536 115206896 115295208 115394600 115516800 
762.227 115666224 115835608 116010984 116180072 116342336 116510544 
765.119 116709480 116964840 117293224 117699760 118178952 118722216 
768.012 119324200 119985976 120714656 121524056 122438984 123505432 
770.905 124809096 126466464 128610584 131346184 134680208 138461696 
773.797 142334496 145799680 148252256 149137488 148132128 145211536 
776.690 140687200 135079888 129024952 123088456 117646968 112893896 
779.583 108829928 105337088 102242320 99389536 96672136 94034240 91465688 
782.958 88980968 86605896 84368232 82297144 80423112 78772488 77364864 
786.332 76209008 75301176 74630912 74189312 73976952 74007912 74307560 
789.707 74903112 75819064 77071008 78667112 80614712 82926424 85621264 
793.082 88718736 92224216 96112552 100305784 104673760 109026728 113113304 
796.457 116661016 119374960 120968576 121221416 119994888 117275992 
799.350 113183392 107963472 101952520 95505912 88989136 82715008 76911656 
802.724 71739656 67274672 63524104 60447804 57976876 56033132 54537816 
806.099 53426904 52650624 52170728 51958404 51983764 52206560 52575448 
809.474 53021012 53460628 53814308 54006824 53981720 53708220 53178836 
812.849 52407860 51424292 50270668 48996276 47651952 46291532 44962928 
816.224 43704724 42546444 41503952 40582172 39778708 39087476 38501996 
819.598 38018236 37634544 37350268 37165388 37079964 37094976 37214772 
822.973 37447200 37804948 38302912 38953756 39764656 40731060 41833864 
826.348 43033156 44267804 45458652 46503460 47295532 47736152 47746732 
829.723 47293612 46394240 45119024 43573496 41884692 40181892 38567068 
833.098 37116232 35871100 34841796 34014796 33361398 32846190 32429300 
836.473 32072742 31745772 31425032 31099692 30770644 30448068 30145724 
839.847 29875286 29642794 29446558 29279828 29134776 29007094 28897828 
843.222 28812134 28756444 28735132 28747984 28791104 28858838 28946490 
846.597 29052614 29178538 29326226 29497230 29690438 29903256 30133648 
849.972 30381292 30648240 30938446 31255764 31601890 31976968 32380786 
853.347 32814816 33284944 33801140 34374820 35017280 35736204 36535424 
856.721 37416932 38383804 39442772 40607164 41895528 43327476 44925188 
860.096 46708708 48696464 50905396 53347468 56023820 58915492 61975912 
863.471 65125948 68248168 71206976 73860480 76075552 77758416 78861712 
866.846 79394760 79419424 79046544 78421632 77692432 77006280 76485488 
870.221 76211656 76231520 76552824 77151384 77974936 78949128 79984152 
873.596 80966144 81770288 82270112 82340728 81890536 80872728 79296432 
876.970 77226576 74774392 72084880 69303672 66573024 64018136 61730668 
880.345 59778376 58201252 57011756 56199672 55731924 55559272 55615464 
883.720 55828108 56129156 56455696 56761256 57018708 57217944 57367128 
887.095 57487692 57612832 57779068 58020996 58366732 58829816 59409820 
890.470 60092036 60855132 61675368 62534420 63424012 64344748 65304256 
893.844 66310892 67370552 68480440 69626648 70778328 71883632 72870616 
897.219 73637136 74066224 74039544 73448704 72227400 70363264 67907416 
900.594 64964764 61682964 58235920 54786320 51483336 48446488 45752560 
903.969 43447244 41544860 40036204 38895620 38087352 37573844 37318024 
907.344 37289788 37469844 37847388 38419892 39188456 40155032 41319336 
910.719 42677620 44220512 45931920 47784604 49733684 51719464 53664500 
914.093 55481372 57093184 58440792 59499032 60282140 60843964 61269788 
917.468 61657264 62114964 62742256 63615776 64787900 66272520 68042328 
920.843 70022680 72103032 74152600 76033752 77642400 78926480 79903536 
924.218 80660472 81347224 82161648 83303616 84967072 87308616 90415176 
927.593 94292088 98834600 103830856 108928576 113663440 117528296 119983008 
930.967 120581536 119059248 115372208 109735144 102572472 94477592 86067408 
934.342 77904440 70456240 64013996 58723064 54604428 51589408 49562064 
937.717 48390220 47957372 48155532 48880420 50023692 51442308 52955728 
941.092 54365488 55451216 56018616 55936600 55148532 53692808 51685948 
944.467 49310292 46765084 44234564 41873488 39777512 37991656 36519348 
947.841 35336192 34404120 33681028 33130218 32718380 32415986 32198578 
951.216 32043490 31931210 31847696 31782846 31731512 31692840 31668070 
954.591 31660012 31671240 31704422 31761456 31843490 31951144 32084014 
957.966 32240726 32419268 32617532 32833896 33067640 33319108 33589552 
961.341 33880260 34191956 34524536 34876732 35246812 35633504 36036092 
964.716 36455092 36891484 37346588 37820960 38314312 38825868 39355264 
968.090 39902768 40470172 41059876 41674672 42316348 42985304 43681456 
971.465 44404712 45156228 45939360 46759036 47620892 48529588 49487756 
974.840 50496160 51554332 52662108 53821432 55036736 56313576 57659184 
978.215 59080144 60583244 62176940 63872180 65683864 67631464 69735736 
981.590 72016592 74490344 77166224 80045104 83116608 86358648 89729824 
984.964 93163360 96569728 99826760 102787448 105305840 107239152 108478696 
988.339 108969072 108712280 107772544 106263528 104347608 102206896 
991.232 100023736 97978112 96214384 94838120 93916504 93473312 93499568 
994.607 93962368 94818048 96019288 97520072 99282792 101272744 103457656 
997.982 105808024 108292352 110877264 113528464 116202760 118846224 
1000.874 121393632 123760680 125854376 127583936 128866032 129645112 
1003.767 129899920 129648808 128947544 127886472 126588584 125187624 
1006.660 123827912 122652600 121778936 121303904 121292992 121778632 
1009.552 122769152 124254152 126214416 128625544 131462272 134699504 
1012.445 138307040 142250768 146494640 150997664 155720624 160622912 
1015.338 165652480 170740304 175787216 180650592 185162656 189136464 
1018.231 192389552 194788368 196263120 196833040 196602528 195764208 
1021.123 194578672 193323712 192295648 191758752 191908416 192877456 
1024.016 194714848 197396800 200837200 204909712 209469648 214350976 
1026.909 219389088 224418672 229263248 233759008 237756752 241135872 
1029.802 243827472 245815408 247136576 247863344 248094112 247939472 
1032.695 247501536 246878640 246149552 245360384 244516656 243571184 
1035.588 242430112 240953600 238986928 236392160 233058992 228933456 
1038.481 224017120 218361504 212056752 205223056 198008448 190568528 
1041.374 183066688 175663808 168492112 161659888 155243664 149285632 
1044.267 143808304 138819472 134318096 130301208 126762672 123693712 
1047.160 121082840 118916624 117182024 115867192 114962368 114457256 
1050.053 114336352 114576120 115142368 115989048 117066344 118323816 
1052.947 119713256 121194912 122729424 124270912 125764344 127135944 
1055.840 128294632 129147424 129599336 129571912 129017056 127919432 
1058.733 126305256 124239864 121832888 119225168 116573032 114048704 
1061.626 111808952 109985240 108683592 107969544 107874136 108397208 
1064.519 109511536 111165032 113281096 115768640 118515656 121396000 
1067.412 124288472 127073216 129647192 131934776 133878904 135442176 
1070.305 136601520 137341008 137652784 137537024 137004976 136080320 
1073.198 134798416 133210080 131377696 129377456 127304584 125261800 
1076.091 123359704 121709512 120402864 119511680 119080048 119120664 
1078.984 119619416 120535744 121811480 123363400 125087784 126869528 
1081.877 128576144 130081160 131286520 132133040 132623184 132819728 
1084.770 132845728 132856440 133018840 133500384 134434992 135919072 
1087.663 138002928 140680880 143887856 147490896 151309280 155104976 
1090.556 158607920 161565664 163747424 164987392 165205360 164403856 
1093.449 162664896 160125248 156968944 153391728 149574112 145679408 
1096.343 141824192 138078384 134471168 130994592 127617848 124296064 
1099.236 120984592 117642968 114239656 110758368 107199456 103584408 
1102.129 99953624 96369024 92907208 89644696 86658288 84013032 81753568 
1105.504 79911216 78501024 77525608 76980136 76854272 77133136 77796544 
1108.879 78818328 80165472 81793768 83652096 85678080 87795232 89919672 
1112.254 91953840 93789992 95326656 96468400 97141312 97305112 96951272 
1115.630 96104528 94812976 93145128 91178536 88990360 86659816 84257184 
1119.005 81839448 79453800 77132424 74896184 72759696 70733480 68828048 
1122.380 67054844 65423688 63941696 62611036 61429188 60390952 59493332 
1125.755 58739108 58140756 57719576 57500668 57510012 57765484 58272368 
1129.131 59020508 59984552 61127684 62400280 63746072 65104120 66405700 
1132.506 67585080 68583672 69356064 69882664 70172352 70264584 70219520 
1135.881 70112696 70022632 70013024 70129672 70391272 70787136 71278424 
1139.256 71802352 72284928 72641672 72793232 72676488 72243368 71469232 
1142.632 70349744 68898016 67140728 65114552 62867232 60450928 57922088 
1146.007 55340624 52760232 50229488 47789264 45468032 43285816 41254004 
1149.382 39377356 37656372 36089452 34673808 33406160 32283232 31301626 
1152.757 30457948 29749480 29174002 28730530 28418132 28235776 28181962 
1156.133 28254554 28451384 28771596 29216280 29788832 30494202 31337168 
1159.508 32320886 33445380 34707544 36099928 37610952 39225228 40919612 
1162.883 42663072 44418364 46137964 47770368 49265200 50571912 51647468 
1166.258 52458108 52978564 53196140 53110760 52735764 52095672 51224000 
1169.634 50161276 48946840 47619744 46216456 44767984 43304012 41852144 
1173.009 40436824 39081676 37807120 36628780 35558772 34604192 33768508 
1176.384 33052548 32455902 31977468 31615716 31368508 31233296 31206948 
1179.759 31286884 31471628 31760958 32155830 32657254 33265342 33978572 
1183.135 34794944 35712892 36733444 37861160 39104188 40471920 41972964 
1186.510 43611444 45384488 47279424 49271840 51326464 53391908 55405740 
1189.885 57298844 58996484 60435312 61570512 62382608 62881940 63105800 
1193.260 63112156 62964244 62724604 62446456 62163668 61894672 61641300 
1196.635 61394304 61137032 60849912 60515256 60116044 59637676 59066968 
1200.011 58389776 57591760 56660144 55585708 54368344 53018880 51562992 
1203.386 50036708 48483684 46951624 45481204 44105740 42847636 41716800 
1206.761 40714248 39833652 39066196 38400996 37827140 37335356 36915976 
1210.136 36560292 36261804 36015968 35821296 35679908 35596388 35577004 
1213.512 35628220 35756748 35967696 36264904 36650808 37125364 37686148 
1216.887 38327160 39040712 39817204 40647624 41524988 42444644 43404000 
1220.262 44401300 45435140 46503904 47607396 48748504 49935032 51179156 
1223.637 52498416 53911416 55435104 57082944 58861272 60768764 62793060 
1227.013 64911740 67088596 69271104 71396280 73388864 75165440 76649104 
1230.388 77768408 78466288 78709368 78488952 77828656 76782696 75442280 
1233.763 73926080 72364224 70901264 69672824 68794152 68367096 68467248 
1237.138 69148768 70451248 72397648 74997496 78242504 82104560 86527400 
1240.514 91418040 96657104 102086328 107513992 112739352 117539456 121694648 
1243.889 125019192 127363760 128646224 128859792 128072664 126415760 
1246.782 124057912 121205864 118070008 114849440 111731168 108855000 
1249.675 106304960 104099640 102187056 100453240 98737216 96876424 94725192 
1253.050 92188608 89243600 85936336 82373648 78690064 75037232 71552400 
1256.426 68334640 65448188 62912188 60708176 58787288 57082224 55520040 
1259.801 54024908 52533940 51000516 49395412 47709936 45952140 44142928 
1263.176 42309552 40482832 38693568 36967748 35327640 33791144 32369826 
1266.551 31071076 29897150 28845490 27909916 27081788 26352218 25712804 
1269.927 25156270 24676620 24267074 23920964 23630406 23387666 23186476 
1273.302 23022236 22891692 22792162 22719988 22669578 22634216 22606814 
1276.677 22581718 22556346 22530800 22507454 22489516 22479816 22480582 
1280.052 22492728 22516770 22551390 22593342 22635228 22665702 22670554 
1283.427 22635228 22549016 22409334 22223802 22008510 21786706 21584794 
1286.803 21426520 21331708 21315908 21389414 21560208 21834368 22215782 
1290.178 22706060 23302740 23999148 24783212 25636666 26536846 27452308 
1293.553 28345548 29175986 29899492 30479132 30889952 31123256 31188970 
1296.928 31112898 30933074 30689276 30420028 30158936 29929628 29749726 
1300.304 29630092 29575008 29582598 29643964 29744900 29865276 29983448 
1303.679 30080238 30138834 30148068 30100904 29993742 29825526 29598098 
1307.054 29317508 28993844 28641934 28280084 27926558 27597188 27304126 
1310.429 27054704 26853358 26703654 26608986 26573938 26601872 26694282 
1313.805 26849166 27062074 27327414 27640690 27999390 28403486 28853528 
1317.180 29349270 29888914 30469000 31086344 31739250 32427694 33151816 
1320.555 33909528 34692904 35487356 36270236 37012484 37684592 38258184 
1323.930 38712404 39038864 39245792 39360268 39424704 39496436 39636824 
1327.306 39897104 40313008 40891908 41611764 42422720 43259276 44055460 
1330.681 44752776 45316404 45736064 46026512 46220176 46361616 46501508 
1334.056 46685684 46955464 47342384 47864432 48526512 49318796 50221084 
1337.431 51203944 52233876 53279140 54308680 55295312 56217396 57057436 
1340.807 57803900 58451068 58996140 59436796 59767240 59973904 60036828 
1344.182 59930272 59626312 59102960 58346760 57356164 56141300 54723288 
1347.557 53132552 51404596 49582788 47716404 45856392 44060264 42386188 
1350.932 40887612 39614828 38606284 37885600 37463560 37337632 37494804 
1354.308 37911376 38555260 39382544 40333844 41342000 42331544 43225532 
1357.683 43960452 44486048 44772320 44811696 44617300 44222712 43675816 
1361.058 43043476 42404672 41841236 41436256 41255460 41336028 41685400 
1364.433 42282016 43086064 44046032 45109244 46221908 47324316 48356480 
1367.809 49255808 49960904 50424596 50615280 50522552 50156556 49545980 
1371.184 48735416 47778244 46741028 45698148 44723360 43890540 43257888 
1374.559 42857984 42696188 42752016 42992368 43381264 43892960 44515380 
1377.934 45250100 46109592 47114532 48292376 49672348 51282352 53138880 
1381.310 55231864 57507252 59852528 62111944 64085612 65566240 66381336 
1384.685 66399096 65561152 63894212 61528588 58690596 55660580 52740816 
1388.060 50165556 48066028 46473076 45337184 44569308 44067524 43744008 
1391.435 43526024 43354936 43186916 42985672 42723028 42383812 41967600 
1394.811 41489624 40974484 40447952 39928524 39423756 38934364 38460256 
1398.186 38005468 37582948 37211556 36909700 36690428 36556688 36502840 
1401.561 36519132 36597060 36732508 36927232 37187480 37522184 37938932 
1404.936 38440456 39024504 39683148 40406168 41182956 42004864 42866032 
1408.312 43761376 44685896 45633440 46595816 47564288 48531552 49491432 
1411.687 50438364 51365212 52258764 53100800 53870004 54545820 55117568 
1415.062 55586880 55968596 56285400 56562872 56825304 57091708 57380212 
1418.437 57710004 58099540 58565828 59115412 59739328 60416236 61117692 
1421.813 61818296 62498568 63152776 63788668 64425408 65086112 65788984 
1425.188 66542468 67343928 68184120 69053056 69944048 70851728 71768352 
1428.563 72679856 73561800 74381608 75107776 75716568 76201224 76574040 
1431.938 76864984 77114464 77363048 77651112 78015024 78491416 79125928 
1435.313 79973392 81092920 82534376 84311824 86396880 88726904 91222680 
1438.689 93799376 96359800 98796656 100970464 102718608 103890872 104357800 
1442.064 104045872 102947264 101111288 98630216 95613424 92184808 88460352 
1445.439 84537472 80506448 76449568 72457040 68646040 65148004 62088780 
1448.814 59562308 57602956 56193824 55284208 54819024 54751892 55046888 
1452.190 55673724 56591824 57746788 59082232 60538792 62068788 63642480 
1455.565 65236792 66833652 68408480 69934624 71385024 72740336 73997424 
1458.940 75160400 76238696 77244672 78193464 79101240 79980520 80836288 
1462.315 81657744 82415304 83068464 83574608 83909912 84084000 84141992 
1465.691 84145368 84143072 84159080 84186032 84197168 84155496 84023920 
1469.066 83765072 83329832 82651392 81642112 80203688 78267576 75838752 
1472.441 73027552 70022208 67025648 64185388 61561996 59155848 56947080 
1475.816 54931704 53137308 51614332 50408072 49545164 49021980 48815312 
1479.192 48898812 49259888 49904776 50855252 52134564 53754304 55706948 
1482.567 57970100 60517044 63326516 66392304 69717136 73298872 77118184 
1485.942 81114048 85168312 89116256 92735616 95768880 97963296 99084360 
1489.317 98972528 97590496 95049016 91596064 87544296 83211504 78836440 
1492.693 74552496 70418792 66433072 62574640 58842032 55264792 51910568 
1496.068 48869704 46221984 44009840 42226540 40834172 39779980 39016496 
1499.443 38511740 38244800 38200656 38365016 38720336 39245720 39919480 
1502.818 40713632 41593972 42517024 43411176 44174804 44671608 44739444 
1506.194 44247512 43158408 41558420 39612068 37481116 35273228 33037640 
1509.569 30796254 28569560 26385384 24289500 22334086 20559022 18989862 
1512.944 17629136 16462650 15468086 14621650 13902195 13289380 12764500 
1516.319 12312341 11922734 11593704 11329402 11134502 11007789 10939009 
1519.695 10907750 10890795 10870853 10846391 10834740 10863106 10952465 
1523.070 11105573 11309166 11541913 11786053 12033090 12288345 12566499 
1526.445 12885788 13257029 13679670 14143730 14636420 15149432 15680846 
1529.820 16236505 16825148 17454566 18128872 18847340 19604680 20393308 
1533.196 21204246 22028030 22854218 23673232 24474760 25248796 25983478 
1536.571 26665954 27285286 27828906 28286450 28648622 28907462 29054776 
1539.946 29084250 28997884 28809126 28542102 28224602 27876068 27501832 
1543.321 27093320 26634844 26115306 25538050 24924502 24307056 23714978 
1546.697 23160682 22636832 22121670 21591130 21030564 20445678 19860262 
1550.072 19308888 18818068 18395998 18031358 17703020 17391518 17088682 
1553.447 16800970 16545046 16337642 16184054 16074013 15982427 15876973 
1556.822 15719665 15470729 15096358 14581798 13951086 13271410 12625781 
1560.198 12072913 11629404 11280974 10999428 10754813 10520587 10277530 
1563.573 10017214 9743636 9472058 9222141 9010965 8843714 8713104 8602506 
1567.430 8494167 8375180 8241772 8100810 7966272 7852626 7768119 7713578 
1571.288 7685045 7677457 7687035 7710576 7744136 7780398 7809241 7820710 
1575.145 7809679 7782118 7755537 7753986 7795038 7884511 8017471 8184639 
1579.002 8379369 8600546 8853487 9146842 9488652 9882962 10327542 10814731 
1582.860 11333449 11869065 12403875 12917259 13382965 13773851 14066271 
1586.235 14244003 14304644 14261466 14144893 13996562 13865556 13803710 
1589.610 13854267 14051487 14415745 14950684 15639557 16441178 17294168 
1592.986 18114052 18803882 19275598 19453328 19294652 18797168 17999930 
1596.361 16974450 15806112 14585636 13387953 12266838 11258974 10383091 
1599.736 9645073 9041648 8563303 8196795 7928072 7747307 7649500 7634864 
1603.594 7706293 7866223 8112659 8438420 8829410 9265195 9720323 10161716 
1607.451 10550970 10848939 11016829 11024985 10858044 10517735 10024538 
1610.826 9414729 8738121 8044911 7378184 6768811 6229362 5759139 5348460 
1614.684 4984720 4656014 4354397 4078909 3833580 3625542 3462255 3347143 
1618.541 3279132 3252291 3257132 3281569 3313554 3342235 3361001 3369348 
1622.398 3373055 3381103 3401339 3437574 3487673 3546229 3608502 3672220 
1626.256 3737853 3807841 3883390 3964269 4047938 4132326 4217066 4304599 
1630.113 4399045 4503890 4620012 4743971 4868768 4985893 5087394 5167323 
1633.971 5223591 5257329 5273595 5279028 5281476 5288251 5304049 5331017 
1637.828 5368151 5411998 5456588 5495141 5522457 5535947 5537927 5534538 
1641.686 5533263 5539438 5553701 5570783 5581557 5575952 5545747 5487961 
1645.543 5406462 5312032 5218628 5139661 5085114 5059401 5063089 5093394 
1649.400 5146065 5213430 5283824 5341080 5363857 5330145 5229661 5078509 
1653.258 4920775 4803233 4749665 4752915 4790100 4837976 4880463 4910621 
1657.115 4927377 4933577 4932605 4925869 4911895 4887365 4848396 4792746 
1660.973 4720489 4633743 4536165 4431848 4325414 4221114 4123596 4036668 
1664.830 3962329 3899504 3844110 3789424 3726357 3646925 3546062 3423848 
1668.688 3285643 3140973 3000522 2872324 2760670 2666680 2589442 2526482 
1672.545 2473462 2423846 2368572 2297483 2204226 2089114 1963082 1841878 
1676.402 1740701 1666023 1614903 1577623 1542740 1502208 1454100 1403105 
1680.260 1357400 1323998 1303858 1289634 1265873 1214800 1122373 987754 
1684.117 828378 673673 549876 466147 416130 385884 362869 338297 308554 
1688.457 273176 233359 190396 145482 100672 59744 26872 5964 -2286 -1855 
1693.279 -2551 -16732 -56986 -129932 -230617 -340517 -436421 -502253 -536142 
1697.618 -549776 -561623 -591503 -654566 -753906 -876901 -998042 -1093536 
1701.476 -1151834 -1177344 -1182169 -1179889 -1181376 -1192941 -1217690 
1704.851 -1254728 -1300021 -1346730 -1388414 -1419525 -1437590 -1443501 
1708.226 -1440034 -1431877 -1422960 -1415463 -1409749 -1403342 -1393335 
1711.601 -1377283 -1354525 -1326118 -1294339 -1261137 -1228428 -1196411 
1714.977 -1166242 -1140234 -1123281 -1120901 -1137128 -1170273 -1212205 
1718.352 -1249639 -1271478 -1272304 -1253571 -1222282 -1187125 -1155832 
1721.727 -1133063 -1120042 -1114886 -1114655 -1116671 -1120141 -1124999 
1725.102 -1132071 -1141060 -1151140 -1160723 -1169777 -1179162 -1191388 
1728.478 -1208636 -1230939 -1255818 -1278349 -1294074 -1301805 -1305438 
1731.853 -1314457 -1342898 -1402516 -1498219 -1621002 -1749824 -1858812 
1735.228 -1932115 -1968399 -1977371 -1972885 -1966750 -1967574 -1978756 
1738.603 -1999337 -2024732 -2049566 -2068857 -2079410 -2080729 -2073276 
1741.979 -2058371 -2037561 -2012629 -1985451 -1957481 -1929377 -1900281 
1745.354 -1868511 -1832516 -1791337 -1745501 -1697283 -1649622 -1605124 
1748.729 -1565178 -1530313 -1499738 -1473255 -1450667 -1432273 -1416949 
1752.104 -1402880 -1387456 -1368827 -1347126 -1325061 -1308412 -1303225 
1755.479 -1315085 -1345805 -1392146 -1446638 -1500497 -1547614 -1586505 
1758.855 -1619715 -1652923 -1691606 -1738471 -1793185 -1851652 -1908463 
1762.230 -1958570 -1998908 -2029020 -2049730 -2062394 -2068494 -2069715 
1765.605 -2068000 -2065790 -2065659 -2068429 -2072913 -2075749 -2073309 
1768.980 -2063383 -2046927 -2028789 -2015234 -2012464 -2022787 -2043234 
1772.356 -2065592 -2080399 -2081685 -2068989 -2046532 -2020247 -1995049 
1775.731 -1972159 -1950224 -1925583 -1895927 -1860791 -1823211 -1787047 
1779.106 -1757513 -1737316 -1726458 -1722762 -1722300 -1722696 -1722102 
1782.481 -1720914 -1719660 -1718736 -1717746 -1715733 -1711607 -1705699 
1785.857 -1698372 -1690484 -1682332 -1672991 -1661141 -1645958 -1628265 
1789.232 -1611000 -1598885 -1597168 -1609812 -1637936 -1678866 -1726558 
1792.607 -1775267 -1819813 -1858515 -1892166 -1922746 -1951874 -1980405 
1795.982 -2008341 -2036572 -2065758 -2097183 -2132267 -2170908 -2211194 
1799.358 -2250289 -2284570 -2311629 -2331140 -2344916 -2355659 -2365578 
1802.733 -2375827 -2385812 -2394115 -2399618 -2402189 -2402386 -2401266 
1806.108 -2399289 -2396422 -2391842 -2385053 -2376123 -2366830 -2358822 
1809.483 -2353682 -2350946 -2348639 -2344256 -2335193 -2321187 -2304246 
1812.859 -2287602 -2274385 -2266078 -2261464 -2257179 -2249235 -2234302 
1816.234 -2211227 -2181062 -2146477 -2110274 -2074661 -2040760 -2009264 
1819.609 -1981131 -1957481 -1939702 -1928552 -1923571 -1923472 -1926441 
1822.984 -1931356 -1937986 -1947487 -1960582 -1976744 -1993928 -2008407 
1826.360 -2016949 -2018301 -2014443 -2009594 -2009264 -2017114 -2033505 
1829.735 -2054314 -2073012 -2083070 -2081256 -2068330 -2048741 -2027305 
1833.110 -2007220 -1989377 -1972060 -1952006 -1926507 -1894244 -1855413 
1836.485 -1811663 -1763948 -1712498 -1656454 -1595022 -1527638 -1454828 
1839.861 -1378109 -1298633 -1217260 -1134253 -1049808 -964586 -880207 
1843.236 -798425 -720134 -643979 -565825 -480939 -385575 -279163 -165108 
1847.093 -49532 59976 157746 239857 305470 355574 391456 413046 418983 
1851.433 407308 376764 328780 267208 197358 123939 49637 -25943 -105022 
1855.772 -190478 -283667 -383886 -488452 -594249 -698764 -800575 -899320 
1859.630 -993810 -1082232 -1161648 -1229485 -1284990 -1329784 -1368332 
1863.005 -1405158 -1443501 -1483326 -1521662 -1553953 -1576271 -1587264 
1866.380 -1588981 -1586142 -1583105 -1583204 -1586769 -1590830 -1592943 
1869.756 -1591094 -1585581 -1578153 -1571220 -1565706 -1561480 -1557981 
1873.131 -1554448 -1551609 -1550651 -1553490 -1560589 -1570922 -1582576 
1876.506 -1593141 -1602087 -1610538 -1621630 -1638630 -1662990 -1694082 
1879.881 -1728571 -1762661 -1793977 -1822419 -1850431 -1881609 -1918623 
1883.257 -1961142 -2006131 -2049269 -2085906 -2114033 -2134377 -2149115 
1886.632 -2161413 -2173216 -2184721 -2195304 -2204601 -2212315 -2219666 
1890.007 -2227512 -2235390 -2241686 -2243433 -2238423 -2226127 -2208260 
1893.382 -2188711 -2170545 -2155709 -2143081 -2129431 -2110835 -2085114 
1896.758 -2052402 -2015366 -1977371 -1940625 -1905428 -1870161 -1833341 
1900.133 -1794735 -1756127 -1721013 -1692597 -1671902 -1657676 -1645232 
1903.508 -1630542 -1610934 -1586637 -1560391 -1535629 -1514959 -1498483 
1906.883 -1484152 -1470382 -1456347 -1443964 -1437028 -1439472 -1452781 
1910.259 -1475467 -1503865 -1533317 -1560292 -1584029 -1605520 -1626251 
1913.634 -1646684 -1665994 -1681771 -1692993 -1701244 -1710419 -1726524 
1917.009 -1754411 -1794999 -1844757 -1896290 -1942572 -1979580 -2008803 
1920.384 -2035187 -2064966 -2102426 -2147730 -2196821 -2243796 -2283548 
1923.760 -2313936 -2336347 -2353385 -2367951 -2380835 -2390359 -2395038 
1927.135 -2395137 -2392830 -2392402 -2397773 -2410426 -2428186 -2446868 
1930.510 -2461398 -2469338 -2471941 -2472962 -2476981 -2486569 -2499845 
1933.885 -2513022 -2521423 -2522246 -2516251 -2507159 -2498923 -2493882 
1937.260 -2490522 -2485185 -2473588 -2454248 -2429109 -2403012 -2381758 
1940.636 -2368775 -2364194 -2365314 -2367984 -2370356 -2373157 -2379023 
1944.011 -2390260 -2406736 -2425089 -2440377 -2448021 -2446374 -2437807 
1947.386 -2426704 -2416259 -2406966 -2394115 -2371971 -2336017 -2286778 
1950.761 -2230445 -2176677 -2134278 -2107570 -2093985 -2086203 -2076970 
1954.137 -2062361 -2044883 -2031988 -2032582 -2052468 -2091940 -2145026 
1957.512 -2202161 -2254542 -2296830 -2326921 -2345871 -2355428 -2353879 
1960.887 -2339873 -2312552 -2273495 -2229523 -2189436 -2159665 -2143345 
1964.262 -2138037 -2137575 -2135399 -2128706 -2119375 -2111593 -2110076 
1967.638 -2115022 -2122012 -2124485 -2116671 -2097282 -2071363 -2045245 
1971.013 -2026480 -2017147 -2013123 -2008044 -1995676 -1973610 -1945112 
1974.388 -1914862 -1885667 -1853863 -1810937 -1745699 -1650711 -1529586 
1977.763 -1396406 -1272039 -1176485 -1121595 -1108838 -1131311 -1176254 
1981.139 -1232657 -1293249 -1354096 -1413911 -1470118 -1518823 -1555405 
1984.514 -1576898 -1584062 -1581751 -1576997 -1575611 -1578879 -1584227 
1987.889 -1585482 -1578252 -1561513 -1539359 -1517568 -1502214 -1494553 
1991.264 -1491317 -1485539 -1470481 -1444063 -1409155 -1372427 -1341775 
1994.640 -1320964 -1310195 -1305240 -1300615 -1292489 -1280332 -1265828 
1998.015 -1252250 -1240950 -1231930 -1223505 -1215443 -1209099 -1208901 
2001.390 -1220399 -1246633 -1287467 -1337679 -1387951 -1429664 -1455918 
2004.765 -1463612 -1454069 -1430490 -1396175 -1354657 -1310394 -1267546 
2008.141 -1232955 -1213130 -1211478 -1226908 -1253406 -1281851 -1302597 
2011.516 -1310195 -1305240 -1292621 -1280199 -1272039 -1269198 -1267249 
2014.891 -1260311 -1243164 -1214980 -1177411 -1135211 -1092214 -1048717 
2018.266 -1004059 -957412 -910033 -867179 -835763 -820418 -821146 -832721 
2022.124 -845651 -849685 -840624 -819294 -794126 -774380 -767004 -774843 
2025.981 -795019 -821840 -850611 -880670 -912909 -950535 -993282 -1037875 
2029.839 -1078729 -1108937 -1125164 -1126751 -1117101 -1099188 -1073242 
2033.214 -1036751 -985248 -917406 -836358 -752021 -675475 -616617 -578896 
2037.071 -558115 -545011 -529622 -506919 -477795 -448668 -427583 -419671 
2040.929 -425299 -439995 -457207 -472300 -484116 -494608 -506853 -521481 
2044.786 -536241 -545739 -545242 -531641 -507217 -476504 -445523 -418744 
2048.644 -398982 -387197 -385012 -396135 -425100 -475014 -546003 -630480 
2052.501 -717884 -794026 -847503 -873693 -875710 -863012 -846742 -836358 
2056.358 -835069 -840790 -849322 -856961 -863211 -871015 -883580 -902229 
2060.216 -925011 -946237 -958734 -957908 -941708 -913141 -877000 -837185 
2064.073 -796308 -754799 -712889 -671935 -635641 -608841 -595341 -596533 
2067.931 -609702 -628826 -648379 -664657 -677790 -691189 -708953 -733828 
2071.788 -765615 -799913 -831695 -857027 -874255 -885498 -893765 -902725 
2075.646 -913802 -926664 -940087 -952816 -965346 -978669 -993711 -1010505 
2079.503 -1026768 -1039561 -1046601 -1047329 -1043660 -1039230 -1037677 
2082.878 -1041015 -1048618 -1058336 -1067987 -1076283 -1084546 -1095618 
2086.253 -1111978 -1135079 -1163664 -1195386 -1226875 -1256247 -1283338 
2089.629 -1309237 -1334904 -1360570 -1384648 -1404993 -1419525 -1428409 
2093.004 -1432273 -1433462 -1432999 -1430490 -1423521 -1409947 -1388843 
2096.379 -1362056 -1334277 -1311054 -1296189 -1289780 -1288822 -1287467 
2099.754 -1281653 -1270024 -1254430 -1239662 -1230377 -1228527 -1232327 
2103.130 -1237151 -1238175 -1231369 -1216732 -1196146 -1173280 -1150974 
2106.505 -1129956 -1109698 -1089405 -1068285 -1047824 -1029975 -1015496 
2109.880 -1003893 -992158 -976554 -954139 -924945 -891946 -860433 -835995 
2113.738 -821873 -818368 -823362 -832423 -841319 -847801 -849983 -847338 
2117.595 -839864 -826933 -808810 -786882 -763366 -742296 -726055 -715833 
2121.452 -709747 -703792 -693901 -677360 -655459 -632564 -614929 -608246 
2125.310 -615459 -636469 -668428 -708027 -752782 -802559 -858085 -920150 
2129.167 -988290 -1060451 -1133658 -1205497 -1274055 -1339661 -1401691 
2132.542 -1457767 -1503733 -1533615 -1542958 -1531402 -1504691 -1473783 
2135.918 -1449677 -1441883 -1452219 -1476392 -1504723 -1528563 -1541704 
2139.293 -1543949 -1539393 -1533119 -1527638 -1522521 -1514827 -1501422 
2142.668 -1482864 -1464240 -1451526 -1450899 -1464471 -1487850 -1514695 
2146.043 -1536652 -1548802 -1551311 -1547515 -1542562 -1538930 -1536421 
2149.419 -1532855 -1525789 -1516841 -1509742 -1511030 -1526648 -1557749 
2152.794 -1602549 -1656949 -1716162 -1780084 -1849640 -1924660 -1999832 
2156.169 -2059756 -2081817 -2039507 -1914697 -1705534 -1431943 -1131411 
2159.544 -844923 -607683 -438042 -335451 -286316 -272971 -277872 -289561 
2163.402 -303832 -318632 -334889 -354091 -376206 -402921 -434732 -472300 
2167.259 -514465 -558512 -600404 -636369 -665748 -690759 -716495 -748581 
2171.117 -790157 -839434 -890491 -933938 -961412 -968289 -955230 -927160 
2174.974 -892144 -857622 -829380 -810497 -801832 -803750 -814267 -831034 
2178.832 -849322 -863310 -866980 -856861 -832886 -799616 -764193 -734291 
2182.689 -714378 -705645 -705248 -709515 -715569 -722449 -731744 -744512 
2186.546 -759662 -774380 -783806 -783277 -771602 -750499 -723839 -695456 
2190.404 -666873 -635410 -597260 -549048 -490636 -426689 -365678 -316480 
2194.261 -284594 -270720 -271547 -280190 -290951 -299825 -306646 -312639 
2198.119 -318731 -324426 -327969 -327274 -322936 -318169 -317076 -324228 
2201.976 -340782 -364023 -387760 -405702 -412885 -408449 -395407 -378689 
2205.833 -362202 -348132 -335153 -321016 -304064 -283601 -261514 -239791 
2209.691 -219159 -198957 -177793 -153979 -128441 -104624 -87034 -79779 
2213.548 -83489 -95249 -108036 -115688 -113270 -100848 -82098 -63148 -49963 
2217.888 -45358 -49698 -60664 -75936 -93692 -113204 -134470 -156960 -179185 
2222.228 -199023 -214423 -225981 -235717 -247242 -263633 -285687 -311613 
2226.085 -337537 -359554 -375610 -386138 -394414 -403947 -416990 -433077 
2229.942 -450654 -466177 -478125 -486499 -493152 -499671 -506456 -511685 
2233.800 -511784 -503742 -487161 -463695 -438142 -415831 -400372 -392394 
2237.657 -389415 -387197 -381635 -370942 -354952 -335418 -314394 -293534 
2241.515 -273567 -255322 -239393 -227372 -220947 -220583 -225153 -231478 
2245.372 -235353 -233366 -224425 -209522 -192333 -176965 -166466 -161862 
2249.229 -162525 -166632 -172461 -179450 -187166 -195082 -201905 -204620 
2253.087 -199652 -184782 -159279 -125824 -89717 -56423 -31476 -18322 -17494 
2257.427 -28229 -47942 -73783 -102405 -130097 -153118 -167824 -172461 
2261.284 -167195 -154211 -137881 -122678 -111713 -105485 -101941 -97900 
2265.141 -90645 -79150 -64606 -49797 -37539 -29256 -24584 -21801 -19482 
2269.481 -17030 -15473 -16931 -22994 -33894 -47511 -60399 -68449 -68317 
2273.821 -58643 -39825 -13551 18157 52785 88874 123972 156255 183336 203590 
2278.642 216717 223977 228386 232696 239492 250068 264059 280238 297778 
2282.982 316014 335446 356735 379384 402599 423891 440806 451752 456727 
2287.322 457490 456827 457789 461504 468602 478487 490262 503796 519819 
2291.661 539259 563013 591381 623134 656649 690631 723719 755981 787481 
2296.001 818552 848762 877114 902946 925192 944451 961619 977559 993234 
2300.340 1008278 1021198 1030763 1035911 1036874 1034947 1031859 1029368 
2304.198 1028371 1028338 1028571 1027973 1026445 1024253 1022592 1022393 
2308.055 1023755 1026445 1029135 1030796 1030696 1028836 1025515 1020965 
2311.913 1015850 1010005 1003828 998149 994429 994496 999477 1009739 1023987 
2316.252 1039830 1054743 1066800 1075536 1081913 1088058 1096529 1109318 
2320.110 1127688 1151807 1181077 1213770 1247198 1276806 1297277 1302296 
2323.967 1286975 1248926 1189349 1113836 1030032 946942 872699 812311 767332 
2328.307 736265 716020 703043 695244 691593 692689 698828 710079 725910 
2332.646 744928 765872 787481 808991 829606 848529 865594 880600 894180 
2336.986 907860 923133 941097 962350 985596 1008776 1030198 1048798 1064309 
2341.325 1077994 1091015 1103804 1115430 1124632 1129515 1130313 1129715 
2345.183 1132007 1143003 1167488 1207856 1264178 1333736 1412479 1496556 
2349.040 1581680 1665158 1744161 1816656 1881311 1937388 1985283 2026526 
2352.898 2063279 2098070 2132332 2166729 2200863 2234499 2267572 2301647 
2356.755 2338756 2381299 2430643 2487124 2549345 2615109 2682482 2750033 
2360.613 2816794 2882397 2945976 3006695 3063317 3115142 3162600 3207227 
2364.470 3251190 3296226 3342569 3388750 3432063 3469470 3498161 3517401 
2368.327 3527489 3529326 3524282 3513660 3498161 3478855 3457947 3437874 
2372.185 3421811 3412861 3413061 3423614 3445022 3477352 3521042 3576997 
2376.042 3646358 3730033 3828165 3939927 4064025 4198497 4342181 4493712 
2379.900 4652665 4817806 4987804 5160751 5334237 5505712 5673360 5835331 
2383.757 5990038 6135424 6269195 6388009 6489131 6570295 6630379 6670047 
2387.615 6691178 6696090 6687274 6666514 6635224 6594449 6545168 6488223 
2391.472 6424763 6355159 6279246 6196759 6107163 6010900 5909655 5806384 
2395.329 5704984 5609482 5523363 5448904 5387407 5339403 5305055 5284663 
2399.187 5278625 5287044 5309483 5344803 5391969 5449609 5516853 5593707 
2403.044 5680376 5777237 5884229 6000856 6126553 6260488 6402737 6553308 
2406.902 6712545 6880828 7057932 7243599 7437502 7639821 7851209 8072219 
2410.759 8303034 8541981 8785893 9030079 9269053 9497457 9711581 9908149 
2414.616 10085034 10240211 10371248 10475508 10551038 10597278 10615715 
2417.992 10609671 10584785 10546082 10497708 10442789 10382209 10315870 
2421.367 10243298 10164294 10079303 9988835 9894148 9796535 9697351 9599069 
2425.224 9504738 9418589 9344644 9287129 9248846 9231348 9234902 9259169 
2429.082 9303343 9366786 9449234 9550055 9668551 9803346 9953338 10117320 
2432.939 10294596 10485386 10689911 10908293 11140451 11386032 11644345 
2436.314 11915548 12199358 12497132 12809646 13137618 13481490 13841473 
2439.690 14217914 14611952 15025316 15460086 15918422 16401501 16909440 
2443.065 17441216 17995094 18569286 19162488 19773664 20401434 21044336 
2446.440 21699860 22365342 23037610 23713928 24391932 25069698 25745218 
2449.815 26416336 27080764 27736148 28380458 29011982 29628746 30228306 
2453.191 30806498 31357716 31875048 32350726 32777972 33150528 33463810 
2456.566 33713972 33897456 34010280 34048588 34008488 33886708 33681780 
2459.941 33393778 33023662 32573604 32046236 31444948 30773632 30037876 
2463.316 29244490 28401966 27520190 26609338 25679304 24739962 23799916 
2466.692 22867386 21950826 21058076 20197456 19376788 18602590 17879586 
2470.067 17210460 16595751 16033821 15521961 15056428 14633370 14248317 
2473.442 13897268 13576005 13281317 13010250 12760405 12530279 12317932 
2476.817 12121463 11938502 11766511 11603097 11446480 11295870 11150922 
2480.193 11011968 10878870 10750975 10627599 10507823 10391202 10278311 
2483.568 10170231 10068655 9975273 9891539 9817852 9754581 9701484 9657981 
2487.425 9623290 9596054 9574613 9556830 9541046 9526041 9511987 9500369 
2491.283 9493123 9492107 9498676 9512732 9533222 9559065 9588873 9622307 
2495.140 9659573 9700569 9744992 9791384 9837849 9882149 9922692 9958864 
2498.998 9991547 10021996 10051699 10081710 10112233 10142791 10172774 
2502.373 10201505 10228711 10254392 10278921 10302467 10325642 10349292 
2505.748 10374404 10402062 10433251 10467973 10505006 10542178 10576433 
2509.123 10604511 10623626 10632557 10630587 10618160 10595955 10564380 
2512.499 10523913 10475372 10419404 10357369 10290999 10221723 10150625 
2515.874 10078014 10004194 9928997 9852864 9776608 9701450 9629116 9560284 
2519.731 9495628 9435182 9378838 9326600 9279107 9237236 9201936 9174219 
2523.589 9154186 9141360 9135236 9134897 9139330 9147486 9158584 9171275 
2527.446 9184913 9199128 9214323 9231686 9252840 9278836 9310080 9345728 
2531.303 9383612 9421704 9458004 9492411 9526245 9561470 9600424 9644429 
2535.161 9693454 9746347 9801516 9857541 9914183 9971917 10032168 10096090 
2539.018 10164430 10237090 10313258 10391881 10472080 10552973 10634119 
2542.394 10715008 10795301 10874759 10953043 11030389 11107204 11183558 
2545.769 11259483 11334266 11406611 11475192 11538850 11597175 11650539 
2549.144 11699825 11745949 11789764 11831541 11871380 11909315 11945756 
2552.519 11981349 12017012 12053290 12090323 12127834 12164635 12199801 
2555.895 12232450 12261726 12287050 12307978 12323590 12332930 12335044 
2559.270 12329351 12315887 12294924 12266906 12232620 12192100 12145348 
2562.645 12092571 12034317 11971198 11904854 11836818 11768349 11700471 
2566.020 11634543 11571108 11511630 11457739 11411101 11372970 11343618 
2569.396 11321920 11306106 11293693 11283287 11274275 11267236 11263530 
2572.771 11264822 11272303 11285939 11305256 11329946 11359434 11393889 
2576.146 11433756 11479445 11530480 11586013 11644004 11702377 11759533 
2579.521 11814448 11866680 11916910 11966123 12015581 12066237 12119384 
2582.896 12176356 12238073 12305081 12377623 12455258 12536930 12621210 
2586.272 12706838 12792823 12878040 12962148 13044394 13124333 13201486 
2589.647 13275612 13346950 13415838 13483062 13548999 13613679 13676661 
2593.022 13737770 13796767 13854301 13911569 13970043 14031227 14096219 
2596.397 14164987 14237600 14313205 14391495 14472608 14556853 14644953 
2599.773 14737151 14833721 14934498 15039207 15148232 15261950 15381054 
2603.148 15506200 15637221 15773848 15915053 16060192 16208749 16360935 
2606.523 16516788 16676553 16839338 17004014 17168370 17330478 17488612 
2609.898 17641938 17789828 17932070 18067764 18195482 18313078 18418226 
2613.274 18509222 18585368 18647100 18695872 18733302 18761012 18780042 
2616.649 18790768 18793016 18786444 18770874 18746484 18713790 18673908 
2620.024 18628632 18580248 18531214 18484190 18441838 18406058 18378128 
2623.399 18358598 18347260 18343632 18347122 18356904 18372562 18393682 
2626.775 18419816 18450446 18486126 18526892 18573920 18628044 18690476 
2630.150 18761532 18840870 18927490 19019874 19116538 19216164 19317860 
2633.525 19421554 19527038 19634456 19744154 19856100 19970642 20088164 
2636.900 20209120 20333338 20460788 20590532 20721464 20852294 20982504 
2640.276 21111884 21240570 21369156 21497396 21624946 21750510 21872836 
2643.651 21990872 22104238 22213584 22320308 22425490 22530834 22636832 
2647.026 22743906 22852122 22962044 23073914 23189238 23309102 23434840 
2650.401 23567016 23706054 23851300 24001882 24156928 24315044 24475496 
2653.777 24637410 24800754 24965912 25133240 25303970 25479016 25658952 
2657.152 25844024 26034170 26228766 26427460 26629982 26836264 27046486 
2660.527 27260306 27477052 27695320 27913768 28130666 28345158 28557212 
2663.902 28767242 28975958 29184242 29392130 29599552 29806256 30012100 
2667.278 30217578 30423438 30631388 30842176 31056982 31276058 31498882 
2670.653 31724956 31953536 32184090 32415840 32648538 32881248 33113122 
2674.028 33343044 33569828 33792292 34009708 34220852 34425176 34622168 
2677.403 34811604 34994156 35171068 35344964 35518640 35695916 35879588 
2680.779 36072888 36277836 36496104 36728652 36976260 37239532 37518756 
2684.154 37814528 38126780 38455912 38802172 39165720 39546920 39945632 
2687.529 40361152 40792204 41236984 41693312 42159648 42634560 43117644 
2690.904 43609208 44109516 44619356 45138804 45667964 46206652 46754792 
2694.280 47312416 47879636 48456272 49042012 49636236 50238196 50847060 
2697.655 51461892 52082632 52708832 53340464 53977260 54618784 55264376 
2701.030 55913648 56565552 57219156 57872868 58524652 59171300 59809256 
2704.405 60434440 61042868 61630152 62192156 62724836 63223860 63684560 
2707.781 64102924 64475224 64798640 65071328 65292508 65461984 65580152 
2711.156 65647864 65666096 65636420 65560348 65439364 65274680 65066748 
2714.531 64815328 64519852 64179740 63794844 63365884 62894612 62383528 
2717.906 61835336 61253380 60640580 60000604 59337452 58655892 57961272 
2721.281 57260016 56557780 55860592 55174260 54503180 53852376 53225836 
2724.657 52627208 52059884 51526652 51029288 50569268 50146960 49762776 
2728.032 49416760 49108936 48839188 48607400 48412744 48253900 48129432 
2731.407 48037676 47976984 47946236 47944312 47970880 48025168 48106668 
2734.782 48214432 48346628 48501728 48676964 48869444 49075660 49292180 
2738.158 49515156 49741148 49966888 50189284 50406100 50614796 50813052 
2741.533 50999252 51171512 51329224 51472596 51603360 51723792 51836904 
2744.908 51945448 52051780 52157276 52263176 52370068 52478448 52588948 
2748.283 52701984 52817816 52936452 53057404 53180560 53306260 53435784 
2751.659 53571004 53715304 53871728 54043444 54232952 54442404 54673456 
2755.034 54927416 55205676 55509196 55838732 56194168 56574424 56977568 
2758.409 57400368 57838988 58288816 58744344 59199436 59648092 60083132 
2761.784 60497656 60885744 61241136 61558676 61834304 62064316 62245688 
2765.160 62376528 62456212 62485788 62467384 62404876 62302788 62165964 
2768.535 61999912 61809132 61598880 61374572 61140996 60903812 60667976 
2771.910 60437828 60217012 60007912 59812448 59631520 59465520 59314208 
2775.285 59177032 59052392 58938260 58831600 58728904 58626160 58518548 
2778.661 58400652 58267028 58111360 57928524 57714088 57465680 57183512 
2782.036 56870548 56531696 56173276 55801772 55423812 55044520 54668496 
2785.411 54299588 53940040 53591996 53256368 52933124 52621672 52321064 
2788.786 52030416 51749324 51478004 51217516 50968768 50732568 50509224 
2792.162 50298088 50098096 49907972 49725916 49550664 49380748 49214500 
2795.537 49049912 48884756 48717032 48544480 48365332 48178372 47982424 
2798.912 47776320 47558964 47329376 47086172 46829040 46557604 46272292 
2802.287 45973612 45662076 45337848 45001588 44653140 44293484 43923936 
2805.663 43546716 43164956 42782108 42401568 42026800 41660960 41307092 
2809.038 40968000 40646492 40345044 40065816 39810196 39578748 39371296 
2812.413 39186968 39024544 38883048 38761780 38660316 38578508 38516556 
2815.788 38474556 38452472 38450264 38467820 38504788 38561416 38637644 
2819.164 38733848 38850584 38988476 39148608 39331284 39537264 39765928 
2822.539 40016548 40287524 40576716 40881604 41199568 41527648 41862796 
2825.914 42201708 42540816 42876380 43203896 43518884 43816244 44091396 
2829.289 44339532 44556020 44737720 44882528 44990048 45062084 45101748 
2832.665 45113400 45101452 45070540 45025072 44968916 44906116 44840644 
2836.040 44776580 44717664 44667132 44626992 44598796 44582972 44580696 
2839.415 44593616 44625160 44679728 44763064 44881024 45039848 45245652 
2842.790 45504716 45824240 46213284 46681180 47238784 47895508 48656284 
2846.166 49519616 50473908 51496284 52549420 53585324 54548408 55375852 
2849.541 56010476 56403892 56521584 56349868 55895448 55184532 54257352 
2852.916 53164980 51964532 50709036 49450364 48232872 47089864 46046956 
2856.291 45119500 44313044 43625584 43048668 42569724 42173228 41843312 
2859.667 41565096 41324840 41111708 40917028 40734808 40561908 40396820 
2863.042 40240524 40094924 39962856 39847236 39751080 39677192 39628116 
2866.417 39606372 39614244 39653304 39724136 39825664 39955224 40108988 
2869.792 40281564 40467048 40660284 40855432 41047968 41233196 41407244 
2873.167 41567352 41712168 41842984 41962636 42077208 42193716 42319304 
2876.543 42460976 42623852 42810556 43022476 43259096 43518844 43799896 
2879.918 44100348 44418292 44751784 45099176 45458504 45827704 46204144 
2883.293 46584640 46964880 47340204 47705164 48054516 48384148 48691124 
2886.668 48974544 49235508 49476688 49702288 49916852 50126248 50336332 
2890.044 50552812 50782436 51032380 51310392 51626196 51990972 52417172 
2893.419 52919684 53513696 54214180 55034104 55981720 57056984 58248384 
2896.794 59531600 60866568 62196096 63455492 64572476 65476388 66112956 
2900.169 66446008 66466668 66192672 65666632 64948752 64102924 63196576 
2903.545 62288444 61424112 60639632 59959144 59396676 58960616 58653804 
2906.920 58476048 58424836 58497052 58689684 59000316 59427564 59970552 
2910.295 60627284 61394648 62265996 63230456 64273664 65375580 66510536 
2913.670 67650280 68760576 69805144 70750168 71563264 72220520 72708448 
2917.046 73024224 73175568 73177208 73048960 72810080 72476768 72061688 
2920.421 71571704 71009768 70376352 69671272 68896304 68057024 67162584 
2923.796 66227868 65271640 64313396 63373744 62470980 61618464 60825900 
2927.171 60098084 59436148 58838544 58302232 57823012 57396096 57015760 
2930.547 56676040 56370008 56091188 55832668 55588156 55352708 55121068 
2933.922 54889292 54654440 54414124 54167484 53914720 53657188 53396964 
2937.297 53136296 52877096 52621264 52370520 52127052 51893992 51675424 
2940.672 51476400 51302152 51157012 51043372 50960908 50905620 50869448 
2944.048 50841624 50808508 50754912 50667480 50535092 50351324 50115904 
2947.423 49834680 49519580 49184964 48847012 48520660 48216060 47938872 
2950.798 47689444 47463004 47251124 47043188 46829080 46598584 46344508 
2954.173 46062616 45751784 45413876 45053228 44675356 44285852 43889916 
2957.549 43491740 43094332 42700100 42310980 41928696 41555172 41191956 
2960.924 40840688 40502180 40177420 39867284 39572796 39295664 39037700 
2964.299 38800976 38587236 38397628 38233148 38093936 37980264 37891960 
2967.674 37828840 37790196 37774732 37779752 37802164 37837516 37881732 
2971.050 37930832 37982216 38034436 38087640 38143056 38202644 38268244 
2974.425 38340624 38418188 38496280 38566632 38617656 38634532 38602084 
2977.800 38506632 38337440 38089776 37764648 37370024 36918212 36425724 
2981.175 35910760 35390432 34880320 34393216 33937512 33517640 33134758 
2984.551 32786906 32470360 32181702 31918514 31681008 31471912 31295608 
2987.926 31156218 31055202 30988546 30944744 30905962 30848614 30746248 
2991.301 30576708 30324190 29983946 29562840 29079184 28559368 28031022 
2994.676 27520788 27049414 26628186 26261288 25945770 25674806 25439702 
2998.052 25232256 25045900 24875412 24716812 24567210 24424038 24285470 
3001.427 24150728 24019566 23892712 23771110 23655914 23547776 23447080 
3004.802 23353610 23267186 23187874 23115706 23050992 22993972 22944682 
3008.177 22902940 22868328 22840180 22817968 22801136 22788774 22780150 
3011.552 22774598 22771456 22770686 22772782 22778474 22788880 22805082 
3014.928 22827536 22856418 22891554 22932454 22978916 23030692 23087262 
3018.303 23147718 23210592 23273478 23334030 23389660 23438966 23481318 
3021.678 23516926 23546622 23571004 23590384 23604378 23612634 23614838 
3025.053 23611374 23604238 23595842 23589440 23588180 23594302 23608924 
3028.429 23631490 23660288 23692584 23724950 23754558 23778950 23797222 
3031.804 23809332 23816752 23821722 23826342 23832818 23842444 23856164 
3035.179 23873914 23895864 23921980 23952124 23986754 24026008 24070134 
3038.554 24119062 24172972 24232002 24296508 24366734 24442440 24523244 
3041.930 24607812 24694574 24781668 24867764 24951734 25033474 25112772 
3045.305 25190084 25265652 25339724 25412720 25485342 25558398 25633186 
3048.680 25710274 25789520 25870082 25949920 26026784 26098802 26164712 
3052.055 26224366 26278220 26327326 26372462 26414434 26453520 26490180 
3055.431 26525014 26559494 26594754 26632238 26673246 26717888 26766024 
3058.806 26817304 26870736 26926046 26982772 27040634 27099244 27158110 
3062.181 27216772 27274984 27333060 27391322 27450932 27512952 27577910 
3065.556 27646480 27718770 27794464 27873278 27954722 28038126 28122710 
3068.932 28207668 28292320 28376602 28461184 28547266 28636624 28730672 
3072.307 28830122 28935014 29044254 29156462 29270470 29385254 29500670 
3075.682 29616542 29732980 29849374 29965058 30079420 30192108 30303656 
3079.057 30414944 30527188 30640882 30756206 30871774 30986126 31097770 
3082.433 31205668 31309996 31411428 31511172 31610086 31708844 31807836 
3085.808 31907462 32008212 32111234 32217280 32327346 32441228 32558314 
3089.183 32677292 32796662 32915774 33034172 33152566 33271636 33392384 
3092.558 33515278 33640424 33767616 33896812 34028124 34161880 34298368 
3095.934 34437656 34579504 34723336 34868256 35013584 35158888 35303736 
3099.309 35447664 35590240 35731168 35870200 36007368 36143100 36278160 
3102.684 36413184 36548864 36684916 36821256 36957464 37093100 37228632 
3106.059 37364568 37501236 37638808 37777008 37915212 38052992 38190524 
3109.435 38328608 38468656 38612404 38760728 38913380 39069528 39227080 
3112.810 39384176 39539660 39693240 39845348 39997144 40149036 40301268 
3116.185 40453624 40605348 40756212 40906472 41056856 41208424 41362120 
3119.560 41518348 41677008 41837548 41999464 42161944 42324856 42487900 
3122.936 42651008 42813956 42976164 43137332 43296688 43453872 43608292 
3126.311 43760056 43908980 44055972 44201764 44347644 44494824 44643924 
3129.686 44794796 44946504 45097300 45245652 45390596 45532384 45672676 
3133.061 45813452 45956964 46104580 46256040 46409912 46563988 46716456 
3136.437 46866464 47014056 47160476 47307060 47454688 47603516 47752684 
3139.812 47900576 48046448 48189552 48330184 48469196 48607476 48746056 
3143.187 48885316 49025284 49165820 49307024 49448876 49591476 49735132 
3146.562 49880020 50025964 50172768 50319740 50466572 50612636 50757556 
3149.938 50901072 51043336 51184336 51324900 51465768 51607616 51751188 
3153.313 51896532 52043524 52191468 52339496 52486524 52631812 52774904 
3156.688 52915644 53054408 53192056 53329524 53468160 53609012 53752764 
3160.063 53899224 54048136 54197776 54346716 54493564 54637080 54777188 
3163.438 54913880 55047944 55180620 55312624 55445416 55579648 55716180 
3166.814 55855164 55995964 56137676 56278232 56415548 56547700 56673476 
3170.189 56792864 56906468 57015424 57120848 57223312 57322552 57417876 
3173.564 57508612 57594292 57674996 57751100 57822976 57890740 57954160 
3176.939 58013304 58068712 58121816 58174848 58230008 58289424 58353808 
3180.315 58422864 58495004 58568636 58642240 58715212 58787552 58859372 
3183.690 58930328 58999860 59067008 59131052 59192148 59251236 59310140 
3187.065 59370804 59434176 59500516 59568920 59638056 59706900 59775564 
3190.440 59844276 59914372 59986304 60060188 60135112 60209932 60283396 
3193.816 60354512 60423164 60489240 60552504 60612504 60668888 60721172 
3197.191 60770444 60818580 60868172 60921924 60981592 61046640 61115444 
3200.566 61184596 61250672 61311492 61365948 61414912 61460292 61504500 
3203.941 61549852 61598152 61650276 61706952 61767568 61831440 61896732 
3207.317 61961312 62022920 62079220 62129760 62175104 62216820 62257696 
3210.692 62299876 62344704 62392172 62441600 62491452 62540548 62588536 
3214.067 62635148 62681152 62726668 62772228 62817796 62863512 62909356 
3217.442 62955396 63002048 63048936 63095792 63142120 63186884 63230076 
3220.818 63271700 63312448 63352780 63393416 63434140 63474400 63513212 
3224.193 63550108 63584624 63617276 63648656 63679456 63710152 63740580 
3227.568 63770740 63800060 63828348 63855560 63881584 63906536 63930720 
3230.943 63954368 63978128 64003512 64031772 64063988 64100584 64140448 
3234.319 64181396 64220532 64255304 64284040 64306788 64324608 64340332 
3237.694 64355776 64372912 64392164 64413728 64436784 64460656 64484948 
3241.069 64508928 64531764 64552180 64568712 64580248 64586280 64587356 
3244.444 64585164 64581940 64579664 64580432 64585164 64594396 64608192 
3247.820 64626844 64650260 64678676 64711520 64747364 64784712 64821332 
3251.195 64855412 64885540 64911664 64933672 64952752 64970076 64986004 
3254.570 65001048 65015100 65027332 65037152 65043116 65044732 65041348 
3257.945 65033496 65022252 65009900 64998820 64991160 64987816 64988388 
3261.321 64991428 64994468 64995660 64993204 64987040 64977772 64966224 
3264.696 64953760 64940712 64926744 64911396 64893812 64873456 64849800 
3268.071 64822636 64792024 64758212 64721480 64682832 64642876 64602464 
3271.446 64561984 64520964 64478604 64433984 64386824 64337716 64288536 
3274.822 64241468 64198604 64160728 64127544 64096512 64065256 64031808 
3278.197 63995136 63955976 63915512 63875212 63835644 63796184 63755512 
3281.572 63712648 63667068 63619844 63572892 63528432 63488172 63452772 
3284.947 63421676 63393988 63368648 63345068 63322948 63302248 63282700 
3288.323 63263416 63243756 63223212 63201904 63181132 63162284 63147068 
3291.698 63136108 63129404 63125880 63124880 63126332 63130820 63139632 
3295.073 63153736 63173160 63196540 63221492 63245444 63266644 63284880 
3298.448 63301444 63318812 63339776 63365540 63396752 63432300 63470564 
3301.823 63509800 63548684 63586428 63623332 63659744 63696688 63735096 
3305.199 63776696 63822440 63873520 63929796 63990192 64052888 64115332 
3308.574 64175636 64232448 64285964 64336912 64386868 64436784 64487292 
3311.949 64538456 64590284 64642684 64696020 64750672 64806676 64863300 
3315.324 64919128 64972268 65021024 65064864 65104120 65140000 65173880 
3318.700 65206712 65238176 65267748 65294244 65316884 65335988 65352276 
3322.075 65366992 65380664 65393300 65404044 65411248 65413944 65411328 
3325.450 65403432 65390988 65374656 65355012 65332064 65305756 65276296 
3328.825 65243916 65209104 65172180 65132760 65090456 65044036 64992472 
3332.201 64934560 64869760 64797676 64718024 64630380 64534492 64430752 
3335.576 64319848 64204060 64085528 63966728 63848616 63730992 63611516 
3338.951 63487404 63355656 63214740 63065336 62909244 62749184 62588228 
3342.326 62427752 62268024 62107512 61944536 61776772 61602736 61421440 
3345.702 61232320 61035468 60831692 60622140 60409420 60196688 59987140 
3349.077 59784008 59589712 59404044 59225980 59053648 58884000 58714872 
3352.452 58544784 58373096 58199888 58025876 57851860 57678780 57508272 
3355.827 57341832 57181316 57028268 56884036 56749024 56623228 56505768 
3359.203 56395892 56292488 56194352 56100276 56009196 55919716 55830860 
3362.578 55742132 55653500 55565752 55479600 55396328 55316200 55239580 
3365.953 55166548 55097180 55031996 54971560 54916964 54868160 54824588 
3369.328 54785004 54746628 54706640 54662220 54611192 54551904 54483948 
3372.704 54406688 54320620 54225968 54123496 54013768 53897160 53773692 
3376.079 53642864 53503540 53353912 53192432 53018204 52830540 52630200 
3379.454 52417732 52193556 51957808 51709760 51447828 51170768 50877420 
3382.829 50567440 50241540 49901468 49549548 49188452 48820724 48449340 
3386.205 48075908 47702536 47329820 46958492 46588664 46219956 45852080 
3389.580 45484844 45117776 44750940 44384748 44019376 43655960 43296032 
3392.955 42940680 42591612 42249584 41914284 41584272 41257428 40931412 
3396.330 40604400 40275928 39946796 39618856 39294504 38975140 38661260 
3399.706 38351844 38045180 37739344 37433292 37126660 36819960 36514124 
3403.081 36209040 35904532 35599736 35293748 34985712 34676716 34368188 
3406.456 34062060 33760200 33463776 33172880 32887112 32605496 32327346 
3409.831 32052334 31780708 31512600 31248072 30986518 30727398 30469890 
3413.207 30213776 29959342 29707290 29458932 29215252 28976348 28741824 
3416.582 28510574 28280616 28050496 27818556 27584196 27347634 27109930 
3419.957 26872886 26638438 26408446 26183610 25964026 25748524 25535274 
3423.332 25322268 25108070 24891974 24673638 24454042 24233754 24013366 
3426.708 23793512 23574466 23356686 23140902 22927462 22717162 22510210 
3430.083 22305834 22103434 21901828 21700488 21499660 21300562 21104440 
3433.458 20912926 20726710 20545474 20368340 20193984 20021020 19849302 
3436.833 19679144 19510922 19345330 19182434 19021536 18861770 18701962 
3440.208 18541588 18380652 18219740 18059958 17902066 17747198 17595630 
3443.584 17447288 17301134 17156202 17010560 16862796 16711675 16557094 
3446.959 16400434 16244072 16092030 15947638 15813362 15690122 15576496 
3450.334 15469871 15366671 15263872 15158834 15050561 14938853 14823745 
3453.709 14705753 14585293 14462947 14339471 14216202 14094919 13977228 
3457.085 13863948 13755007 13649478 13545580 13441401 13336255 13229496 
3460.460 13121567 13013152 12905107 12798180 12692576 12588670 12486936 
3463.835 12387271 12289505 12193122 12097205 12001036 11904445 11808013 
3467.210 11713304 11622121 11536401 11456549 11381508 11309473 11237177 
3470.586 11162038 11082663 10998103 10909584 10818705 10726962 10635952 
3473.961 10546693 10460234 10377492 10299413 10226371 10158597 10094767 
3477.336 10033490 9972900 9911573 9848762 9784572 9719849 9655236 9590770 
3481.194 9526583 9461865 9396886 9332964 9271592 9214764 9164168 9119535 
3485.051 9079473 9041209 9001865 8959481 8913753 8865864 8818421 8773890 
3488.908 8733658 8698601 8667841 8640598 8616262 8594632 8576145 8561276 
3492.766 8550259 8542352 8536844 8532620 8529241 8526876 8526606 8529613 
3496.623 8537283 8549821 8567561 8590306 8617276 8648473 8683660 8723144 
3500.481 8766791 8814431 8865695 8919603 8976022 9034849 9096425 9161867 
3504.338 9232295 9308862 9392382 9483471 9581861 9686949 9797416 9911980 
3508.196 10029184 10148082 10268403 10390557 10515665 10644951 10779167 
3511.571 10918758 11063493 11212356 11363856 11516292 11668033 11817002 
3514.946 11961661 12100577 12232960 12358634 12478274 12592899 12703528 
3518.321 12810568 12912890 13008783 13095409 13169687 13229359 13272845 
3521.697 13298946 13307419 13297546 13268950 13221058 13153601 13066793 
3525.072 12961738 12839781 12702299 12550537 12385464 12207674 12018374 
3528.447 11819283 11612013 11398516 11180464 10958513 10733586 10505821 
3531.822 10275562 10043629 9810159 9575019 9337027 9094969 8847468 8594328 
3535.680 8337484 8080692 7829144 7587589 7358771 7142975 6938430 6741653 
3539.537 6549372 6359766 6172526 5989165 5810917 5638348 5470814 5306497 
3543.395 5142980 4978453 4812379 4645230 4478413 4313567 4152063 3994631 
3547.252 3841870 3694308 3552309 3416334 3285910 3160197 3037224 2915086 
3551.109 2792983 2671014 2550878 2435008 2325465 2223342 2127670 2036513 
3554.967 1947406 1858915 1770243 1682687 1597144 1514976 1436513 1361156 
3558.824 1288039 1216296 1145993 1077894 1012762 951391 893250 837209 781672 
3563.164 724848 665974 604520 539591 470824 395966 313395 222452 124568 
3567.503 23857 -73551 -161697 -236181 -296249 -343894 -383655 -419572 
3571.361 -455420 -492655 -531078 -569134 -605830 -641034 -675872 -712261 
3575.218 -752517 -797995 -848429 -902494 -958238 -1013909 -1068086 -1120306 
3579.076 -1170537 -1218516 -1263417 -1304447 -1340223 -1369884 -1393070 
3582.451 -1410509 -1423257 -1432867 -1441487 -1451130 -1463910 -1482072 
3585.826 -1507728 -1542133 -1585581 -1636418 -1691441 -1746161 -1796088 
3589.201 -1837597 -1869072 -1890879 -1904735 -1914170 -1922186 -1932478 
3592.577 -1947948 -1970246 -1999634 -2035286 -2074958 -2115879 -2155445 
3595.952 -2192337 -2225501 -2255168 -2281900 -2306323 -2328701 -2349397 
3599.327 -2367984 -2384329 -2398267 -2409965 -2419916 -2428647 -2436226 
3602.702 -2442848 -2448120 -2451448 -2453095 -2453062 -2452239 -2452239 
3606.078 -2454907 -2462254 -2476026 -2496715 -2523795 -2554924 -2587335 
3609.453 -2617900 -2644148 -2665455 -2682448 -2696838 -2711162 -2726802 
3612.828 -2744187 -2762592 -2779975 -2794790 -2805489 -2812304 -2816287 
3616.203 -2819810 -2825044 -2834195 -2848975 -2869746 -2896078 -2926884 
3619.579 -2959893 -2992241 -3021297 -3044428 -3059958 -3067689 -3068051 
3622.954 -3062458 -3052686 -3040085 -3025541 -3009418 -2991616 -2972793 
3626.329 -2954891 -2941957 -2939522 -2953114 -2985956 -3035741 -3094273 
3629.704 -3150065 -3192958 -3218250 -3226111 -3221178 -3209863 -3198122 
3633.080 -3190458 -3188912 -3193385 -3201904 -3212396 -3223151 -3233215 
3636.455 -3243279 -3253506 -3263931 -3274060 -3282545 -3288234 -3290667 
3639.830 -3290075 -3287576 -3284386 -3281821 -3279815 -3277645 -3273600 
3643.205 -3266003 -3253539 -3235714 -3213481 -3188649 -3163815 -3141841 
3646.581 -3125394 -3116544 -3116906 -3127039 -3147335 -3176841 -3214238 
3649.956 -3256499 -3299118 -3336899 -3364781 -3378984 -3378754 -3365504 
3653.331 -3343212 -3317729 -3295632 -3283268 -3285208 -3302636 -3333184 
3656.706 -3371225 -3410447 -3445029 -3471984 -3490588 -3501533 -3506398 
3660.082 -3506562 -3503078 -3496439 -3487597 -3476914 -3465147 -3452590 
3663.457 -3439178 -3424780 -3408606 -3390162 -3368891 -3344823 -3319275 
3666.832 -3293626 -3271035 -3255085 -3249922 -3258604 -3282281 -3318091 
3670.207 -3358896 -3395620 -3419388 -3425240 -3413175 -3387894 -3357975 
3673.583 -3332263 -3320163 -3327660 -3355180 -3396803 -3441841 -3481023 
3676.958 -3508600 -3524770 -3532888 -3536635 -3538245 -3537621 -3533776 
3680.333 -3525263 -3512347 -3496997 -3482371 -3471425 -3465410 -3462945 
3683.708 -3460643 -3453708 -3439014 -3415608 -3385592 -3353832 -3326838 
3687.083 -3310331 -3307667 -3318979 -3341174 -3368956 -3397527 -3424024 
3690.459 -3447955 -3469782 -3490226 -3509191 -3525263 -3537424 -3544982 
3693.834 -3547743 -3547217 -3545015 -3542846 -3542090 -3543175 -3545442 
3697.209 -3548006 -3549584 -3549682 -3548466 -3547217 -3547645 -3551424 
3700.584 -3560166 -3573968 -3591188 -3609261 -3624508 -3634069 -3636205 
3703.960 -3630718 -3618922 -3602689 -3584287 -3564832 -3544555 -3522437 
3707.335 -3497326 -3468105 -3434642 -3398907 -3364123 -3335091 -3316381 
3710.710 -3311811 -3322267 -3345481 -3376913 -3410249 -3439310 -3460676 
3714.085 -3472444 -3475994 -3473430 -3467514 -3460742 -3454628 -3449697 
3717.461 -3445884 -3442860 -3440822 -3440164 -3442268 -3448152 -3457915 
3720.836 -3470669 -3484409 -3496044 -3503407 -3504951 -3501730 -3495880 
3724.211 -3490424 -3488156 -3490588 -3497457 -3506693 -3514812 -3518328 
3727.586 -3514779 -3503275 -3484934 -3461991 -3437896 -3417153 -3402754 
3730.962 -3397362 -3401636 -3413504 -3429316 -3444569 -3456436 -3464029 
3734.337 -3469058 -3474186 -3482469 -3494171 -3508008 -3519972 -3526841 
3737.712 -3526413 -3518460 -3504261 -3485493 -3463010 -3437173 -3407060 
3741.087 -3372441 -3335058 -3298526 -3270048 -3257518 -3267779 -3301913 
3744.463 -3351728 -3401866 -3436910 -3448875 -3438192 -3411794 -3379116 
3747.838 -3349854 -3330487 -3324733 -3331803 -3348342 -3369614 -3392135 
3751.213 -3414457 -3437107 -3459460 -3479807 -3495354 -3502651 -3499824 
3754.588 -3487137 -3466692 -3441907 -3416561 -3394535 -3378294 -3369680 
3757.964 -3369483 -3377110 -3391543 -3410677 -3430993 -3448580 -3459920 
3761.339 -3462484 -3456469 -3443649 -3427804 -3412879 -3401833 -3395883 
3764.714 -3394239 -3395061 -3395620 -3394239 -3391083 -3387434 -3385329 
3768.089 -3386217 -3390688 -3397888 -3406337 -3413997 -3419454 -3422018 
3771.465 -3422117 -3420210 -3417251 -3413372 -3409230 -3404759 -3400189 
3774.840 -3395159 -3389439 -3382864 -3375466 -3367970 -3361592 -3358205 
3778.215 -3359849 -3367247 -3380135 -3396244 -3412090 -3424286 -3430697 
3781.590 -3430533 -3425207 -3416989 -3408441 -3401636 -3398020 -3397757 
3784.966 -3400945 -3406797 -3414819 -3424221 -3434050 -3442959 -3449664 
3788.341 -3452952 -3452689 -3449336 -3444471 -3439277 -3434806 -3431059 
3791.716 -3427048 -3421459 -3413241 -3402392 -3390129 -3378721 -3370633 
3795.091 -3367411 -3368858 -3373362 -3377636 -3378655 -3374513 -3365504 
3798.467 -3354095 -3344758 -3342291 -3351399 -3374053 -3408803 -3449336 
3801.842 -3486282 -3510210 -3515699 -3502256 -3474548 -3439803 -3406863 
3805.217 -3384376 -3378162 -3389998 -3416824 -3450059 -3479840 -3497983 
3808.592 -3501007 -3489799 -3468500 -3441677 -3413175 -3384968 -3357285 
3811.968 -3329501 -3301091 -3272876 -3247225 -3227854 -3218250 -3220783 
3815.343 -3234136 -3252947 -3269884 -3277546 -3272252 -3254953 -3231241 
3818.718 -3209403 -3197858 -3204173 -3232294 -3280210 -3339826 -3398381 
3822.093 -3444832 -3472510 -3481023 -3475008 -3461104 -3445391 -3431946 
3825.469 -3422413 -3415443 -3408408 -3398578 -3384277 -3365767 -3344823 
3828.844 -3323780 -3304379 -3287576 -3272942 -3259558 -3245910 -3231143 
3832.219 -3215257 -3198977 -3183419 -3169736 -3159309 -3153223 -3152927 
3835.594 -3160065 -3175689 -3200161 -3231932 -3267779 -3302636 -3331605 
3838.969 -3350972 -3360014 -3359553 -3353241 -3344462 -3336472 -3331540 
3842.345 -3330520 -3333414 -3338905 -3345514 -3351070 -3354194 -3353701 
3845.720 -3348670 -3339562 -3326871 -3311449 -3293857 -3274257 -3252388 
3849.095 -3226999 -3197891 -3165920 -3134177 -3108254 -3095523 -3104307 
3852.470 -3139835 -3201509 -3279552 -3358304 -3421854 -3460479 -3473069 
3855.846 -3463931 -3440033 -3407751 -3371718 -3335814 -3301946 -3271857 
3859.221 -3246567 -3226769 -3212561 -3203549 -3198878 -3196872 -3197135 
3862.596 -3199536 -3204996 -3214764 -3229104 -3246501 -3263471 -3275277 
3865.971 -3278006 -3270114 -3253605 -3233675 -3217330 -3212034 -3222526 
3869.347 -3249198 -3286688 -3325194 -3355706 -3372080 -3373888 -3364847 
3872.722 -3351531 -3340023 -3334170 -3334959 -3340023 -3345152 -3345579 
3876.097 -3338708 -3324109 -3303459 -3280012 -3257518 -3239529 -3228939 
3879.472 -3226571 -3231472 -3241174 -3251566 -3258702 -3259919 -3254131 
3882.848 -3242720 -3228413 -3215981 -3210291 -3214698 -3230025 -3253210 
3886.223 -3278204 -3297540 -3305563 -3299743 -3281492 -3255184 -3226539 
3889.598 -3202068 -3186610 -3183320 -3191675 -3207989 -3226933 -3242818 
3892.973 -3251435 -3250678 -3240648 -3222789 -3199339 -3173288 -3147269 
3896.349 -3124045 -3105787 -3093713 -3088120 -3088022 -3091608 -3096740 
3899.724 -3101905 -3105951 -3109899 -3114899 -3122828 -3134934 -3151578 
3903.099 -3171841 -3193221 -3213383 -3230025 -3241108 -3246403 -3245942 
3906.474 -3240812 -3231702 -3219632 -3205522 -3190261 -3174407 -3158749 
3909.850 -3143486 -3129275 -3115656 -3102596 -3089798 -3076967 -3064366 
3913.225 -3052588 -3042684 -3035939 -3033405 -3036104 -3044165 -3057029 
3916.600 -3073118 -3090621 -3107136 -3120953 -3131052 -3136776 -3138585 
3919.975 -3136578 -3131282 -3123222 -3112531 -3100096 -3086739 -3074039 
3923.351 -3063610 -3056437 -3053114 -3053575 -3056240 -3059596 -3062294 
3926.726 -3063182 -3062721 -3061274 -3060254 -3060550 -3062820 -3066735 
3930.101 -3071769 -3076704 -3081179 -3084633 -3087100 -3088680 -3089798 
3933.476 -3090489 -3090325 -3089206 -3086936 -3083449 -3078612 -3072756 
3936.852 -3066110 -3058905 -3051305 -3043869 -3036762 -3030576 -3026167 
3940.227 -3024061 -3024521 -3027647 -3032813 -3038966 -3045152 -3049561 
3943.602 -3051666 -3050581 -3046731 -3041039 -3034491 -3028733 -3024785 
3946.977 -3023172 -3023699 -3025410 -3027450 -3028898 -3029391 -3029293 
3950.353 -3029391 -3030214 -3032353 -3034853 -3036860 -3037288 -3035149 
3953.728 -3030576 -3024160 -3017315 -3011524 -3007510 -3005075 -3003495 
3957.103 -3001324 -2997671 -2991978 -2984376 -2976347 -2968877 -2963118 
3960.478 -2959333 -2957425 -2956306 -2954957 -2952653 -2948835 -2943372 
3963.854 -2936692 -2929254 -2921519 -2914016 -2906709 -2899632 -2892359 
3967.229 -2884360 -2875078 -2864512 -2852629 -2840285 -2828533 -2818460 
3970.604 -2811152 -2806740 -2804831 -2804634 -2804732 -2804370 -2802757 
3973.979 -2799893 -2796074 -2791663 -2787152 -2782510 -2777473 -2771745 
3977.354 -2764765 -2756106 -2745932 -2734342 -2721797 -2708889 -2696377 
3980.730 -2685279 -2676586 -2670724 -2668551 -2669670 -2673490 -2679154 
3984.105 -2684917 -2689955 -2693150 -2694170 -2693545 -2691865 -2690318 
3987.480 -2689758 -2691042 -2694631 -2700196 -2707276 -2714948 -2722225 
3990.855 -2728020 -2731774 -2733519 -2733684 -2732827 -2732037 -2731873 
3994.231 -2733223 -2735791 -2739544 -2743825 -2747842 -2750937 -2752253 
3997.606 -2751727 -2749290 -2745570 -2741257 -2737404 -2735067 -2734704 
##END=
