
##TITLE=Z235b_3_a
##JCAMP-DX=5.01  $$ Nicolet v. 1
##DATATYPE=INFRARED SPECTRUM
##ORIGIN=UniL
##OWNER=Nicolet
##LONGDATE=2011/09/22
##TIME=11:30:25
##SPECTROMETER/DATA SYSTEM=Nicolet iS5
##DATA PROCESSING=
Ratio against background
%Transmittance->Absorbance
Truncated
ElementMultiply or ElementDivide
##COMMENTS=
Number of sample scans: 32
Collection length: 51.17 sec
Sample gain: 2.0
Background collected on: Jeu Sep 22 11:28:50 2011 (GMT+02:00);
Number of background scans: 32
Background gain: 2.0
Sample spacing:  1.000
Number of scan points: 12415
Resolution points: 8192
Number of FFT points: 65536
Apodization: N-B fort;
Phase correction: Mertz;
Laser frequency: 15798.0 cm-1
Number of rejected sample scans: 0
Number of rejected background scans: 0
Bench serial number: ASB1000141;
##RESOLUTION=4.000
##XUNITS=1/CM
##YUNITS=ABSORBANCE
##FIRSTX=649.893372
##LASTX=4000.122314
##FIRSTY=0.119091
##MAXX=4000.122314
##MINX=649.893372
##MAXY=0.231634
##MINY=-0.001071
##XFACTOR=1.000000
##YFACTOR=1.000000E-009
##NPOINTS=6950
##DELTAX=0.482117
##ZPD=6100
##XYDATA=(X++(Y..Y))
649.893 119090808 117755456 116657024 115798056 115142536 114639624 
652.786 114244872 113939152 113731416 113646824 113704296 113902416 
655.679 114213408 114595016 115004688 115417544 115830888 116255672 
658.571 116703408 117173264 117651312 118117624 118561320 118988432 
661.464 119422208 119891296 120417688 121006448 121642552 122301472 
664.357 122961128 123608656 124235544 124830864 125365720 125786824 
667.250 126032200 126069632 125939072 125741232 125587624 125542640 
670.142 125606048 125734192 125864864 125944528 125939472 125847832 
673.035 125693440 125511768 125328928 125149832 124957736 124726864 
675.928 124438920 124091552 123698600 123280040 122849392 122406568 
678.820 121940624 121438504 120896696 120324608 119739880 119157288 
681.713 118580088 117996168 117386472 116735184 116041584 115322000 
684.606 114604296 113914168 113262992 112645208 112042752 111437928 
687.498 110822688 110204648 109601808 109033752 108510264 108028392 
690.391 107575368 107139400 106716368 106314952 105950312 105637952 
693.284 105383800 105181624 105017744 104879232 104763152 104680456 
696.177 104652208 104699688 104837136 105064632 105370328 105736336 
699.069 106147968 106598104 107088016 107620664 108195544 108803752 
701.962 109429600 110055976 110669824 111267288 111851568 112427312 
704.855 112994968 113547232 114071024 114554384 114992208 115390064 
707.747 115760816 116119024 116473592 116824152 117165408 117495552 
710.640 117823296 118174560 118586096 119094952 119726392 120479600 
713.533 121323008 122194560 123018120 123713088 124208416 124459752 
716.425 124451632 124203168 123763496 123212048 122648728 122173136 
719.318 121881400 121843192 122090752 122616032 123368680 124266464 
722.211 125194968 126029952 126651688 126952160 126864504 126373112 
725.104 125524280 124417520 123190304 121991216 120936176 120097240 
727.996 119490656 119087888 118834368 118673128 118564720 118488056 
730.889 118437792 118413328 118409104 118412376 118408760 118388008 
733.782 118350800 118307672 118273392 118257288 118259032 118268472 
736.674 118273176 118265912 118249808 118236496 118240280 118269128 
739.567 118319560 118377816 118427128 118456584 118466736 118468208 
742.460 118474872 118496280 118531200 118569896 118599896 118615048 
745.352 118619960 118629192 118658632 118717376 118802528 118900240 
748.245 118993232 119068928 119125936 119173552 119225040 119288224 
751.138 119361880 119434984 119494616 119532536 119551032 119560680 
754.031 119574856 119601960 119639360 119677416 119704656 119716528 
756.923 119718584 119724648 119748264 119796848 119866360 119944664 
759.816 120018608 120082472 120141544 120208656 120295456 120405440 
762.709 120530720 120656208 120768776 120867024 120964280 121086040 
765.601 121259744 121503016 121821128 122206152 122646184 123130864 
768.494 123656624 124227424 124852816 125552016 126359016 127338112 
771.387 128577920 130182120 132234024 134742256 137592064 140505696 
774.279 143090992 144870192 145401728 144423792 141907088 138087984 
777.172 133372664 128264976 123220232 118547304 114409992 110816656 
780.065 107678360 104859912 102238424 99730536 97293664 94922048 92629712 
783.440 90438928 88372552 86453080 84704272 83146464 81796568 80664016 
786.815 79749592 79048168 78554136 78266224 78190688 78339912 78727760 
790.189 79367552 80268624 81438704 82889008 84636504 86703024 89109624 
793.564 91862824 94942384 98284056 101781424 105280424 108578880 111458992 
796.939 113684968 115027056 115306232 114405768 112305936 109090792 
799.832 104946056 100132840 94931336 89635320 84501200 79719848 75429112 
803.206 71696704 68532736 65905704 63758352 62025828 60644200 59564852 
806.581 58753864 58188824 57854284 57731384 57789104 57982668 58249748 
809.956 58515440 58708956 58764676 58635604 58298516 57750000 57005864 
813.331 56093568 55051176 53921508 52747440 51572840 50435796 49365416 
816.706 48382816 47498304 46713872 46026068 45429736 44920192 44494492 
820.081 44151656 43891676 43714032 43618476 43605804 43679184 43845232 
823.455 44114356 44498748 45009052 45651548 46423480 47310164 48279820 
826.830 49283348 50256388 51115672 51774072 52151412 52184292 51845452 
830.205 51148924 50151424 48937084 47607652 46266100 44994240 43852968 
833.580 42876088 42071512 41428308 40921724 40521240 40191960 39900412 
836.955 39620200 39331936 39028060 38712152 38396692 38098132 37831228 
840.329 37606540 37427152 37290224 37189572 37119044 37074332 37053116 
843.704 37054412 37077328 37120564 37182860 37263976 37366516 37493792 
847.079 37650012 37837484 38055196 38298896 38563080 38842720 39136096 
850.454 39444912 39773336 40126320 40507744 40919832 41364124 41843092 
853.829 42361604 42927220 43548000 44231264 44982552 45805204 46702208 
857.204 47679724 48747576 49920868 51218148 52658180 54259568 56039124 
860.578 58012052 60193072 62594464 65220424 68059152 71074736 74202200 
863.953 77340672 80370480 83163152 85594904 87575592 89055800 90037512 
867.328 90570912 90750464 90699584 90541280 90392048 90340720 90436768 
870.703 90697376 91108808 91637712 92235576 92844792 93401992 93829064 
874.078 94040584 93949536 93471712 92550080 91165288 89345264 87161224 
877.452 84720784 82155880 79594464 77158384 74951496 73046688 71492904 
880.827 70311296 69495984 69017008 68822760 68849592 69021976 69266440 
884.202 69521960 69740048 69892784 69971368 69982584 69945096 69884184 
887.577 69830088 69809424 69843592 69945448 70115768 70345104 70615960 
890.952 70909768 71210568 71511152 71813304 72128264 72472384 72861640 
894.327 73310440 73825680 74403944 75026760 75655992 76233048 76670968 
897.701 76867160 76715080 76113960 74997576 73344224 71185704 68600632 
901.076 65706372 62646284 59558960 56575328 53805264 51322996 49176988 
904.451 47386912 45950372 44848032 44050728 43526500 43243280 43175244 
907.826 43305144 43622692 44124224 44808684 45675696 46722356 47943608 
911.201 49329112 50863336 52520552 54260020 56028380 57757648 59371452 
914.575 60803184 62001288 62943556 63640824 64137764 64505972 64828560 
917.950 65198092 65700360 66401684 67347216 68549144 69983552 71586584 
921.325 73264904 74909136 76406104 77671912 78667352 79411792 79981960 
924.700 80506936 81154584 82092952 83484200 85457088 88081832 91360960 
928.075 95207032 99448152 103801280 107896008 111328944 113667184 114546792 
931.450 113739936 111185584 107025944 101575280 95294672 88679600 82195888 
934.824 76242024 71074112 66825768 63520460 61099728 59459212 58477984 
938.199 58049092 58076400 58473128 59155164 60016012 60922684 61727496 
941.574 62265192 62388272 61995784 61043976 59563332 57647604 55444592 
944.949 53118584 50823368 48689792 46799700 45191596 43867484 42805292 
948.324 41970300 41324840 40836540 40476320 40218820 40042780 39927396 
951.698 39854392 39809868 39783612 39770792 39770760 39785684 39818728 
955.073 39873060 39950828 40053644 40182400 40337408 40518364 40724256 
958.448 40952928 41201320 41466804 41747256 42042096 42352548 42680764 
961.823 43028988 43398544 43789560 44200812 44630816 45078480 45544012 
965.198 46028060 46531972 47056332 47600668 48163636 48744132 49342068 
968.573 49958784 50597300 51261064 51952956 52674300 53425516 54206408 
971.947 55017632 55861568 56741964 57663608 58630296 59644288 60706348 
975.322 61816576 62975808 64186812 65454468 66784768 68184000 69657424 
978.697 71210336 72848912 74582592 76424712 78393928 80510160 82792656 
982.072 85257648 87914336 90764304 93799128 96999856 100330288 103731432 
985.447 107124008 110398736 113425200 116073528 118216752 119758528 
988.339 120648376 120885888 120524648 119661400 118436224 117008560 
991.232 115540616 114194568 113101912 112359536 112027744 112125704 
994.125 112640568 113535864 114766056 116281136 118033568 119983360 
997.017 122092680 124325304 126648728 129028200 131429848 133820232 
999.910 136159056 138396896 140474560 142316016 143839776 144970384 
1002.803 145643552 145824704 145512528 144742224 143579968 142119296 
1005.695 140480064 138788512 137178480 135782368 134709040 134047864 
1008.588 133859384 134172456 134992576 136306416 138091776 140319312 
1011.481 142956880 145970336 149316736 152946528 156806560 160837120 
1014.374 164981184 169184720 173387568 177522832 181505680 185224832 
1017.266 188556544 191370160 193545776 195003952 195715376 195715024 
1020.159 195096416 194014864 192672832 191284464 190079088 189264064 
1023.052 188995120 189381648 190467776 192240336 194637136 197564240 
1025.945 200912416 204555584 208366832 212217120 215966224 219482176 
1028.838 222644256 225354128 227555424 229234304 230418400 231162272 
1031.731 231540160 231634368 231520752 231273344 230953072 230596560 
1034.624 230210368 229758496 229166768 228321888 227097152 225377984 
1037.517 223072256 220133296 216559184 212388432 207690128 202556528 
1040.410 197103024 191451664 185732352 180074080 174582192 169340528 
1043.303 164403664 159795456 155520720 151572896 147942688 144623312 
1046.196 141612544 138912128 136526976 134464752 132734848 131349864 
1049.089 130321872 129658144 129356208 129398600 129751936 130366248 
1051.982 131186232 132156256 133225400 134354256 135507584 136646000 
1054.875 137722528 138671808 139411344 139855584 139916848 139523360 
1057.768 138632096 137231648 135350944 133055256 130452408 127678528 
1060.661 124883864 122232800 119873832 117930400 116501320 115646336 
1063.554 115393176 115740440 116662408 118111672 120018912 122302568 
1066.448 124861872 127582904 130355416 133068848 135626112 137953904 
1069.341 139993328 141702272 143051424 144017696 144586064 144751104 
1072.234 144518608 143907008 142946464 141681456 140166976 138470800 
1075.127 136678944 134884848 133190904 131701384 130503280 129666984 
1078.020 129237952 129234416 129651712 130463960 131629272 133084608 
1080.913 134746128 136517072 138280240 139918592 141335904 142465536 
1083.806 143292352 143853424 144236288 144557664 144945584 145530640 
1086.699 146419296 147692384 149397872 151542688 154088048 156942112 
1089.592 159971072 162992208 165792064 168166624 169923984 170919136 
1092.485 171073328 170369632 168854448 166621424 163806224 160560752 
1095.378 157032400 153360688 149651456 145973296 142362176 138822064 
1098.271 135337408 131881088 128425984 124948632 121433248 117875584 
1101.164 114284616 110685432 107117736 103638040 100314176 97212384 94398480 
1104.540 91926608 89833192 88142464 86864392 85998784 85538616 85471728 
1107.915 85781736 86445432 87433856 88710528 90227976 91932832 93762120 
1111.290 95640552 97488088 99213624 100718984 101914056 102717432 103069616 
1114.665 102943192 102340320 101292656 99850272 98079856 96053880 93842968 
1118.041 91518496 89143712 86770144 84440824 82184712 80020360 77960344 
1121.416 76013104 74186760 72490704 70933608 69522232 68260112 67146536 
1124.791 66179052 65356784 64683484 64170292 63835100 63697680 63776924 
1128.166 64083688 64616732 65361060 66288696 67362464 68534672 69752816 
1131.542 70961464 72098528 73105608 73931072 74535624 74903392 75043144 
1134.917 74990880 74799936 74536680 74269976 74056008 73936096 73929064 
1138.292 74029128 74206568 74411528 74584280 74655736 74560800 74248072 
1141.667 73678976 72834176 71711712 70323248 68691288 66845900 64825252 
1145.042 62670820 60428040 58144772 55864660 53627612 51467336 49407964 
1148.418 47466516 45653500 43973872 42429992 41022260 39750316 38613164 
1151.793 37608892 36734708 35986740 35361568 34855688 34467036 34194180 
1155.168 34036440 33992652 34061632 34241860 34532720 34934756 35450432 
1158.543 36083436 36837304 37714444 38714612 39835036 41069348 42407776 
1161.919 43837172 45337700 46882744 48439524 49966812 51419328 52753124 
1165.294 53924100 54894968 55636892 56128592 56359256 56328888 56048512 
1168.669 55537848 54825080 53943980 52927844 51810468 50623804 49395116 
1172.044 48150456 46914084 45706836 44549120 43458928 42450268 41534540 
1175.420 40719492 40009136 39405508 38908960 38518796 38233652 38051908 
1178.795 37971076 37987928 38099288 38301864 38592668 38969412 39429856 
1182.170 39971572 40591992 41289236 42062500 42913688 43847104 44869192 
1185.545 45987020 47206204 48528584 49950864 51462076 53042652 54664740 
1188.921 56287660 57862460 59334716 60646144 61747476 62605032 63205352 
1192.296 63559236 63698492 63672096 63532888 63333876 63120396 62922380 
1195.671 62756652 62625848 62521868 62428972 62327072 62196860 62018292 
1199.046 61773376 61445600 61018044 60474692 59801764 58989236 58035840 
1202.422 56951044 55757504 54487368 53179620 51876180 50613308 49420660 
1205.797 48318852 47318696 46423628 45631820 44938528 44336892 43819028 
1209.172 43376760 43001000 42682996 42415740 42194480 42017564 41886696 
1212.547 41805884 41780200 41815260 41916364 42088056 42334244 42658136 
1215.923 43060928 43541844 44096860 44719904 45402768 46137112 46916112 
1219.298 47734712 48589392 49477544 50396460 51343768 52317964 53320308 
1222.673 54355952 55433708 56565968 57766052 59045068 60411324 61867544 
1226.048 63409904 65026992 66699416 68397736 70079944 71697248 73191488 
1229.424 74500216 75567536 76342616 76786880 76880096 76620528 76030472 
1232.799 75154888 74066688 72859768 71636600 70511424 69591456 68968568 
1236.174 68723968 68917928 69593904 70782776 72501944 74756760 77537408 
1239.549 80817488 84547136 88647904 93021096 97539024 102049160 106393632 
1242.925 110398488 113891816 116728464 118790504 120011880 120384768 
1245.818 119959768 118836592 117145144 115045064 112699960 110265544 
1248.711 107889768 105685024 103721336 102017472 100535800 99188232 97846608 
1252.086 96379072 94664824 92621792 90225368 87506560 84547488 81455016 
1255.461 78352688 75355328 72548464 69990520 67703288 65677196 63876712 
1258.836 62250200 60740264 59286404 57837928 56357144 54820340 53220256 
1262.212 51563512 49867756 48156308 46456556 44796196 43199504 41687512 
1265.587 40277128 38978980 37799380 36739540 35796072 34962192 34229420 
1268.962 33589088 33033564 32556422 32152478 31816072 31541314 31321500 
1272.337 31149134 31018012 30922650 30858540 30821510 30806534 30806926 
1275.713 30815782 30826098 30832714 30833354 30828800 30821402 30814644 
1279.088 30811372 30814004 30823928 30842212 30868786 30902404 30938126 
1282.463 30967732 30981182 30967090 30917916 30832180 30716516 30584990 
1285.838 30457166 30354926 30297650 30301736 30379516 30538668 30785548 
1289.214 31124750 31559236 32089862 32714200 33426236 34214720 35063548 
1292.589 35952292 36853500 37734576 38560148 39292544 39899176 40357952 
1295.964 40659304 40809748 40828712 40746420 40595816 40409876 40218344 
1299.339 40043904 39904440 39811864 39772320 39786044 39846800 39943420 
1302.715 40059132 40175456 40274692 40340896 40361368 40327224 40232448 
1306.090 40074356 39854428 39578748 39258304 38908236 38547220 38193060 
1309.465 37861376 37564668 37310476 37103816 36948588 36848020 36805356 
1312.840 36822304 36898444 37030240 37211956 37437264 37700640 37998852 
1316.216 38330672 38695848 39094076 39524020 39983996 40472612 40989704 
1319.591 41536508 42113864 42720208 43348932 43987512 44616640 45211232 
1322.966 45745636 46194308 46537316 46765896 46885032 46917404 46899832 
1326.341 46883556 46923976 47068188 47350068 47778392 48335704 48979476 
1329.717 49653956 50301660 50871456 51332248 51673892 51907660 52060072 
1333.092 52168896 52276736 52422968 52642660 52962428 53396628 53948256 
1336.467 54607136 55354284 56163052 57003632 57848264 58670340 59447128 
1339.842 60160760 60796968 61346904 61806188 62173040 62446076 62621296 
1343.218 62689008 62634728 62439916 62084460 61552908 60836112 59933960 
1346.593 58854744 57614988 56238856 54754520 53197076 51606572 50025588 
1349.968 48502280 47085912 45822068 44754284 43915576 43327332 42999684 
1353.343 42931060 43111200 43520384 44131044 44905676 45792980 46734460 
1356.719 47664188 48514064 49227044 49756572 50073216 50166708 50045036 
1360.094 49734872 49276776 48729228 48163376 47653316 47275728 47091856 
1363.469 47137284 47420316 47922368 48607664 49429164 50338716 51288208 
1366.844 52225916 53102372 53867604 54475048 54889892 55089884 55068368 
1370.219 54833536 54406348 53819592 53112628 52336688 51550604 50814580 
1373.595 50190548 49728368 49456600 49380340 49482296 49733424 50101812 
1376.970 50564204 51108968 51736744 52457960 53290712 54258892 55387748 
1380.345 56701792 58215424 59921944 61778872 63696572 65549708 67176040 
1383.720 68405072 69092752 69125112 68447040 67072788 65105124 62729388 
1387.096 60182036 57722000 55554228 53796340 52479644 51564220 50974288 
1390.471 50620344 50424112 50318920 50249912 50175896 50062324 49884144 
1393.846 49629108 49300124 48915092 48499280 48077540 47665560 47267676 
1397.221 46881528 46504568 46140540 45803552 45514760 45295700 45161672 
1400.597 45115792 45151488 45256608 45419912 45634948 45901720 46226072 
1403.972 46616732 47081964 47625328 48244644 48932112 49677288 50468880 
1407.347 51297004 52154140 53033668 53929500 54835676 55746128 56656032 
1410.722 57562704 58464488 59358876 60238860 61090120 61892072 62620720 
1414.098 63254336 63781528 64203328 64533152 64790672 64997548 65172724 
1417.473 65331944 65492184 65676236 65909980 66219300 66617748 67099428 
1420.848 67641144 68210560 68777072 69316456 69819384 70291736 70752312 
1424.223 71225088 71730632 72279176 72868224 73486960 74121240 74759632 
1427.599 75393008 76012672 76608392 77165272 77665216 78091528 78434848 
1430.974 78697536 78894928 79054056 79206240 79379840 79599520 79883976 
1434.349 80251680 80728736 81352824 82171936 83235704 84571648 86172328 
1437.724 87996976 89981336 92049136 94110984 96071448 97812944 99204544 
1441.100 100129584 100490160 100231696 99348008 97873832 95873536 93424624 
1444.475 90616872 87536880 84260488 80862432 77414248 73997304 70719128 
1447.850 67699384 65053240 62866040 61169720 59948720 59157744 58747604 
1451.225 58677852 58919932 59451160 60240532 61242240 62405100 63670560 
1454.601 64985656 66311276 67616248 68881352 70095328 71259056 72376704 
1457.976 73449952 74480752 75466048 76402664 77290360 78134240 78941504 
1461.351 79716064 80454488 81137496 81728616 82184992 82467664 82564344 
1464.726 82500200 82336600 82147360 81987216 81881184 81821248 81779768 
1468.102 81719568 81604088 81396744 81050352 80501512 79667976 78458112 
1471.477 76806816 74714888 72276784 69656056 67030096 64526536 62197164 
1474.852 60041012 58041860 56198916 54541536 53118584 51972708 51126520 
1478.227 50572876 50285404 50234364 50403384 50795212 51428392 52324880 
1481.603 53497052 54940540 56636704 58561884 60696592 63033888 65574796 
1484.978 68317576 71247192 74316208 77432056 80465976 83244136 85564080 
1488.353 87226712 88044896 87889464 86727296 84643832 81835248 78550928 
1491.728 75045112 71507592 68042328 64691484 61447776 58289800 55215088 
1495.104 52250056 49456936 46919360 44711680 42874736 41404692 40268656 
1498.479 39420564 38819460 38438608 38260936 38274472 38466408 38819892 
1501.854 39314124 39926928 40630052 41389600 42162932 42883040 43458708 
1505.229 43773068 43696920 43139564 42097436 40668616 39001708 37226864 
1508.604 35418040 33600328 31778534 29961934 28171462 26446548 24834362 
1511.980 23372142 22083388 20970786 20020708 19212078 18522810 17933934 
1515.355 17428490 16992678 16616613 16294604 16027289 15818449 15670437 
1518.730 15579587 15533980 15513822 15499298 15478043 15455176 15452326 
1522.105 15498131 15611185 15790891 16020654 16276889 16540846 16803346 
1525.481 17069280 17353652 17675100 18045760 18466730 18929810 19423736 
1528.856 19940496 20478084 21040964 21636160 22269140 22942690 23654374 
1532.231 24398732 25169192 25959066 26762290 27571838 28379256 29173292 
1535.606 29940918 30665416 31328548 31913984 32404632 32788120 33057950 
1538.982 33215084 33264480 33213116 33071000 32851372 32572136 32251752 
1542.357 31902612 31525888 31110904 30642944 30112126 29524112 28901442 
1545.732 28277256 27680770 27122380 26593592 26070654 25528386 24952330 
1549.107 24349422 23746088 23179520 22678408 22251074 21885206 21557458 
1552.483 21246626 20942932 20653074 20394662 20185864 20032504 19922874 
1555.858 19828666 19713296 19533172 19244738 18814468 18234770 17545498 
1559.233 16829902 16180031 15650995 15248669 14947290 14710209 14502994 
1562.608 14296460 14071235 13819239 13546229 13269259 13010900 12790161 
1565.984 12613945 12475717 12359009 12245878 12122690 11985878 11843015 
1569.359 11709083 11600272 11525581 11485977 11476520 11490264 11520919 
1572.734 11562567 11608575 11649109 11673274 11671301 11641214 11594282 
1576.109 11554332 11549807 11599150 11704556 11855545 12037552 12239505 
1579.485 12457644 12696568 12965562 13274519 13628860 14027805 14463632 
1582.860 14924690 15395919 15860030 16298596 16689911 17012042 17247072 
1586.235 17383482 17421766 17375378 17272274 17149034 17046982 17008182 
1589.610 17066452 17246832 17563716 18018200 18596606 19265970 19977198 
1592.986 20661762 21239874 21637900 21791826 21665310 21255846 20596162 
1596.361 19746374 18778140 17767218 16776105 15849307 15017873 14297693 
1599.736 13694510 13206200 12824696 12537953 12332897 12199495 12132060 
1603.111 12129981 12195882 12331908 12537236 12806472 13128739 13487335 
1606.487 13863059 14229794 14557470 14814557 14968518 14992801 14872157 
1609.862 14605235 14207233 13707915 13149605 12575367 12022394 11516190 
1613.237 11066246 10669536 10315768 9992836 9691353 9408160 9148298 8922309 
1617.094 8742076 8615417 8543264 8520219 8536033 8577768 8631100 8683288 
1620.952 8723246 8745322 8750765 8748230 8750258 8767839 8806823 8865661 
1624.809 8937461 9014416 9091552 9166605 9240283 9313973 9389131 9466166 
1628.667 9546058 9630980 9724897 9832019 9955067 10092868 10240550 10388521 
1632.524 10525509 10640875 10725570 10775158 10790749 10780049 10756035 
1635.899 10734265 10727778 10743028 10780015 10833109 10893955 10952907 
1639.275 11000346 11030219 11040347 11034603 11020839 11008366 11003914 
1642.650 11008672 11017372 11020159 11005478 10963339 10889131 10785858 
1646.025 10665528 10545640 10444859 10378171 10352992 10369246 10420932 
1649.400 10498794 10588858 10672762 10728016 10726894 10644883 10475983 
1652.776 10251407 10036677 9894081 9849440 9886081 9969103 10063941 10147743 
1656.633 10209646 10247166 10263925 10265181 10255817 10237260 10208392 
1660.008 10166262 10107892 10031930 9939201 9832900 9718392 9602795 9493765 
1663.866 9398544 9321894 9264957 9224476 9192798 9159532 9111685 9038570 
1667.723 8933133 8796274 8636812 8469874 8312322 8177110 8069687 7988917 
1671.581 7928713 7880428 7833868 7778576 7703730 7601549 7470570 7319883 
1675.438 7168036 7035571 6937588 6876385 6843363 6823874 6803544 6773388 
1679.295 6732096 6685491 6642356 6608982 6584020 6556772 6509278 6422510 
1683.153 6285331 6105282 5910360 5739464 5621095 5559171 5539404 5539740 
1687.010 5542458 5536149 5516383 5483900 5441623 5393278 5342221 5292276 
1690.868 5248173 5214436 5194182 5186805 5186302 5181641 5159309 5107408 
1694.725 5022495 4914441 4806147 4723102 4679157 4670013 4676678 4674233 
1698.583 4638331 4553643 4422241 4267957 4129416 4038273 4005232 4018475 
1702.440 4057169 4100048 4132093 4145004 4135672 4107072 4066032 4021953 
1706.297 3983295 3955642 3940763 3937252 3941665 3949690 3958149 3965305 
1710.155 3971826 3979751 3991722 4009479 4033056 4060614 4089211 4116237 
1714.012 4139886 4159322 4173406 4180130 4175781 4156579 4121188 4074126 
1717.870 4025431 3988746 3973933 3984198 4015432 4058674 4103827 4142161 
1721.727 4169124 4184045 4189598 4189732 4188293 4187290 4186922 4186554 
1725.584 4185818 4185015 4184580 4184279 4182673 4177621 4167518 4152832 
1729.442 4136608 4123295 4116070 4114297 4111855 4097372 4056467 3978848 
1733.299 3864301 3729130 3600550 3506946 3461821 3460919 3487673 3523280 
1737.157 3552643 3565772 3558990 3534637 3498996 3459984 3424750 3397098 
1741.014 3378264 3367312 3363104 3364807 3371118 3381036 3393191 3406515 
1744.872 3420508 3435938 3453071 3472743 3494320 3515931 3535038 3549069 
1748.729 3556451 3556852 3551106 3540984 3528691 3516633 3507547 3503539 
1752.586 3506111 3514896 3527389 3538479 3541586 3530629 3501401 3454640 
1756.444 3396297 3335991 3283706 3244513 3217675 3197046 3173915 3140439 
1760.301 3092216 3030417 2961322 2894105 2837771 2798218 2776943 2771707 
1764.159 2778110 2791249 2805855 2816560 2819161 2810757 2791916 2766305 
1768.016 2740463 2721091 2711788 2711055 2712755 2708688 2691951 2660612 
1771.874 2620275 2582842 2561111 2562477 2586875 2627509 2675581 2723725 
1775.731 2768873 2811291 2853180 2895673 2937670 2975267 3003258 3017939 
1779.588 3019540 3011699 3001390 2995151 2996152 3003358 3012534 3018873 
1783.446 3018873 3012233 3001357 2990547 2983107 2980605 2982707 2988345 
1787.303 2996585 3007295 3020541 3035122 3048068 3054508 3048769 3026380 
1791.161 2987277 2936069 2881864 2833969 2798919 2777743 2767139 2761003 
1795.018 2754168 2743831 2729026 2710355 2688550 2663479 2634209 2599942 
1798.875 2560777 2518450 2476394 2438507 2407919 2386163 2372570 2366141 
1802.733 2365074 2368273 2375002 2384331 2394859 2405021 2413150 2418815 
1806.590 2422746 2426745 2432376 2440373 2449669 2457867 2462632 2462298 
1810.448 2457433 2450802 2445804 2445171 2449536 2457500 2466597 2474628 
1814.305 2480959 2486924 2495222 2508352 2528215 2554278 2584709 2617009 
1818.163 2648944 2679148 2707254 2733328 2756802 2777009 2793116 2803821 
1822.020 2808557 2806822 2798585 2784179 2764638 2742464 2721291 2705787 
1825.877 2699385 2703453 2715723 2731060 2741897 2741430 2725925 2696985 
1829.735 2661646 2629509 2609975 2608009 2622576 2648544 2679748 2711022 
1833.592 2740797 2769740 2800152 2834203 2871891 2911951 2951948 2990747 
1837.450 3028649 3068290 3113140 3166071 3227722 3296727 3369749 3442617 
1841.307 3512090 3575727 3632458 3683114 3730200 3778127 3832209 3897833 
1845.165 3978146 4073022 4178357 4288370 4395397 4493110 4577618 4647875 
1849.022 4705182 4751910 4789229 4816634 4831409 4830505 4811876 4776331 
1852.879 4727255 4669410 4606785 4541623 4473258 4399982 4320127 4234063 
1856.737 4144469 4055463 3970589 3891614 3817769 3747077 3677834 3609905 
1860.594 3545093 3486337 3435503 3392590 3355257 3320165 3285042 3250088 
1864.452 3217808 3192039 3175217 3167273 3164870 3162534 3155258 3141007 
1868.309 3122050 3103262 3090614 3087377 3093818 3106732 3122284 3137636 
1872.167 3151853 3165304 3178655 3191605 3202353 3208962 3210131 3206492 
1876.024 3200651 3196212 3195811 3199683 3205257 3208595 3205658 3194409 
1879.881 3175584 3151520 3125221 3097889 3069624 3038826 3004393 2966659 
1883.739 2927829 2891670 2861251 2838238 2821930 2809790 2799219 2788214 
1887.596 2776943 2766305 2757836 2752100 2749066 2748499 2750066 2755135 
1891.454 2765272 2781411 2803387 2828233 2852079 2871624 2885599 2896240 
1895.311 2907815 2925661 2952882 2989146 3030884 3073061 3111171 3143710 
1899.168 3171278 3196145 3220212 3243712 3265144 3282404 3294256 3302102 
1903.026 3309180 3318762 3332852 3350683 3368781 3383106 3390419 3390753 
1906.883 3386746 3382505 3381737 3385811 3393091 3400805 3405714 3406382 
1910.741 3403310 3398033 3391956 3385511 3378298 3369348 3359331 3349514 
1914.598 3342035 3338128 3336392 3333186 3323170 3302002 3268583 3226020 
1918.456 3180357 3137636 3100826 3068924 3037424 3001757 2959420 2912318 
1922.313 2865754 2826766 2799952 2786013 2781645 2781044 2779844 2776776 
1926.170 2773341 2773008 2777210 2785613 2794283 2799186 2797151 2788914 
1930.028 2777276 2767072 2761270 2760103 2760603 2758869 2752200 2740397 
1933.885 2725925 2712088 2700519 2690084 2677915 2660645 2638010 2613275 
1937.743 2592842 2583542 2588409 2606075 2630576 2654011 2669980 2676181 
1941.600 2674681 2670314 2667313 2667613 2670080 2672481 2673781 2676515 
1945.458 2684516 2702720 2732928 2772374 2814626 2851245 2876494 2887734 
1949.315 2887000 2878562 2866721 2854247 2841907 2829967 2819929 2814359 
1953.172 2816227 2827432 2845042 2862185 2870690 2863686 2839172 2801820 
1957.030 2760703 2725992 2703687 2693551 2689250 2682816 2668280 2645577 
1960.887 2619742 2599008 2589742 2594142 2610342 2634143 2662246 2693684 
1964.745 2729393 2769940 2812458 2850945 2877394 2885566 2875426 2853346 
1968.602 2829934 2814726 2813225 2823330 2836504 2845109 2844075 2834970 
1972.459 2825965 2825131 2839339 2870056 2913719 2967260 3029416 3103962 
1976.317 3196379 3310315 3441882 3578199 3700524 3790694 3836956 3837257 
1980.174 3798449 3732372 3652138 3566874 3483097 3404779 3335123 3278732 
1984.032 3240207 3221013 3219210 3227522 3237303 3240107 3232696 3216773 
1987.889 3199516 3187199 3185030 3192173 3204957 3217842 3227722 3235801 
1991.747 3246049 3263642 3290450 3324272 3359565 3390052 3411458 3423380 
1995.604 3428690 3431562 3435370 3441014 3447593 3453672 3459249 3464994 
1999.461 3473478 3484166 3494086 3497292 3486170 3455976 3406415 3343771 
2003.319 3277964 3220212 3179623 3159497 3159230 3174750 3201619 3236134 
2007.176 3275427 3316058 3353588 3382806 3399302 3402341 3396397 3388149 
2011.034 3385911 3394794 3413896 3438309 3459383 3471240 3471574 3463925 
2014.891 3454373 3449497 3453171 3464693 3482128 3503906 3530596 3564970 
2018.749 3608502 3660358 3713256 3757538 3782338 3781970 3758140 3719305 
2022.606 3679037 3649198 3636701 3640644 3655580 3673557 3688327 3698519 
2026.463 3705169 3710081 3713791 3714593 3709948 3698586 3681409 3663666 
2030.321 3649298 3642582 3643283 3649365 3657117 3666239 3678736 3700023 
2034.178 3733809 3781302 3836989 3892885 3939559 3972093 3991221 4003058 
2038.036 4016669 4038106 4069578 4108209 4149186 4187591 4221750 4253268 
2041.893 4284621 4316613 4347034 4370160 4380469 4374411 4352857 4323339 
2045.750 4294794 4277226 4277059 4295430 4328861 4370428 4410860 4441020 
2049.608 4452603 4439547 4399045 4333547 4250959 4164507 4088441 4036835 
2053.465 4017706 4030648 4066534 4111621 4151227 4175179 4180331 4170061 
2057.323 4150992 4129450 4109380 4091351 4074260 4057370 4042420 4032487 
2061.180 4030882 4039176 4055263 4075297 4094663 4110450 4123228 4134902 
2065.038 4148483 4165009 4182807 4198029 4207263 4209471 4206694 4203148 
2068.895 4203081 4208032 4216062 4222285 4221717 4211278 4192040 4168154 
2072.752 4145239 4127275 4115568 4108410 4102924 4096435 4088776 4081016 
2076.610 4074929 4070848 4067638 4062420 4053356 4040012 4025063 4012087 
2080.467 4004630 4003393 4005968 4007573 4003527 3991822 3974200 3955040 
2084.325 3939157 3929595 3925482 3923410 3918127 3905924 3886466 3861292 
2088.182 3833947 3806203 3778026 3747177 3710783 3667876 3621165 3575560 
2092.040 3538345 3514795 3507113 3513660 3530395 3552443 3575727 3598479 
2095.897 3619962 3639040 3654310 3663532 3665203 3659589 3649732 3640477 
2099.754 3636400 3640377 3651436 3666874 3681978 3693874 3701961 3708177 
2103.612 3715562 3726791 3741897 3759142 3775887 3790059 3801724 3813089 
2107.469 3827162 3845982 3870319 3898568 3928258 3957548 3985034 4011185 
2111.327 4036534 4060480 4081451 4096937 4104931 4105165 4099580 4091719 
2115.184 4085598 4084026 4087137 4093626 4101252 4109012 4116772 4126138 
2119.042 4138749 4154773 4172804 4189999 4203248 4211545 4215092 4216196 
2122.899 4217400 4219676 4221917 4221683 4215627 4202312 4181402 4155140 
2126.756 4125469 4093592 4058005 4016134 3964837 3903115 3832310 3756903 
2130.614 3683114 3616621 3561462 3519806 3491414 3475849 3471307 3476316 
2134.471 3487940 3501635 3511722 3513359 3503739 3484800 3461019 3439478 
2138.329 3425083 3419907 3420642 3421911 3417502 3404579 3384709 3362770 
2142.186 3344706 3334489 3332485 3335724 3340432 3343370 3344539 3346075 
2146.043 3350850 3359832 3371252 3380668 3383707 3378398 3364941 3346676 
2149.901 3326141 3303638 3276795 3240608 3190270 3123819 3043264 2953449 
2153.758 2858916 2765272 2674981 2591709 2522849 2480893 2484158 2551745 
2157.616 2695818 2913785 3185364 3477051 3751823 3978815 4143700 4246710 
2161.473 4300784 4321800 4325581 4323506 4320964 4320930 4324076 4330568 
2165.331 4339838 4349644 4356572 4356304 4346565 4326652 4299579 4268828 
2169.188 4238580 4209739 4181168 4149487 4112491 4069778 4025498 3985703 
2173.045 3957548 3945745 3951863 3973665 4006369 4044494 4081919 4113628 
2176.903 4134702 4140756 4128714 4098275 4053156 4000584 3951563 3916087 
2180.760 3901377 3909802 3937386 3975972 4018542 4058105 4092622 4122392 
2184.618 4149119 4174711 4200237 4225631 4251495 4279134 4309920 4343687 
2188.475 4378661 4410693 4435530 4449590 4453473 4451498 4450661 4457925 
2192.333 4476940 4506468 4540786 4572562 4596404 4611104 4619175 4626777 
2196.190 4639436 4659430 4685855 4714728 4742195 4765209 4783801 4798944 
2200.047 4812111 4822932 4829734 4829901 4821324 4805745 4786783 4770602 
2203.905 4761624 4763065 4774455 4792847 4814858 4837909 4860425 4882741 
2207.762 4903919 4923087 4937866 4946278 4947116 4941653 4933007 4924797 
2211.620 4919703 4918798 4920005 4921613 4921010 4918731 4915748 4914777 
2215.477 4916385 4919904 4922384 4920608 4912297 4898390 4881837 4867294 
2219.334 4858448 4857208 4861899 4869673 4877011 4881535 4883177 4882607 
2223.192 4880597 4877447 4871382 4860593 4843002 4818711 4789765 4759179 
2227.049 4730203 4704813 4682774 4663549 4645464 4627782 4610602 4595231 
2230.907 4583210 4575843 4573164 4575508 4582775 4595366 4613382 4636757 
2234.764 4664119 4693391 4721661 4746584 4766783 4782361 4794555 4804103 
2238.622 4811273 4815227 4814624 4809129 4799715 4789295 4781959 4781456 
2242.479 4789765 4806583 4829131 4854260 4879256 4902847 4924763 4946245 
2246.336 4967593 4988306 5006842 5020752 5028629 5029701 5024271 5013512 
2250.194 4998428 4980732 4961728 4944267 4931935 4928651 4937866 4960421 
2254.051 4994741 5035367 5075861 5109419 5131815 5142142 5142478 5136409 
2257.909 5127725 5118271 5108849 5098289 5085851 5071402 5055580 5040227 
2261.766 5026953 5016662 5010260 5007478 5009121 5015758 5028260 5046630 
2265.624 5069928 5095540 5120349 5140868 5155118 5162461 5163803 5161053 
2269.481 5156157 5150759 5145897 5142008 5140466 5142209 5148244 5159276 
2273.338 5174733 5192673 5211384 5228722 5244182 5257999 5271716 5286574 
2277.196 5303311 5321558 5340073 5357349 5372780 5386300 5399350 5413306 
2281.053 5429511 5449038 5471519 5496249 5522356 5548398 5573200 5595855 
2284.911 5615188 5630494 5642242 5651138 5658691 5666579 5675945 5686721 
2288.768 5697900 5707972 5715627 5720763 5724389 5728586 5736039 5748563 
2292.625 5766694 5789594 5815618 5843155 5871332 5900351 5930647 5962727 
2296.483 5996555 6031126 6064960 6096982 6126587 6153941 6179450 6203750 
2300.340 6226707 6247614 6265295 6279045 6288793 6295181 6299988 6304493 
2304.198 6309973 6317436 6326783 6338482 6352503 6369146 6388312 6409261 
2308.055 6430984 6451734 6469995 6485466 6498448 6510522 6523270 6538440 
2311.913 6556369 6576653 6598082 6619411 6640102 6660121 6680444 6701979 
2315.770 6725769 6752220 6781297 6813440 6849018 6888570 6932807 6982065 
2319.627 7035639 7093227 7152844 7212638 7269711 7320894 7361434 7386609 
2323.485 7391799 7373903 7332654 7271126 7195895 7115120 7037996 6971930 
2327.342 6921663 6888268 6869854 6862650 6862314 6865343 6869652 6874331 
2331.200 6879347 6885541 6893216 6903181 6916008 6932336 6952604 6976880 
2335.057 7004457 7034460 7065914 7098212 7130916 7164634 7199432 7235042 
2338.915 7270183 7302428 7329992 7351324 7365984 7375015 7379666 7380846 
2342.772 7378285 7369825 7352503 7323859 7283290 7233088 7179658 7131826 
2346.629 7099054 7089759 7109933 7161771 7244340 7353683 7483683 7626704 
2350.487 7774056 7918117 8052641 8174037 8281925 8378085 8465819 8547894 
2354.344 8625996 8700901 8772741 8841584 8908104 8972876 9036236 9097507 
2358.202 9154998 9206810 9251520 9288923 9320303 9347184 9371356 9393499 
2362.059 9413205 9429831 9442868 9452925 9461424 9470060 9479474 9488280 
2365.917 9494342 9494477 9486383 9469315 9444019 9412494 9376706 9336892 
2369.774 9292308 9241535 9183593 9119197 9051087 8983328 8921159 8868502 
2373.631 8828159 8801108 8787720 8787482 8800027 8825014 8861975 8909761 
2377.489 8966753 9031229 9101433 9176994 9257917 9344983 9438939 9539589 
2381.346 9646055 9756648 9869100 9981308 10092122 10200419 10305148 10405014 
2385.204 10497504 10580269 10650350 10705804 10745676 10770233 10780695 
2388.579 10778453 10765173 10742178 10710627 10671777 10626547 10576025 
2391.954 10521062 10462067 10399143 10332122 10261076 10187021 10111351 
2395.329 10036305 9964119 9897267 9837544 9786470 9745161 9714936 9696639 
2399.187 9691082 9698197 9717409 9747499 9787215 9835679 9892657 9958424 
2403.044 10033864 10118914 10213514 10316277 10425989 10541567 10662710 
2406.419 10790138 10924874 11067979 11219734 11379433 11545792 11717763 
2409.795 11894604 12076184 12262817 12454166 12649250 12845412 13038794 
2413.170 13225328 13401041 13562331 13706855 13832648 13938666 14024246 
2416.545 14089135 14134008 14160366 14170225 14166083 14149822 14122712 
2419.920 14085096 14037045 13978734 13911056 13835658 13755177 13672523 
2423.296 13590260 13510543 13435249 13365674 13303661 13250572 13208557 
2426.671 13179114 13163369 13161900 13174708 13201691 13242817 13298638 
2430.046 13369365 13455139 13555699 13669788 13795980 13933261 14080578 
2433.421 14237978 14406017 14584916 14775372 14977435 15190675 15414835 
2436.797 15649449 15894741 16150730 16417949 16696626 16987542 17291688 
2440.172 17610570 17945988 18299600 18672386 19064810 19475436 19902788 
2443.547 20344622 20799736 21267156 21747062 22239356 22743836 23259286 
2446.922 23784062 24315466 24850992 25388374 25925228 26459894 26990600 
2450.298 27515422 28032964 28541606 29040074 29526486 29998998 30453398 
2453.673 30885398 31288806 31657412 31985242 32267314 32499678 32679618 
2457.048 32804630 32872960 32882788 32833002 32722630 32551244 32318958 
2460.423 32026366 31673770 31262066 30793090 30269194 29694554 29074792 
2463.799 28416574 27727742 27015916 26288676 25553266 24816646 24085440 
2467.174 23366966 22668076 21995544 21355548 20752568 20189646 19667668 
2470.549 19186728 18745272 18341972 17975270 17643698 17345754 17079618 
2473.924 16842578 16631037 16441418 16268736 16108844 15957952 15812607 
2477.300 15671434 15534118 15401652 15276056 15159382 15053375 14958092 
2480.675 14872088 14792684 14716825 14641698 14565624 14488502 14411566 
2484.050 14336903 14266225 14201138 14142361 14089990 14044060 14004261 
2487.425 13970179 13941506 13917043 13896208 13877905 13861964 13848622 
2490.801 13838976 13834221 13835248 13841815 13853617 13868874 13886355 
2494.176 13905000 13924570 13945817 13969529 13996048 14025512 14057168 
2497.551 14090127 14123362 14156429 14188848 14220447 14250577 14279031 
2500.926 14304747 14327348 14346697 14362999 14377042 14389988 14402592 
2504.302 14415882 14430747 14447737 14467605 14491312 14518514 14548904 
2507.677 14580564 14611472 14638990 14661198 14676826 14685566 14687724 
2511.052 14684023 14674735 14660306 14640259 14614762 14583820 14547945 
2514.427 14507516 14463153 14414854 14363102 14308274 14251193 14193402 
2517.802 14136610 14082666 14032939 13987699 13946878 13909790 13876571 
2521.178 13847220 13822181 13802205 13787361 13776998 13770192 13765506 
2524.553 13762360 13760923 13762018 13766601 13775391 13787976 13803334 
2527.928 13819820 13836103 13851873 13867471 13884029 13902606 13923920 
2531.303 13947836 13973841 14001592 14031090 14062746 14097281 14135172 
2534.679 14176113 14218907 14262698 14306356 14349985 14394132 14440168 
2538.054 14488982 14540989 14595538 14651362 14707638 14763990 14820933 
2541.429 14879907 14942043 15008166 15077627 15149226 15220735 15290642 
2544.804 15357608 15420945 15480618 15536934 15590028 15640346 15688678 
2548.180 15735572 15781922 15828447 15874567 15919281 15960941 15997551 
2551.555 16028218 16053315 16073566 16091721 16109843 16129717 16151831 
2554.930 16175834 16200872 16225912 16249919 16272452 16292574 16309673 
2558.305 16322196 16329041 16329248 16322196 16307952 16287139 16260240 
2561.681 16227184 16188215 16142854 16091136 16033992 15972801 15909864 
2565.056 15847176 15786527 15728632 15674217 15623172 15575775 15532847 
2568.431 15495487 15464962 15442129 15427297 15419847 15418714 15422663 
2571.806 15430112 15440206 15452086 15465682 15480893 15498164 15517738 
2575.182 15540883 15568357 15600744 15638320 15680846 15727464 15776768 
2578.557 15827760 15878864 15929181 15977785 16024470 16068960 16112352 
2581.932 16155647 16200665 16249403 16303135 16362447 16426861 16494725 
2585.307 16563943 16632689 16699966 16765462 16829902 16894038 16958636 
2588.683 17023620 17088544 17152722 17215734 17277344 17337856 17397414 
2592.058 17456324 17514172 17570926 17626340 17680380 17733738 17787376 
2595.433 17841956 17898060 17955760 18015022 18075882 18139272 18206056 
2598.808 18277550 18355038 18438864 18528586 18623686 18723166 18826752 
2602.184 18934412 19046566 19163422 19284950 19409808 19536638 19663994 
2605.559 19790726 19916490 20042152 20168230 20295666 20424460 20554158 
2608.934 20683480 20811484 20936744 21058352 21175892 21288486 21395260 
2612.309 21495622 21588868 21674226 21751346 21819524 21878062 21926082 
2615.685 21962780 21987700 22001086 22004398 21999342 21988120 21972890 
2619.060 21955182 21935630 21914826 21893360 21872138 21852798 21836666 
2622.435 21825134 21818828 21817470 21820256 21826772 21836738 21850674 
2625.810 21869630 21894616 21926362 21964872 22009870 22060764 22117136 
2629.186 22179062 22246574 22319644 22397822 22479712 22563920 22648598 
2632.561 22733082 22817444 22902660 22990444 23081948 23178158 23279142 
2635.936 23384136 23492440 23603118 23715468 23829178 23943758 24058752 
2639.311 24173216 24286450 24397926 24507258 24614336 24719372 24822292 
2642.687 24923064 25021364 25117442 25211116 25303302 25394594 25485974 
2646.062 25577936 25671008 25764838 25859498 25954810 26051410 26149544 
2649.437 26250306 26354226 26461760 26573128 26688256 26807046 26929464 
2652.812 27055480 27185482 27319122 27456474 27596942 27740314 27886244 
2656.188 28034590 28185462 28338862 28494476 28652196 28811640 28972344 
2659.563 29134456 29297764 29462868 29629810 29798518 29968892 30139970 
2662.938 30310974 30481194 30650056 30817418 30983530 31148636 31313342 
2666.313 31478040 31642944 31808660 31974864 32141882 32309928 32479220 
2669.688 32650038 32822854 32998208 33176348 33357140 33540260 33724716 
2673.064 33909460 34093244 34274916 34453728 34629060 34800512 34967720 
2676.439 35129860 35286416 35437024 35581896 35721888 35858792 35994876 
2679.814 36132908 36275528 36425108 36583720 36753280 36935240 37130816 
2683.189 37340952 37566152 37806392 38061564 38331252 38614756 38911784 
2686.565 39221748 39543580 39876584 40219328 40570056 40927516 41290624 
2689.940 41659248 42033700 42414720 42803204 43199544 43603972 44016440 
2693.315 44436828 44864932 45300812 45744424 46195520 46653512 47117448 
2696.690 47586580 48060104 48538072 49021056 49509404 50003692 50504012 
2700.066 51009572 51518892 52030636 52542800 53053660 53561484 54064424 
2703.441 54560244 55047116 55522560 55984128 56429660 56856276 57261192 
2706.816 57641020 57991832 58309888 58592108 58836076 59040588 59205552 
2710.191 59331720 59419928 59471600 59487444 59468256 59415104 59328224 
2713.567 59208284 59055244 58868932 58648840 58394360 58105340 57782172 
2716.942 57426312 57039868 56625380 56186056 55724956 55245224 54750348 
2720.317 54243652 53728652 53209060 52688592 52170800 51659228 51157012 
2723.692 50667556 50193968 49739664 49307288 48899628 48518584 48165748 
2727.068 47842016 47548652 47285776 47053932 46852844 46682104 46540236 
2730.443 46425656 46336544 46271300 46228616 46208124 46209676 46233372 
2733.818 46279112 46346052 46432956 46538092 46659488 46795052 46942988 
2737.193 47101348 47268488 47442380 47620744 47801212 47981052 48157972 
2740.569 48328964 48491760 48644016 48784240 48912016 49027696 49133348 
2743.944 49231724 49325808 49418392 49511480 49605816 49701472 49798260 
2747.319 49895780 49994024 50093744 50195420 50299500 50406248 50515624 
2750.694 50627604 50742436 50861364 50985872 51118248 51260876 51416196 
2754.070 51585712 51771084 51973232 52193444 52432308 52690200 52967520 
2757.445 53263368 53576364 53903916 54242972 54589400 54938884 55286392 
2760.820 55626836 55955144 56266276 56555928 56820208 57055776 57259908 
2764.195 57429636 57562856 57658200 57714772 57733312 57715868 57665612 
2767.571 57586540 57482740 57358316 57216924 57062352 56898120 56728180 
2770.946 56556264 56386084 56220868 56062760 55912780 55772120 55640508 
2774.321 55518420 55406004 55303892 55211624 55128892 55054000 54983596 
2777.696 54914180 54840716 54758016 54660904 54544876 54405788 54241320 
2781.072 54050352 53833584 53593384 53333944 53059276 52774452 52484096 
2784.447 52191764 51901124 51615004 51335640 51065136 50805044 50555868 
2787.822 50318068 50090548 49872664 49663316 49461908 49268316 49083156 
2791.197 48907008 48740944 48585208 48440044 48304744 48178260 48059400 
2794.573 47946420 47837204 47729904 47622112 47511536 47396188 47274436 
2797.948 47144928 47006968 46860044 46703504 46537096 46360616 46173632 
2801.323 45976048 45768132 45549568 45320632 45081160 44831168 44570888 
2804.698 44300860 44022676 43738328 43450800 43163240 42878796 42600460 
2808.073 42330664 42071260 41824088 41590252 41371304 41168712 40983804 
2811.449 40817792 40671168 40544156 40436280 40346680 40274108 40217000 
2814.824 40174516 40145584 40129880 40127664 40139256 40165460 40207152 
2818.199 40265024 40339628 40431332 40540376 40666980 40811276 40973356 
2821.574 41153084 41350020 41563452 41792312 42035232 42291108 42558100 
2824.950 42835240 43120572 43411800 43705788 43998768 44286292 44563436 
2828.325 44825472 45068336 45288348 45482896 45650188 45789376 45900764 
2831.700 45985144 46044344 46080888 46097544 46097688 46085384 46064200 
2835.075 46038632 46013028 45991188 45976892 45972620 45980284 46001020 
2838.451 46035428 46084240 46148980 46232080 46336836 46467544 46628684 
2841.826 46825648 47064312 47351360 47694736 48104112 48589392 49161364 
2845.201 49828996 50597448 51465360 52422328 53448224 54509304 55562176 
2848.576 56556264 57433648 58140528 58630444 58868668 58838844 58542924 
2851.952 58000996 57246292 56323308 55282968 54173828 53044560 51937904 
2855.327 50886696 49916708 49044240 48276304 47612868 47047656 46570700 
2858.702 46169320 45830648 45542944 45295076 45078108 44884992 44709660 
2862.077 44548492 44398876 44260060 44132656 44018308 43919756 43840176 
2865.453 43782708 43750420 43745692 43770648 43825552 43910448 44023736 
2868.828 44162772 44324052 44502972 44694160 44892340 45091128 45284300 
2872.203 45466228 45632040 45778624 45905368 46014352 46110068 46198948 
2875.578 46288512 46385872 46497380 46627836 46779920 46954688 47151796 
2878.954 47369688 47606396 47859216 48126176 48405596 48696088 48997056 
2882.329 49307548 49626544 49951684 50279336 50605152 50923840 51230268 
2885.704 51520424 51791392 52041732 52271956 52483948 52681072 52868040 
2889.079 53050664 53235764 53430200 53641404 53876420 54141848 54444960 
2892.455 54793652 55197212 55667172 56216228 56857064 57601064 58455200 
2895.830 59419356 60483488 61626104 62813468 63997560 65123944 66132092 
2899.205 66962168 67567272 67915552 67997456 67826216 67436568 66878988 
2902.580 66207880 65481088 64749404 64052044 63420868 62877112 62433908 
2905.956 62099556 61877784 61768752 61770548 61879540 62091492 62402540 
2909.331 62809944 63311524 63905464 64589240 65358096 66203788 67114856 
2912.706 68075000 69062920 70054752 71021784 71933488 72761064 73478248 
2916.081 74065272 74512368 74818824 74993008 75049240 75005376 74877400 
2919.457 74677808 74414080 74088112 73697864 73239024 72707632 72102488 
2922.832 71426424 70687112 69897496 69074848 68237584 67405688 66597276 
2926.207 65826156 65103196 64435252 63824744 63271888 62774488 62328488 
2929.582 61928412 61567724 61239112 60934388 60645992 60366584 60089524 
2932.958 59809672 59522708 59225300 58915304 58591616 58254336 57905164 
2936.333 57546476 57181580 56813636 56445468 56079652 55718476 55364640 
2939.708 55021692 54694012 54387084 54106456 53856840 53641552 53461304 
2943.083 53314016 53194492 53094956 53005176 52912908 52806328 52674188 
2946.458 52508324 52305108 52066196 51798596 51512884 51222140 50938816 
2949.834 50671352 50424072 50195532 49979228 49764744 49540524 49295484 
2953.209 49020536 48710136 48362812 47980944 47570052 47137468 46691916 
2956.584 46241736 45793796 45353884 44925480 44511012 44111312 43727004 
2959.959 43357828 43003412 42663252 42336912 42023624 41723804 41437568 
2963.335 41166384 40911896 40676440 40462136 40270840 40103936 39962344 
2966.710 39846292 39755724 39690012 39648116 39628148 39627712 39643432 
2970.085 39671964 39709940 39754636 39803948 39856752 39912540 39971464 
2973.460 40033732 40099392 40168044 40237904 40305268 40364820 40408496 
2976.836 40426384 40408420 40345044 40228924 40057024 39830388 39554756 
2980.211 39238936 38893884 38531472 38162592 37796744 37441632 37102156 
2983.586 36781300 36479812 36196648 35929724 35676704 35436376 35209192 
2986.961 34997780 34806328 34639500 34500216 34387588 34295248 34211496 
2990.337 34119768 34000320 33836060 33613288 33326298 32978654 32582316 
2993.712 32156832 31723566 31304474 30917064 30571696 30272178 30016076 
2997.087 29796782 29605936 29435708 29280182 29135342 28999194 28870100 
3000.462 28746850 28628164 28512486 28398638 28286272 28175952 28068912 
3003.838 27966772 27871194 27783478 27704430 27634722 27574698 27524496 
3007.213 27484324 27453404 27431062 27415708 27405438 27398768 27394462 
3010.588 27392098 27392098 27395556 27403462 27416696 27435684 27460428 
3013.963 27490500 27525308 27564494 27608028 27655838 27707928 27764544 
3017.339 27825372 27889636 27956418 28024516 28092592 28159442 28224108 
3020.714 28285744 28343674 28397614 28446784 28490514 28528408 28560006 
3024.089 28585414 28605728 28622148 28637118 28653046 28672372 28696832 
3027.464 28727628 28764940 28808170 28855580 28905372 28955202 29003162 
3030.840 29047868 29088432 29125244 29158834 29190410 29220886 29251438 
3034.215 29282168 29313784 29346788 29381742 29420000 29462550 29510422 
3037.590 29564188 29623496 29687282 29754306 29823502 29894488 29967578 
3040.965 30043770 30124344 30210260 30301736 30398456 30498822 30601024 
3044.341 30703144 30803438 30900910 30995096 31086380 31175656 31264060 
3047.716 31352804 31443164 31535506 31629756 31725276 31820708 31914734 
3051.091 32006216 32094322 32178384 32258284 32333664 32404240 32469932 
3054.466 32530888 32587708 32641716 32694764 32748674 32805346 32865920 
3057.842 32930788 32999958 33072896 33148884 33227068 33306946 33387482 
3061.217 33467926 33547670 33626284 33704048 33781904 33860880 33942452 
3064.592 34027588 34116504 34208840 34303600 34399888 34496844 34594216 
3067.967 34692400 34791644 34892708 34995628 35100580 35207536 35316280 
3071.343 35426960 35539496 35653756 35769448 35886576 36004736 36124160 
3074.718 36245524 36369408 36496676 36627484 36761536 36897616 37034856 
3078.093 37171632 37307048 37440552 37572364 37702660 37831912 37960372 
3081.468 38088256 38215452 38342068 38468148 38593280 38717184 38839240 
3084.844 38959044 39076524 39192300 39307924 39425140 39545756 39670948 
3088.219 39801116 39935500 40072612 40210896 40349260 40487052 40624812 
3091.594 40762872 40902284 41043272 41185764 41329428 41474092 41619240 
3094.969 41764840 41910780 42057352 42204300 42352144 42500908 42651008 
3098.344 42802584 42956188 43111748 43269676 43429632 43591480 43754964 
3101.720 43920088 44086156 44252612 44418440 44582380 44743484 44901268 
3105.095 45056168 45209432 45362672 45517152 45673596 45831756 45990300 
3108.470 46148168 46304508 46458988 46613044 46768296 46926264 47088420 
3111.845 47254856 47425120 47597928 47771732 47945532 48118328 48290116 
3115.221 48460380 48629228 48797140 48964600 49132388 49301460 49472752 
3118.596 49646528 49822604 49999752 50176268 50350508 50520988 50686952 
3121.971 50848624 51006632 51162492 51317368 51472408 51628516 51785980 
3125.346 51944772 52104488 52264892 52425508 52586220 52747176 52908384 
3128.722 53069796 53231460 53392540 53552188 53709416 53863440 54014180 
3132.097 54162452 54309656 54457468 54607512 54761100 54918240 55078484 
3135.472 55240672 55403708 55566316 55727632 55886852 56043536 56197144 
3138.847 56347224 56493432 56635724 56774360 56910096 57043608 57175988 
3142.223 57308256 57441780 57577384 57716284 57858560 58004332 58152648 
3145.598 58302380 58451864 58599500 58744192 58885592 59023924 59159796 
3148.973 59294080 59427980 59562232 59697776 59835152 59975044 60117492 
3152.348 60262156 60407744 60552468 60694456 60832264 60965156 61093320 
3155.724 61217980 61341140 61464416 61589292 61716384 61845576 61976448 
3159.099 62108352 62240640 62372856 62504916 62636644 62767788 62898332 
3162.474 63028252 63157564 63286536 63414848 63542396 63669256 63795148 
3165.849 63920276 64044484 64167836 64290152 64410612 64528504 64643108 
3169.225 64754404 64862728 64969228 65074944 65181040 65286928 65391488 
3172.600 65492572 65588012 65676236 65756872 65830664 65899028 65963744 
3175.975 66025460 66084556 66141276 66195608 66248512 66301936 66357756 
3179.350 66417748 66482924 66553168 66627136 66702852 66778660 66852784 
3182.726 66924252 66992088 67056036 67115744 67171744 67225240 67278504 
3186.101 67333872 67393992 67460368 67533088 67610600 67690672 67770872 
3189.476 67849736 67926240 68000864 68073920 68146168 68217576 68287944 
3192.851 68357136 68425472 68493280 68561408 68630048 68698464 68765424 
3196.227 68829640 68889976 68947248 69002984 69059808 69119712 69183784 
3199.602 69251168 69320064 69388248 69453920 69516480 69576832 69636144 
3202.977 69695968 69756784 69818376 69879896 69941432 70002704 70064336 
3206.352 70127296 70191432 70255936 70319632 70380640 70438384 70493648 
3209.728 70548024 70603568 70662008 70723728 70787336 70850824 70911760 
3213.103 70968720 71021392 71070720 71118528 71166184 71214472 71263392 
3216.478 71312200 71359952 71406040 71450368 71493056 71534712 71575688 
3219.853 71616512 71657664 71699320 71741344 71783944 71826592 71868816 
3223.229 71910456 71951592 71992536 72033992 72076352 72119656 72162888 
3226.604 72204672 72243216 72277256 72306528 72331816 72354320 72375576 
3229.979 72396240 72416680 72436056 72454104 72470464 72485848 72501160 
3233.354 72517288 72534520 72552456 72570040 72586056 72599880 72611664 
3236.729 72621928 72632040 72642488 72653264 72663920 72674144 72683232 
3240.105 72691608 72699680 72707552 72714760 72719968 72721144 72717000 
3243.480 72707320 72693368 72677744 72663920 72654752 72652088 72655768 
3246.855 72664272 72675352 72687024 72697360 72705864 72712368 72717000 
3250.230 72720160 72722360 72723928 72725176 72726280 72727296 72727408 
3253.606 72726040 72722280 72715784 72707232 72697792 72688792 72681968 
3256.981 72677192 72674056 72670808 72665600 72656784 72644176 72628472 
3260.356 72611320 72594512 72579320 72566048 72554416 72543296 72531592 
3263.731 72518664 72503552 72486248 72466392 72443928 72419024 72391816 
3267.107 72362616 72331976 72299992 72266848 72232296 72196224 72158504 
3270.482 72119144 72078464 72036968 71994800 71952096 71909088 71866040 
3273.857 71823584 71783360 71746224 71713592 71685528 71661064 71637976 
3277.232 71613864 71586120 71553576 71516152 71474624 71430648 71385728 
3280.608 71341168 71297944 71256288 71216936 71180472 71147448 71117904 
3283.983 71091480 71067240 71044304 71021472 70998568 70975896 70954088 
3287.358 70934072 70916128 70899712 70884568 70870056 70855936 70842480 
3290.733 70830512 70820560 70813384 70809056 70807336 70808240 70812064 
3294.109 70818920 70829336 70843072 70859448 70877240 70894912 70911760 
3297.484 70927520 70943520 70960688 70980120 71002432 71027016 71052608 
3300.859 71078056 71102488 71125440 71147688 71169544 71192024 71215296 
3304.234 71239616 71265192 71292592 71322000 71354064 71388656 71425248 
3307.610 71462632 71499816 71535952 71571352 71606640 71642856 71680488 
3310.985 71719176 71757832 71794768 71829328 71861424 71891728 71921520 
3314.360 71951480 71981200 72009232 72033056 72050848 72061800 72066536 
3317.735 72066728 72065048 72063480 72062704 72062624 72062192 72060040 
3321.111 72055432 72047728 72036376 72021248 72001880 71977712 71948976 
3324.486 71916048 71880664 71843640 71806384 71768704 71729768 71687720 
3327.861 71640984 71588424 71530288 71467280 71400456 71330280 71256792 
3331.236 71178792 71095504 71005864 70910048 70808472 70701816 70590080 
3334.612 70473496 70351536 70224392 70092408 69957512 69821488 69686360 
3337.987 69552680 69419864 69285752 69147920 69003832 68852736 68694400 
3341.362 68530248 68361512 68189472 68014232 67835472 67652952 67465904 
3344.737 67274600 67079284 66880688 66679596 66476748 66273028 66069128 
3348.113 65866640 65666632 65470612 65279260 65092764 64910508 64731708 
3351.488 64555368 64380528 64207168 64034732 63862964 63691356 63519732 
3354.863 63347868 63176380 63006452 62840080 62679088 62525124 62379280 
3358.238 62241332 62110452 61985468 61865136 61748316 61634240 61522596 
3361.614 61413080 61305500 61199592 61095072 60991576 60888984 60787024 
3364.989 60685920 60585760 60487412 60391484 60299268 60211568 60128488 
3368.364 60049420 59973216 59898168 59822224 59743928 59662236 59576860 
3371.739 59487368 59393600 59295024 59190704 59079992 58961680 58835808 
3375.115 58701784 58559576 58408840 58248952 58078936 57898500 57707240 
3378.490 57505660 57294572 57074708 56846340 56609072 56361972 56103516 
3381.865 55832708 55548880 55252488 54945200 54628780 54305748 53978008 
3385.240 53647552 53315364 52982304 52648044 52312392 51974540 51634036 
3388.615 51290668 50945408 50599420 50254560 49912616 49574988 49242152 
3391.991 48913908 48589724 48268676 47949972 47632944 47317220 47002128 
3395.366 46687012 46371088 46054176 45737056 45421164 45108916 44802844 
3398.741 44504256 44213360 43928444 43646576 43364564 43079660 42790188 
3402.116 42496344 42198604 41898664 41597836 41297108 40997240 40699108 
3405.492 40403440 40110988 39822580 39538568 39258376 38981116 38705956 
3408.867 38432164 38159952 37889832 37622948 37360200 37101760 36846648 
3412.242 36593744 36341920 36090168 35838460 35587580 35338240 35091276 
3415.617 34846856 34604084 34362344 34120412 33878040 33634984 33392136 
3418.993 33150028 32909594 32671220 32434906 32200080 31966160 31732298 
3422.368 31498312 31263630 31028688 30793764 30559572 30326642 30095258 
3425.743 29865240 29635948 29406810 29176802 28945958 28714460 28483332 
3429.118 28253528 28025824 27800468 27577028 27354904 27133136 26912122 
3432.494 26692484 26475460 26262836 26055772 25854714 25658810 25467212 
3435.869 25278612 25092412 24908466 24727300 24549784 24376336 24206602 
3439.244 24039350 23873214 23706720 23538892 23369974 23200492 23031880 
3442.619 22865114 22700822 22538582 22377692 22216582 22054000 21889386 
3445.995 21722780 21555614 21390006 21228532 21073692 20926696 20787568 
3449.370 20655054 20526784 20400254 20273238 20144282 20013456 19881870 
3452.745 19750396 19620590 19492866 19367226 19242798 19118752 18994638 
3456.120 18870354 18746172 18622856 18501098 18380684 18261896 18144142 
3459.496 18026766 17909006 17790758 17671786 17552364 17433250 17315272 
3462.871 17199842 17087992 16980892 16878882 16781166 16687021 16594442 
3466.246 16502161 16409278 16315864 16222300 16129855 16039150 15950389 
3469.621 15862985 15775805 15687888 15598477 15507470 15415521 15323352 
3472.997 15232197 15142091 15053203 14965294 14878226 14791827 14706438 
3476.372 14622370 14539996 14458905 14379028 14299337 14219250 14138218 
3479.747 14056176 13973669 13891795 13811885 13735786 13664830 13600210 
3483.122 13542162 13490309 13443212 13399128 13355424 13310289 13262050 
3486.498 13210503 13155821 13099438 13042379 12986489 12932517 12881385 
3489.873 12833809 12790127 12750920 12716459 12686708 12661327 12639596 
3493.248 12620323 12602449 12584985 12567693 12550674 12534815 12521139 
3496.623 12510874 12505282 12504975 12510568 12521480 12536895 12555244 
3499.999 12574753 12593615 12611284 12627861 12644406 12663544 12687800 
3503.374 12719734 12761224 12813400 12876026 12948254 13028653 13115181 
3506.749 13205585 13297751 13389081 13478619 13565612 13650947 13736915 
3510.124 13825909 13919986 14020618 14127641 14239861 14355534 14472950 
3513.500 14590672 14708633 14826042 14942282 15056290 15165971 15269054 
3516.875 15363718 15448652 15523816 15589822 15647903 15698504 15741207 
3520.250 15775016 15798381 15809171 15806146 15788347 15755808 15708774 
3523.625 15648110 15574436 15488413 15389671 15277875 15151937 15010601 
3527.000 14853368 14680665 14494121 14296529 14091462 13881942 13670676 
3530.376 13458523 13245380 13030873 12814390 12595968 12375680 12154514 
3533.751 11932270 11709287 11484991 11259823 11034501 10810824 10591031 
3537.126 10377526 10171316 9972392 9779421 9590499 9403894 9218757 9035390 
3540.984 8855313 8679671 8509507 8344679 8184032 8025537 7867269 7707810 
3544.841 7546927 7385227 7224059 7065914 6912708 6766590 6628427 6498112 
3548.698 6374391 6254908 6136567 6017049 5894675 5769111 5642343 5516954 
3552.556 5395962 5281845 5175639 5077034 4984921 4897988 4815160 4736299 
3556.413 4660770 4588467 4518353 4449154 4379297 4307845 4234431 4160359 
3560.271 4087104 4016602 3949991 3887803 3829568 3773614 3717768 3659990 
3564.128 3597744 3528625 3450532 3362537 3265478 3162200 3058412 2960688 
3567.986 2874893 2804655 2750133 2708754 2675714 2646210 2616075 2582909 
3571.843 2545812 2504820 2460966 2415250 2367973 2319868 2271536 2223276 
3575.700 2176253 2130900 2087383 2045368 2004157 1963182 1922311 1882043 
3579.558 1843509 1808272 1776797 1749417 1725764 1704708 1685315 1666355 
3583.415 1647297 1626909 1603629 1574963 1537952 1490172 1430662 1360990 
3587.273 1285613 1211312 1145295 1092975 1056869 1035911 1026678 1024087 
3591.130 1022825 1018707 1008179 989714 962947 929243 890926 851086 812576 
3595.470 777290 746687 720268 697036 675067 652435 627647 600107 570412 
3599.809 539757 510398 484789 464754 452183 447473 450226 458916 471488 
3604.149 485386 497759 505190 505687 496300 476032 445085 405418 360913 
3608.489 315981 275431 241912 215955 195369 176043 154630 128711 98286 66140 
3613.310 36979 14943 2882 132 4174 9874 12259 7554 -5997 -27997 -56059 
3618.614 -86040 -113369 -134933 -147951 -151727 -146758 -134735 -118007 
3622.472 -99688 -81700 -65898 -52911 -42674 -34325 -28693 -27632 -35717 
3626.811 -58742 -101974 -167493 -250354 -337835 -413580 -463066 -480641 
3630.669 -470447 -443107 -410502 -382893 -366440 -362600 -368757 -380146 
3634.526 -391798 -401034 -407456 -412885 -419506 -428774 -440525 -453136 
3638.384 -464456 -473028 -478357 -481071 -482130 -482031 -480806 -476603 
3642.241 -467865 -453500 -433276 -409112 -383886 -361209 -345351 -339590 
3646.098 -346377 -367367 -402590 -450190 -507581 -570623 -634252 -692512 
3649.956 -740212 -772263 -785592 -779209 -755428 -717884 -672663 -626510 
3653.813 -586473 -558611 -547493 -554243 -576315 -607055 -638950 -665020 
3657.671 -681132 -687186 -685168 -678353 -669520 -660223 -651224 -642027 
3661.528 -632664 -623036 -613672 -605169 -597360 -589948 -581675 -571120 
3665.385 -557751 -541569 -524195 -508839 -499870 -501790 -518602 -551397 
3669.243 -598319 -651688 -700385 -733464 -743752 -730521 -699856 -662903 
3673.100 -632796 -621381 -637825 -683315 -750301 -821873 -879182 -910165 
3676.958 -913240 -895980 -869725 -844560 -825511 -813341 -804610 -794589 
3680.815 -779771 -759298 -734953 -709879 -687086 -666675 -647552 -627436 
3684.673 -605003 -581312 -560332 -547625 -549511 -569895 -608146 -658933 
3688.530 -713253 -762308 -799616 -823527 -836193 -841087 -840790 -836590 
3692.387 -828488 -816284 -801170 -785229 -771337 -762241 -758769 -760522 
3696.245 -764193 -765979 -762870 -753245 -738459 -721622 -707299 -700154 
3700.102 -702965 -716859 -739617 -767269 -793762 -814333 -824519 -822766 
3703.960 -809273 -786221 -756751 -724103 -691321 -661183 -635443 -615227 
3707.817 -601496 -594911 -596202 -606657 -626907 -657047 -696283 -741469 
3711.675 -787511 -828554 -859242 -875214 -875413 -861656 -837020 -806065 
3715.532 -772892 -741105 -712724 -688542 -667965 -650199 -634417 -620653 
3719.389 -609768 -603183 -601992 -606293 -614764 -624888 -633987 -639744 
3723.247 -641564 -640373 -638619 -639016 -643053 -650861 -659959 -667072 
3727.104 -667965 -659992 -642788 -618602 -591338 -566421 -549577 -544415 
3730.962 -552986 -573866 -603746 -636998 -669520 -699327 -727576 -757181 
3734.819 -790653 -827628 -864831 -895253 -912446 -912083 -894261 -862285 
3738.677 -821013 -774843 -727709 -681132 -637064 -598319 -570259 -561060 
3742.534 -580352 -635608 -726683 -839500 -948882 -1024488 -1047891 -1018438 
3746.391 -951163 -867311 -787412 -728635 -701146 -706836 -740014 -789164 
3750.249 -840988 -885167 -916778 -934764 -939691 -931524 -910496 -876537 
3754.106 -831993 -781425 -730620 -685697 -651952 -632101 -626410 -632564 
3757.964 -647684 -668130 -691189 -714543 -735482 -750466 -756189 -750566 
3761.821 -734192 -710243 -684804 -664226 -654004 -656220 -669520 -688443 
3765.678 -706836 -718711 -722549 -719968 -715205 -712790 -715867 -725129 
3769.536 -738195 -750599 -758272 -758206 -749937 -734225 -713650 -690494 
3773.393 -666741 -643681 -622572 -603812 -588029 -575951 -568274 -566057 
3777.251 -570458 -582106 -600702 -624789 -650960 -675011 -692677 -701344 
3781.108 -700848 -693140 -681926 -671174 -663730 -660786 -661878 -664590 
3784.966 -666608 -666112 -662804 -657577 -651985 -647850 -645534 -645236 
3788.823 -646096 -647287 -647949 -647817 -646162 -642986 -638024 -631638 
3792.680 -624491 -618701 -616981 -622076 -635708 -657577 -684043 -709317 
3796.538 -726584 -730454 -719340 -696614 -668494 -645005 -635608 -647287 
3800.395 -681760 -733597 -790620 -836358 -857721 -849818 -816383 -768658 
3804.253 -719340 -682091 -666145 -676070 -708391 -752848 -795415 -822303 
3808.110 -826173 -807520 -772462 -729230 -685135 -644905 -609503 -578069 
3811.968 -548783 -521746 -498844 -484778 -484944 -503875 -542065 -594349 
3815.825 -649570 -694232 -718414 -718778 -699459 -670545 -644508 -632598 
3819.682 -642953 -678187 -733233 -795680 -849586 -882588 -888573 -870353 
3823.540 -835300 -793563 -754072 -722846 -702767 -692776 -689369 -687285 
3827.397 -682488 -672630 -658106 -641034 -624392 -611091 -602985 -600404 
3831.255 -602455 -607518 -613010 -616385 -615690 -610330 -600702 -588657 
3835.112 -577804 -572311 -576216 -592231 -619992 -656022 -693603 -725129 
3838.969 -745141 -750962 -743884 -728172 -709118 -691685 -679345 -673589 
3842.827 -673854 -677724 -682091 -683514 -680007 -669983 -653904 -632697 
3846.684 -608411 -582304 -555534 -528332 -500863 -473723 -448436 -428807 
3850.542 -421426 -434468 -476471 -552920 -661911 -790917 -916646 -1014009 
3854.399 -1066599 -1071458 -1037710 -979860 -911322 -841683 -777192 -720597 
3858.257 -673093 -634947 -605996 -586010 -574594 -570193 -571384 -575885 
3862.114 -582370 -590279 -600205 -612448 -626609 -639744 -647684 -646030 
3865.971 -632796 -609503 -581940 -558975 -549379 -559902 -592231 -640836 
3869.829 -693405 -735482 -756751 -754502 -733928 -704884 -677823 -660521 
3873.686 -655294 -659396 -666245 -668130 -659330 -638288 -607683 -573866 
3877.544 -543455 -522639 -516021 -524327 -544878 -571351 -596367 -612481 
3881.401 -615393 -604805 -584422 -561093 -542330 -535182 -543521 -567116 
3885.259 -599146 -629918 -648115 -646030 -622275 -581576 -532965 -486731 
3889.116 -451945 -435130 -438340 -458597 -489114 -521481 -547658 -563211 
3892.973 -566752 -560001 -545838 -526975 -505827 -484414 -464357 -447906 
3896.831 -436950 -433375 -437678 -449263 -465217 -481998 -495799 -504537 
3900.688 -507945 -508673 -509865 -515458 -527240 -545540 -567347 -589088 
3904.546 -605863 -614301 -612944 -602555 -585051 -563112 -539484 -516385 
3908.403 -495270 -476967 -461576 -448899 -437976 -427748 -417189 -405503 
3912.260 -392262 -377828 -363493 -350979 -342338 -339325 -342801 -352436 
3916.118 -366870 -383423 -399843 -414242 -425630 -434203 -440724 -445722 
3919.975 -449396 -451216 -450587 -447013 -440724 -432846 -425563 -420532 
3923.833 -419241 -421426 -425630 -428874 -428509 -422187 -409906 -392560 
3927.690 -373061 -354753 -341212 -334889 -337107 -348132 -366539 -389614 
3931.548 -414242 -436851 -454162 -463827 -464754 -457571 -444332 -427847 
3935.405 -410932 -396135 -384913 -377563 -373359 -371042 -369088 -366804 
3939.262 -364122 -361904 -361474 -363791 -370115 -379980 -392527 -405172 
3943.120 -416096 -422419 -423147 -417818 -407986 -396036 -384747 -376901 
3946.977 -374054 -376438 -382695 -390540 -397525 -401399 -401299 -397426 
3950.835 -390607 -382231 -373591 -365414 -358329 -352568 -348330 -345715 
3954.692 -344391 -343795 -342801 -339789 -333631 -324062 -311712 -298104 
3958.550 -285687 -276481 -271514 -270488 -272375 -275289 -277243 -277309 
3962.407 -274759 -270256 -264163 -257176 -249560 -241446 -232505 -223034 
3966.264 -213132 -203329 -194088 -185875 -178721 -172660 -168023 -164876 
3970.122 -163320 -163883 -166267 -170308 -175044 -179648 -183093 -184848 
3973.979 -184318 -181735 -176568 -168851 -158186 -144672 -128209 -109792 
3977.837 -90214 -71298 -54005 -39858 -29554 -23358 -20973 -22199 -26141 
3982.176 -32238 -39593 -47644 -55297 -62386 -68482 -73783 -78785 -83556 
3986.516 -88425 -93295 -97568 -100881 -102438 -101974 -99191 -94355 -87730 
3990.855 -79978 -71497 -63215 -55495 -49433 -45457 -43999 -44894 -48803 
3995.195 -55032 -63314 -73286 -84384 -95548 -105916 -114463 -120558 -123969 
3999.535 -125129 -124996 -125062 
##END=
