
##TITLE=Z235b_2_b
##JCAMP-DX=5.01  $$ Nicolet v. 1
##DATATYPE=INFRARED SPECTRUM
##ORIGIN=UniL
##OWNER=Nicolet
##LONGDATE=2011/09/22
##TIME=11:18:27
##SPECTROMETER/DATA SYSTEM=Nicolet iS5
##DATA PROCESSING=
Ratio against background
%Transmittance->Absorbance
Truncated
ElementMultiply or ElementDivide
##COMMENTS=
Number of sample scans: 32
Collection length: 51.16 sec
Sample gain: 2.0
Background collected on: Jeu Sep 22 11:15:12 2011 (GMT+02:00);
Number of background scans: 32
Background gain: 2.0
Sample spacing:  1.000
Number of scan points: 12415
Resolution points: 8192
Number of FFT points: 65536
Apodization: N-B fort;
Phase correction: Mertz;
Laser frequency: 15798.0 cm-1
Number of rejected sample scans: 0
Number of rejected background scans: 0
Bench serial number: ASB1000141;
##RESOLUTION=4.000
##XUNITS=1/CM
##YUNITS=ABSORBANCE
##FIRSTX=649.893372
##LASTX=4000.122314
##FIRSTY=0.109832
##MAXX=4000.122314
##MINX=649.893372
##MAXY=0.249988
##MINY=-0.003185
##XFACTOR=1.000000
##YFACTOR=1.000000E-009
##NPOINTS=6950
##DELTAX=0.482117
##ZPD=6100
##XYDATA=(X++(Y..Y))
649.893 109832456 108543520 107409136 106439360 105620544 104929136 
652.786 104347656 103876440 103531584 103334400 103294384 103396824 
655.679 103600136 103852536 104106048 104335008 104541976 104749864 
658.571 104988168 105276536 105620240 106011464 106437912 106892976 
661.464 107376848 107893632 108443992 109020304 109609056 110195296 
664.357 110772224 111341696 111905880 112457448 112965872 113368760 
667.250 113591856 113590616 113398784 113120056 112878032 112750824 
670.142 112747304 112827896 112927544 112985256 112955728 112825056 
673.035 112607112 112333448 112034696 111725728 111406144 111066864 
675.928 110701936 110317104 109926384 109543856 109172368 108799152 
678.820 108399672 107948680 107434888 106864880 106260568 105646448 
681.713 105039776 104442288 103844744 103233824 102603984 101961104 
684.606 101320520 100697128 100096704 99512352 98928336 98330464 97713552 
687.981 97086280 96467440 95878208 95331520 94829296 94364056 93927488 
691.355 93517488 93141960 92815168 92551840 92359080 92232904 92160920 
694.730 92128760 92129376 92165064 92247616 92390480 92602896 92884800 
698.105 93227288 93617984 94046752 94510128 95009800 95547656 96120440 
701.480 96716264 97317752 97906872 98472808 99015768 99545400 100074296 
704.855 100609112 101146080 101671624 102168736 102624888 103038240 
707.747 103418688 103782552 104145632 104516976 104900072 105297480 
710.640 105718800 106186520 106735136 107402096 108217648 109186688 
713.533 110281136 111433256 112550784 113525456 114253152 114660592 
716.425 114713192 114427544 113866880 113140568 112386280 111740816 
719.318 111334040 111260224 111563336 112235784 113214096 114392264 
722.211 115620560 116734320 117574472 117999088 117922392 117327168 
725.104 116276976 114900376 113370568 111870344 110539416 109463488 
727.996 108663512 108109600 107744176 107508104 107361448 107281992 
730.889 107260440 107289160 107351344 107421824 107475672 107496048 
733.782 107483104 107451480 107423944 107417328 107436256 107471224 
736.674 107506576 107529528 107537424 107538784 107547824 107576472 
739.567 107626944 107692456 107761032 107824352 107880848 107936200 
742.460 107996776 108064472 108132552 108189384 108225128 108239328 
745.352 108244816 108263824 108317768 108417064 108556288 108716280 
748.245 108873304 109008712 109118008 109209304 109297296 109392768 
751.138 109497552 109603432 109699952 109780192 109847272 109911704 
754.031 109985496 110073904 110171672 110265032 110340296 110392120 
756.923 110427880 110464112 110518392 110600488 110707024 110824872 
759.816 110938344 111039344 111131824 111229744 111347312 111492744 
762.709 111663120 111848656 112040264 112239640 112460752 112727968 
765.601 113065888 113488792 113999200 114588416 115245008 115961088 
768.494 116735488 117574376 118491840 119514864 120695576 122130256 
771.387 123950920 126309248 129328488 133026544 137248656 141611488 
774.279 145567328 148440336 149597920 148657600 145568528 140662560 
777.172 134519440 127861384 121343944 115415304 110319664 106076944 
780.065 102562280 99576608 96929728 94482368 92151456 89909400 87760808 
783.440 85725424 83826680 82089432 80539400 79199080 78086408 77209992 
786.815 76568472 76155152 75966256 76007504 76298856 76871160 77756480 
790.189 78983664 80572072 82533496 84881168 87635472 90825600 94483200 
793.564 98623976 103227896 108213392 113435176 118675488 123641072 128010896 
796.939 131435408 133573520 134161216 133030504 130160648 125685376 
799.832 119887408 113154504 105896352 98534168 91429000 84843832 78964672 
803.206 73879808 69599464 66079928 63244752 61007900 59283632 58003572 
806.581 57115672 56580008 56365672 56438112 56749436 57237184 57817188 
809.956 58390120 58859868 59136596 59152696 58872196 58286504 57413488 
813.331 56289168 54965920 53503576 51963596 50410192 48899592 47476496 
816.706 46174076 45009564 43987068 43102088 42345896 41709908 41188164 
820.081 40778192 40478868 40289708 40210788 40243244 40392712 40669636 
823.455 41090544 41674932 42439820 43394552 44534284 45835692 47250904 
826.830 48707840 50115164 51356152 52310748 52868188 52940196 52487720 
830.205 51527620 50135876 48427744 46544324 44630924 42805180 41156764 
833.580 39738008 38564168 37623452 36883872 36304812 35838892 35440652 
836.955 35073172 34708476 34333652 33950300 33571476 33215300 32897870 
840.329 32629286 32410168 32234192 32091934 31976432 31885174 31819924 
843.704 31784094 31779994 31806268 31858824 31932816 32025616 32138244 
847.079 32274560 32439298 32635212 32861664 33115052 33391598 33688868 
850.454 34007556 34350792 34722580 35125764 35561936 36032172 36539316 
853.829 37089668 37693628 38362484 39107236 39935752 40852300 41859804 
857.204 42963580 44173080 45504824 46980160 48621668 50453100 52495908 
860.578 54769444 57291624 60075064 63121164 66409096 69887064 73465928 
863.953 77011864 80368840 83371376 85861072 87724304 88899032 89388536 
867.328 89258288 88630552 87668104 86536904 85401176 84395760 83608592 
870.703 83088320 82841728 82844576 83047720 83385712 83784160 84150880 
874.078 84386576 84390280 84061848 83327304 82149880 80539920 78555128 
877.452 76293520 73882200 71448224 69115088 66990660 65153048 63658976 
880.827 62540464 61804240 61434760 61392812 61622208 62048108 62589256 
884.202 63170516 63724852 64205520 64588972 64871840 65070092 65212996 
887.577 65340264 65492460 65706068 66008716 66411340 66909364 67482656 
890.952 68103880 68743688 69378808 69997720 70599352 71191208 71782776 
894.327 72381560 72987648 73590696 74166592 74674312 75057200 75236080 
897.701 75120816 74621304 73656288 72178144 70182480 67715912 64867728 
901.076 61761532 58542968 55348264 52303464 49510628 47036728 44923132 
904.451 43184684 41815220 40793112 40086676 39661584 39483012 39522748 
907.826 39763060 40194576 40815756 41628616 42634996 43833832 45220828 
911.201 46786124 48515100 50383588 52352724 54370448 56368688 58269488 
914.575 60004412 61521032 62798844 63853488 64738096 65534800 66337100 
917.950 67248216 68362360 69751640 71463488 73505880 75843168 78388456 
921.325 81014576 83571552 85902016 87886744 89466696 90663576 91580232 
924.700 92392608 93332152 94631864 96517840 99171992 102696696 107101320 
928.075 112271224 117970744 123804960 129249096 133725960 136614912 
930.967 137397248 135759152 131638376 125271576 117138848 107915336 98304664 
934.342 88949040 80383032 72941592 66795200 61973924 58404900 55960120 
937.717 54491460 53866776 53962736 54661320 55841712 57345048 58971012 
941.092 60497048 61673000 62274292 62144592 61210120 59505952 57159208 
944.467 54374804 51381136 48391816 45588244 43084196 40934616 39145668 
947.841 37690844 36527024 35606496 34887964 34334192 33912324 33595780 
951.216 33359610 33182036 33047688 32945014 32867632 32813564 32782476 
954.591 32774974 32791660 32832574 32897618 32986696 33099998 33237546 
957.966 33398860 33583000 33788532 34014044 34258460 34521240 34802592 
961.341 35102952 35422392 35760704 36116780 36489504 36877956 37281772 
964.716 37701652 38138464 38592920 39065324 39554976 40060584 40581556 
968.090 41118080 41671576 42244912 42840724 43461384 44107168 44777828 
971.465 45472520 46191176 46935676 47709636 48517992 49365416 50255716 
974.840 51190860 52171848 53199400 54275300 55402576 56585068 57827596 
978.215 59134888 60512472 61967428 63509716 65152816 66914008 68811272 
981.590 70862096 73080952 75476928 78053128 80804760 83717896 86763024 
984.964 89889432 93025656 96070376 98898952 101384584 103400480 104847040 
988.339 105669352 105861296 105471696 104593440 103363784 101939864 
991.232 100480768 99145096 98060832 97321320 96985352 97071488 97568672 
994.607 98442800 99650632 101144616 102878680 104814312 106915392 109148176 
997.982 111482808 113888544 116335448 118793984 121228200 123592888 
1000.874 125833080 127876552 129643680 131058264 132052240 132583784 
1003.767 132642416 132252664 131470976 130382792 129101216 127748024 
1006.660 126454416 125350936 124545328 124126920 124155928 124661784 
1009.552 125650688 127110552 129021288 131357296 134092184 137199568 
1012.445 140647344 144399408 148416928 152657072 157079536 161646240 
1015.338 166312528 171022688 175698960 180228096 184475440 188287952 
1018.231 191512592 194032304 195777792 196748992 197015728 196722512 
1021.123 196075936 195305824 194667536 194398672 194684032 195659488 
1024.016 197388704 199869808 203044976 206817344 211070144 215664640 
1026.909 220458208 225302592 230032944 234490384 238524240 242005648 
1029.802 244853248 247034592 248568880 249512592 249951616 249988256 
1032.695 249722192 249254768 248672704 248032528 247352640 246597936 
1035.588 245683616 244474160 242813280 240554832 237574128 233799536 
1038.481 229213856 223851424 217790016 211144048 204062704 196709408 
1041.374 189259696 181888864 174741056 167932336 161540816 155603696 
1044.267 150132896 145121888 140555936 136418768 132695168 129372400 
1047.160 126439032 123886312 121709248 119906840 118480968 117432632 
1050.053 116756944 116438320 116447768 116741824 117270736 117982872 
1052.947 118828752 119768080 120763704 121775424 122757112 123646792 
1055.840 124367440 124838328 124974968 124704872 123980456 122781472 
1058.733 121124400 119061648 116686632 114123296 111511808 109009104 
1061.626 106759920 104886616 103489408 102631392 102344304 102631976 
1064.519 103473304 104826120 106626608 108798600 111247392 113864680 
1067.412 116545600 119184008 121686440 123982176 126015064 127745360 
1070.305 129145992 130195616 130879792 131191384 131133096 130717816 
1073.198 129970032 128927784 127640176 126170160 124599224 123017464 
1076.091 121523712 120218672 119186232 118491808 118176128 118251600 
1078.984 118708928 119518488 120638536 122010352 123559280 125200224 
1081.877 126830784 128348008 129667120 130730632 131530224 132107976 
1084.770 132558064 133005112 133587048 134445392 135695760 137424160 
1087.663 139678160 142457008 145706512 149309040 153099328 156854432 
1090.556 160316256 163239440 165396176 166620336 166830368 166027088 
1093.449 164293088 161767824 158640000 155110944 151366224 147573264 
1096.343 143850848 140268144 136850656 133583752 130426824 127322032 
1099.236 124211280 121039848 117763496 114356784 110814816 107158104 
1102.129 103430632 99700896 96054136 92575664 89350920 86451344 83926680 
1105.504 81811248 80121640 78860760 78023272 77597944 77569416 77917088 
1108.879 78615760 79634224 80931528 82460376 84163224 85968968 87799368 
1112.254 89562752 91157200 92486816 93460992 94008936 94091472 93699128 
1115.630 92853288 91597368 89993648 88113120 86026808 83808392 81524128 
1119.005 79229424 76971664 74784976 72693024 70713248 68857552 67135928 
1122.380 65557072 64125812 62842800 61702292 60693960 59805184 59026088 
1125.755 58354680 57800152 57383012 57129388 57067788 57220364 57596336 
1129.131 58190380 58981644 59937464 61013008 62156904 63313864 64421488 
1132.506 65419996 66255732 66886364 67292232 67478864 67479176 67345008 
1135.881 67142936 66943264 66804320 66769892 66860936 67072704 67375968 
1139.256 67719440 68041056 68267472 68328432 68166560 67737024 67015788 
1142.632 65997608 64693100 63125684 61327784 59341100 57210988 54986192 
1146.007 52717844 50451944 48229908 46086048 44043944 42119340 40320244 
1149.382 38649308 37106164 35689116 34396664 33227350 32180202 31254054 
1152.757 30447428 29759486 29189700 28738424 28405996 28192040 28095456 
1156.133 28113802 28244334 28485382 28837346 29303576 29889162 30599496 
1159.508 31438358 32406346 33500530 34714436 36037860 37457888 38955856 
1162.883 40506692 42079728 43634816 45127332 46512868 47745584 48786020 
1166.258 49602880 50171768 50479820 50524820 50316240 49873592 49224520 
1169.634 48403260 47443712 46380008 45244436 44064480 42866908 41677300 
1173.009 40518440 39412876 38380760 37437772 36596012 35863000 35242140 
1176.384 34734892 34341292 34061456 33895380 33842508 33901972 34071664 
1179.759 34349468 34733532 35223204 35818884 36521184 37330484 38246028 
1183.135 39266684 40392168 41624820 42970272 44437744 46037344 47778352 
1186.510 49665248 51694828 53853012 56112564 58433248 60756152 63008756 
1189.885 65110436 66973732 68524000 69708072 70501832 70915896 70992248 
1193.260 70797592 70405112 69888768 69312144 68717216 68128144 67550048 
1196.635 66975080 66387012 65767632 65101772 64377912 63589460 62732680 
1200.011 61803816 60798228 59710172 58534812 57272040 55929440 54525568 
1203.386 53087804 51650084 50249876 48919172 47683124 46557788 45548244 
1206.761 44652256 43861948 43168180 42560912 42030556 41568996 41167840 
1210.136 40819252 40517240 40258112 40041512 39870916 39752604 39695056 
1213.512 39706636 39796140 39970952 40237360 40600580 41063484 41626900 
1216.887 42288152 43042268 43881888 44799832 45790480 46849860 47975948 
1220.262 49167412 50422844 51740144 53118324 54559232 56069284 57659296 
1223.637 59345016 61142792 63066760 65126216 67323192 69650616 72090120 
1227.013 74612576 77174968 79716384 82165856 84439184 86444384 88097656 
1230.388 89321736 90056672 90269008 89953248 89140216 87894528 86321856 
1233.763 84557792 82750360 81063048 79648592 78637440 78144552 78255512 
1237.138 79031720 80517224 82737008 85699672 89392480 93780216 98795288 
1240.514 104328688 110242144 116354288 122445920 128288432 133628816 
1243.407 138218112 141846688 144347520 145631072 145693776 144617952 
1246.300 142556256 139703728 136296592 132574024 128760976 125068072 
1249.193 121651504 118605032 115947976 113620784 111494240 109386160 
1252.086 107112568 104508544 101466024 97958648 94037864 89823984 85469152 
1255.461 81144920 77006992 73168392 69703288 66635980 63949608 61595140 
1258.836 59504620 57604468 55818724 54084164 52353472 50594840 48795956 
1262.212 46959488 45099616 43236728 41394412 39596788 37864704 36216964 
1265.587 34669144 33232644 31915308 30720464 29646270 28687062 27834486 
1268.962 27079708 26414786 25833578 25331294 24902956 24542982 24244406 
1272.337 23999466 23801526 23645312 23526788 23442604 23388366 23357666 
1275.713 23342944 23336056 23330568 23323542 23315186 23308648 23307982 
1279.088 23317038 23338714 23374658 23425782 23491428 23568450 23649614 
1282.463 23722992 23773106 23783082 23740034 23638874 23485446 23295222 
1285.838 23091174 22900496 22747362 22652262 22630690 22692828 22846256 
1289.214 23096836 23448092 23901220 24453588 25098308 25823910 26613920 
1292.589 27448814 28302152 29142748 29936480 30645362 31236252 31685748 
1295.964 31983316 32135174 32161470 32093752 31965624 31810228 31656556 
1299.339 31525676 31433690 31391266 31403698 31470596 31584750 31733368 
1302.715 31897370 32055616 32188766 32279376 32315176 32288086 32192942 
1306.090 32027900 31794432 31498812 31152836 30773562 30382286 29999956 
1309.465 29644462 29329204 29061470 28844922 28681786 28574586 28526638 
1312.840 28540686 28617016 28752798 28941850 29177296 29453436 29767150 
1316.216 30118378 30507958 30935992 31400706 31898118 32424408 32976828 
1319.591 33555296 34160840 34793116 35447236 36112388 36770260 37397176 
1322.966 37968800 38462392 38862032 39163216 39375248 39523620 39646300 
1326.341 39794000 40019780 40367584 40865952 41516200 42291912 43138864 
1329.717 43988832 44773716 45434260 45936636 46273584 46464188 46545836 
1333.092 46568080 46585564 46646652 46794388 47061540 47467364 48018468 
1336.467 48707768 49518244 50424220 51396912 52409620 53436984 54457468 
1339.842 55453248 56408380 57309732 58146736 58909004 59585336 60160344 
1343.218 60610368 60906444 61014228 60898396 60532164 59899196 58997620 
1346.593 57838684 56445620 54851240 53092896 51215616 49270432 47310200 
1349.968 45395488 43588292 41945848 40522076 39357548 38476908 37890120 
1353.343 37593136 37572036 37803756 38258912 38898956 39671784 40518220 
1356.719 41370576 42159136 42825548 43323192 43623244 43716600 43611960 
1360.094 43335492 42926268 42440880 41949096 41525568 41249080 41184308 
1363.469 41369992 41817664 42511584 43418536 44494968 45695976 46974736 
1366.844 48275968 49539708 50697156 51673968 52406144 52842928 52955468 
1370.219 52740296 52217208 51427648 50426900 49288472 48097712 46941804 
1373.595 45911148 45080428 44495996 44173444 44096792 44233020 44543464 
1376.970 44999420 45587324 46309672 47182084 48230280 49487604 50988816 
1380.345 52766932 54841508 57202296 59789024 62474232 65080024 67375384 
1383.720 69118280 70104672 70176448 69260640 67383552 64692908 61448156 
1387.096 57972372 54613748 51642992 49212796 47360932 46033548 45131560 
1390.471 44541112 44164056 43919536 43743092 43588512 43418904 43207412 
1393.846 42941044 42620412 42260064 41881700 41506464 41148020 40810112 
1397.221 40490068 40184656 39894816 39629240 39402532 39230196 39124132 
1400.597 39088276 39119564 39210976 39356312 39552652 39802568 40112984 
1403.972 40493888 40954712 41500160 42129232 42834580 43604996 44428236 
1407.347 45293972 46195152 47126460 48083348 49060524 50051060 51047396 
1410.722 52043376 53033968 54014744 54978780 55911840 56793316 57597432 
1414.098 58298400 58880924 59343152 59699068 59971772 60188924 60377324 
1417.473 60558488 60754552 60990740 61294248 61692092 62199228 62810516 
1420.848 63503428 64244620 65002360 65751664 66483892 67207176 67944224 
1424.223 68722384 69563216 70475408 71453176 72482056 73545552 74631928 
1427.599 75732272 76835648 77925656 78974488 79945312 80802640 81519888 
1430.974 82090440 82530328 82876656 83178080 83482640 83836440 84279192 
1434.349 84849632 85597128 86582448 87873640 89530944 91574672 93975944 
1437.724 96664472 99549104 102531392 105500128 108334480 110879104 112953112 
1441.100 114389384 115042384 114827256 113731336 111804112 109142800 
1443.993 105864512 102103680 97987664 93625712 89122192 84574912 80092392 
1447.368 75815000 71896816 68482840 65677540 63515128 61969376 60976060 
1450.743 60467760 60389544 60702304 61376324 62373240 63640060 65120832 
1454.118 66755472 68497000 70318376 72201304 74130552 76078272 78005824 
1457.494 79867096 81623880 83260832 84777008 86180896 87485248 88705768 
1460.869 89857680 90950760 91986152 92945696 93790120 94469024 94932896 
1464.244 95159552 95170608 95032976 94832680 94638040 94484600 94368832 
1467.619 94263232 94128344 93924976 93613464 93140608 92432328 91389456 
1470.995 89897904 87873480 85310840 82319904 79098896 75866688 72785080 
1474.370 69923368 67285432 64854072 62628948 60645232 58962892 57635000 
1477.745 56692992 56133304 55929592 56051752 56485468 57238052 58335236 
1481.120 59804956 61661620 63897668 66487132 69398088 72603752 76094416 
1484.496 79870680 83928440 88245416 92752480 97315304 101746416 105792056 
1487.871 109157672 111555024 112718648 112471744 110780304 107780992 
1490.764 103765680 99095640 94133336 89145904 84280120 79597048 75089608 
1494.139 70731256 66518836 62485672 58709256 55293580 52329664 49866120 
1497.514 47894476 46369980 45230832 44421300 43903848 43654088 43655260 
1500.890 43891420 44343096 44986152 45794640 46734204 47762488 48825432 
1504.265 49836128 50673512 51179120 51169500 50504684 49157764 47243812 
1507.640 44960464 42493272 39959548 37408624 34859136 32330702 29852784 
1511.015 27476700 25261932 23253900 21481384 19946878 18633094 17513586 
1514.391 16560294 15748627 15054952 14458631 13943046 13497452 13120610 
1517.766 12817836 12594604 12449903 12372202 12338726 12323965 12308456 
1521.141 12290799 12290015 12336203 12452222 12640757 12887085 13167057 
1524.516 13460949 13758905 14066477 14399818 14779245 15217269 15714409 
1527.892 16260618 16842990 17452600 18087868 18754716 19462372 20218700 
1531.267 21028060 21889458 22796982 23742134 24714216 25701874 26692380 
1534.642 27674132 28635208 29564366 30447676 31269434 32015704 32669470 
1538.017 33215690 33641248 33935968 34091520 34103780 33979392 33736708 
1541.393 33405018 33016298 32592102 32138136 31643302 31089156 30462178 
1544.768 29766476 29026648 28281076 27564284 26890900 26253016 25625244 
1548.143 24979528 24299206 23591294 22884464 22219616 21628358 21119814 
1551.518 20680560 20285216 19910384 19546170 19200858 18894854 18648694 
1554.894 18469254 18344392 18243718 18127938 17950166 17661434 17219836 
1558.269 16607214 15853157 15039894 14268656 13610397 13084959 12674529 
1561.644 12344487 12058980 11785781 11501933 11196614 10874046 10551412 
1565.019 10252390 9997650 9794841 9637044 9506398 9383173 9252231 9108707 
1568.877 8959142 8818286 8701475 8617445 8567258 8546509 8550023 8573780 
1572.734 8614268 8667334 8724564 8774668 8806180 8813180 8801886 8791337 
1576.592 8808007 8871647 8989044 9155234 9360725 9598968 9869710 10179728 
1580.449 10539088 10956475 11435458 11971845 12554255 13168116 13794201 
1583.824 14410847 14993692 15513549 15941279 16252741 16432850 16481956 
1587.199 16417880 16276922 16107367 15965067 15908213 15985074 16233031 
1590.575 16674142 17310858 18123242 19062906 20059050 21014358 21817714 
1593.950 22367540 22577112 22397402 21825796 20907086 19724044 18375258 
1597.325 16965560 15581992 14286702 13122694 12111378 11259823 10564210 
1600.700 10012942 9590398 9279716 9068917 8951600 8927518 9000140 9172392 
1604.558 9443003 9804702 10242688 10734944 11253838 11762529 12217966 
1607.933 12575470 12789786 12825242 12662008 12298912 11756775 11074778 
1611.308 10308507 9515136 8744916 8034853 7401000 6844238 6354587 5918052 
1615.166 5521618 5156459 4821994 4523576 4270300 4070848 3929160 3843508 
1619.023 3806538 3807106 3831140 3864736 3895292 3914984 3923108 3925315 
1622.881 3931668 3950760 3986940 4038039 4098743 4163839 4231252 4301822 
1626.738 4377992 4461206 4550529 4642718 4735060 4826651 4920541 5021020 
1630.595 5132687 5256289 5388145 5520343 5643014 5746683 5824114 5872105 
1634.453 5891853 5889066 5872743 5853466 5841275 5843088 5861794 5896085 
1638.310 5941094 5989131 6031193 6059685 6070403 6064691 6048966 6031797 
1642.168 6020207 6016041 6014966 6007877 5984462 5935317 5856656 5751283 
1646.025 5629487 5505779 5394988 5309348 5256255 5238212 5254210 5300191 
1649.883 5367849 5443535 5508631 5536921 5501517 5387205 5209071 5016193 
1653.740 4863910 4783500 4770569 4801457 4850272 4898591 4937531 4964946 
1657.597 4982944 4994071 4999267 4996417 4981770 4950937 4901306 4833017 
1661.455 4748225 4650488 4544435 4435262 4328292 4229211 4142864 4071651 
1665.312 4014663 3967245 3921604 3867945 3796944 3703264 3586518 3452636 
1669.170 3311484 3174482 3050004 2942940 2854747 2784846 2731260 2689584 
1673.027 2653111 2611809 2554178 2472162 2365308 2244391 2126039 2026959 
1676.885 1954628 1906303 1871660 1838218 1797592 1747787 1694362 1647031 
1680.742 1614205 1597443 1589329 1573267 1529772 1443195 1311767 1153103 
1684.599 998083 874325 791497 743102 714227 691793 666571 635047 597353 
1688.939 555283 510663 465318 421769 384127 357298 345725 350202 366484 
1693.279 384160 388935 366252 307194 215126 107997 11000 -57682 -93891 
1697.618 -108964 -121551 -153217 -220583 -328068 -462338 -595904 -701477 
1701.476 -765714 -792108 -793762 -785394 -778713 -781194 -796441 -824056 
1705.333 -860069 -897898 -931061 -954238 -965512 -965677 -957875 -946336 
1709.190 -934467 -923523 -912446 -898493 -878289 -849818 -813242 -770676 
1713.048 -725129 -678783 -632697 -586606 -540675 -497355 -462801 -444696 
1716.905 -449826 -478258 -521647 -564866 -593985 -600669 -585150 -553813 
1720.763 -516120 -480575 -452573 -433541 -421624 -413878 -407357 -401663 
1724.620 -397227 -395572 -397161 -401299 -406530 -412422 -419406 -429536 
1728.478 -444398 -463893 -485208 -503180 -513737 -516054 -515193 -522077 
1732.335 -551894 -618172 -726220 -865426 -1012058 -1136500 -1220300 -1261401 
1736.192 -1270090 -1261599 -1249177 -1242867 -1247162 -1262326 -1285089 
1739.568 -1310427 -1333814 -1351618 -1362320 -1365458 -1361131 -1350066 
1742.943 -1333418 -1312310 -1287930 -1260674 -1229750 -1193602 -1150974 
1746.318 -1101799 -1047527 -991529 -937575 -888838 -846577 -810927 -780797 
1750.176 -755428 -734754 -718711 -706439 -695985 -684142 -668627 -649471 
1754.033 -629554 -615095 -612845 -628892 -664855 -716958 -776762 -834440 
1757.890 -883249 -922465 -955957 -990571 -1033677 -1088909 -1156096 -1230212 
1761.748 -1304150 -1370941 -1425536 -1465990 -1492671 -1506738 -1510106 
1765.123 -1505648 -1496898 -1487949 -1483260 -1485110 -1492242 -1499870 
1768.498 -1502082 -1494256 -1475897 -1451493 -1428673 -1416288 -1419591 
1771.874 -1437821 -1463315 -1485539 -1496072 -1491516 -1474378 -1449677 
1775.249 -1421969 -1392773 -1361032 -1324004 -1280001 -1229849 -1178038 
1778.624 -1129659 -1090694 -1063955 -1049014 -1042205 -1038701 -1035396 
1781.999 -1030834 -1026339 -1023661 -1023992 -1026669 -1030008 -1031198 
1785.375 -1028520 -1021347 -1009943 -995166 -977380 -956684 -933210 -908842 
1789.232 -886920 -872470 -871180 -887284 -922002 -972025 -1030537 -1090033 
1793.089 -1143902 -1189273 -1226545 -1258196 -1286542 -1313697 -1340619 
1796.465 -1368662 -1399148 -1433429 -1472363 -1515653 -1561183 -1605388 
1799.840 -1644769 -1676556 -1700122 -1716822 -1728703 -1737910 -1745501 
1803.215 -1750979 -1753751 -1753817 -1751936 -1749626 -1748009 -1747415 
1806.590 -1746326 -1742596 -1734709 -1722201 -1706756 -1691408 -1678701 
1809.966 -1669789 -1663617 -1657511 -1648796 -1636220 -1620804 -1605058 
1813.341 -1591655 -1581322 -1572573 -1561414 -1543619 -1515917 -1477482 
1816.716 -1430754 -1379661 -1328496 -1280662 -1238208 -1201631 -1171727 
1820.091 -1148760 -1133294 -1124999 -1122554 -1123975 -1126916 -1130056 
1823.467 -1133360 -1138119 -1145555 -1155766 -1166671 -1174965 -1177576 
1826.842 -1173280 -1164556 -1156328 -1154742 -1164027 -1184416 -1211114 
1830.217 -1236457 -1251919 -1252844 -1239001 -1214584 -1184185 -1151801 
1833.592 -1118753 -1084348 -1046668 -1004158 -957147 -906759 -855406 -803783 
1837.450 -751293 -695522 -633789 -563840 -484877 -397426 -302441 -201077 
1841.307 -93891 17925 132258 246023 355342 457324 552231 644205 739153 
1845.647 842885 957734 1081947 1210149 1334866 1449811 1550289 1634792 
1849.504 1703543 1757302 1795462 1816290 1817056 1795961 1753542 1692932 
1853.362 1618861 1536157 1447584 1354043 1254243 1147222 1033353 914866 
1857.219 795514 678717 566298 458253 352954 249736 148863 53083 -34590 
1861.559 -111647 -177992 -235287 -286581 -333399 -375544 -410369 -434401 
1865.416 -445589 -444762 -435659 -424537 -416659 -415070 -419142 -425497 
1869.273 -430065 -430065 -425265 -417354 -408350 -399545 -390507 -380775 
1873.131 -369916 -358892 -349721 -345185 -346013 -351906 -361275 -371704 
1876.988 -383092 -396598 -415335 -442279 -478357 -522275 -569995 -617576 
1880.846 -662175 -703627 -744479 -787775 -835432 -885696 -934500 -976884 
1884.703 -1008521 -1028619 -1039627 -1045709 -1051493 -1059393 -1069309 
1888.078 -1079588 -1088645 -1095817 -1101666 -1106987 -1111515 -1113432 
1891.454 -1109565 -1097271 -1075721 -1047064 -1015860 -986637 -962206 
1894.829 -942402 -924449 -904015 -878256 -846478 -810397 -772363 -733597 
1898.686 -693670 -650861 -603150 -551166 -497388 -446351 -402094 -366043 
1902.544 -337008 -310719 -283468 -253136 -220682 -189816 -163684 -144009 
1906.401 -129037 -114926 -98463 -78520 -57682 -42078 -36976 -45192 -65004 
1910.741 -91175 -116351 -135530 -146494 -151197 -152654 -154211 -156960 
1914.598 -160835 -165373 -171699 -183225 -205283 -241248 -291481 -351244 
1918.456 -412422 -467137 -511222 -545242 -574230 -603878 -637627 -675111 
1922.313 -712062 -743156 -765251 -778415 -786684 -794853 -806065 -819658 
1926.170 -832125 -838574 -836755 -827958 -817012 -809207 -808479 -814697 
1930.028 -824254 -832522 -835928 -834738 -831629 -830406 -832985 -838012 
1933.885 -841616 -840161 -831960 -819459 -807156 -799847 -798888 -800839 
1937.743 -799252 -787312 -761679 -724500 -682323 -643350 -614201 -596169 
1941.600 -586176 -578333 -567513 -551894 -533130 -514829 -499407 -487360 
1945.458 -477033 -466111 -453599 -440624 -428774 -418546 -407754 -390408 
1949.315 -360183 -313566 -252573 -184517 -120160 -68482 -33199 -10569 7521 
1953.655 29125 58452 92486 124104 144223 147007 133053 108162 80688 58386 
1958.476 43639 36250 32837 32074 35587 47848 72304 109853 156221 205081 
1963.298 250333 290284 327686 367280 413610 465948 518194 562483 591414 
1967.638 604586 608269 612483 626884 655388 695178 738389 776394 804842 
1971.977 824693 841425 860149 883024 907395 929808 948602 969622 1003695 
1976.317 1063877 1158252 1283054 1421753 1550754 1646865 1696092 1696159 
1980.174 1654614 1585771 1502574 1414008 1324662 1236731 1152405 1075403 
1984.032 1011035 962615 929343 906631 887307 865627 840595 816759 802452 
1988.371 804975 827282 866025 913803 960955 1001370 1033652 1060622 1086995 
1992.711 1115131 1145163 1173535 1196426 1212375 1222476 1230085 1238924 
1996.568 1249491 1261188 1270991 1277238 1281060 1285879 1296546 1315622 
2000.426 1341480 1368735 1388944 1395958 1387681 1367804 1344072 1325659 
2004.283 1319145 1327620 1350155 1384091 1426308 1473815 1522490 1567747 
2008.141 1601767 1617364 1610347 1582844 1543937 1506298 1482957 1482492 
2011.998 1503172 1537553 1572602 1598142 1609382 1608950 1604494 1605757 
2015.855 1619493 1647962 1689572 1741200 1799388 1862942 1929433 1996168 
2019.713 2057753 2108625 2145351 2169393 2186243 2204659 2231935 2269538 
2023.570 2312806 2351249 2374736 2377934 2361910 2333826 2303779 2278830 
2027.428 2260178 2243692 2222743 2193037 2154475 2112820 2075397 2048431 
2031.285 2034016 2029822 2032185 2039509 2053791 2079026 2119712 2175087 
2035.143 2239062 2302114 2354081 2389395 2409252 2419914 2430143 2444771 
2039.000 2464664 2484858 2499155 2502720 2495255 2480726 2464664 2451202 
2042.857 2441039 2430843 2416916 2397358 2373070 2348650 2329595 2318536 
2046.715 2315238 2315271 2313173 2304545 2287124 2260545 2224974 2179017 
2050.572 2120445 2047233 1960319 1865837 1773504 1695427 1641443 1614072 
2054.430 1609183 1615269 1620258 1613905 1592821 1560198 1523322 1488809 
2058.287 1461447 1441433 1426507 1414307 1403537 1395226 1391603 1393465 
2062.145 1400279 1409321 1418329 1426441 1436148 1450941 1473582 1504004 
2066.002 1537487 1566782 1584307 1585571 1570839 1545500 1515741 1487246 
2069.859 1462444 1439439 1415471 1387515 1355373 1321970 1290897 1265441 
2073.717 1245636 1228723 1210614 1187256 1157621 1123071 1087261 1054045 
2077.574 1025150 1001437 981976 965803 952587 943057 937378 934689 932564 
2081.914 927848 917588 900455 877446 851351 824560 798933 773971 747882 
2086.253 719007 686881 653198 620712 591978 567625 546359 524994 500645 
2090.593 471819 439679 407574 379086 357232 342940 336109 336076 342940 
2094.933 357696 381573 413842 451420 488471 518525 536307 540719 534681 
2099.272 524397 515805 513483 518592 529340 542942 557075 571706 588328 
2103.612 608502 633222 660764 688739 714327 736166 754786 772411 790767 
2107.951 810352 829573 846006 857692 865262 871371 880302 895873 919248 
2112.291 948270 978489 1004459 1022659 1032390 1035047 1034482 1034482 
2116.148 1037439 1045144 1057832 1075802 1099253 1127821 1160112 1193204 
2120.006 1223572 1247929 1264909 1275743 1283585 1292093 1303558 1317251 
2123.863 1329348 1335331 1331409 1316487 1292924 1264411 1234837 1206029 
2127.721 1176724 1143933 1104800 1057932 1004625 947606 890860 837507 789207 
2132.060 747085 713630 692158 686815 700521 732581 776792 822934 860514 
2136.400 881431 884551 875454 863867 860249 870673 895873 931601 971449 
2140.740 1009972 1046240 1080252 1114234 1148252 1179482 1203935 1218555 
2144.597 1222808 1221080 1218887 1223107 1236531 1257964 1282223 1302196 
2148.454 1312731 1311236 1297344 1273550 1241383 1202939 1160710 1118486 
2152.312 1081880 1056802 1046672 1050259 1060921 1070454 1072347 1069723 
2156.169 1077363 1118187 1219186 1398750 1657442 1974965 2314572 2636176 
2160.027 2905780 3105764 3234365 3302302 3323671 3314155 3285643 3246116 
2163.884 3201986 3157227 3113473 3069758 3021609 2964324 2892304 2805155 
2167.741 2706287 2603442 2505020 2416782 2340322 2272702 2209122 2146017 
2171.599 2084952 2030887 1992839 1977794 1988878 2022798 2072201 2126904 
2175.456 2178051 2219279 2247722 2261610 2260078 2242992 2211686 2169859 
2179.314 2125040 2086218 2061614 2056354 2070170 2097305 2128902 2156273 
2183.171 2174222 2180815 2177718 2167295 2151644 2132032 2109657 2086584 
2187.029 2067174 2055689 2056621 2070670 2096339 2129002 2164265 2199564 
2190.886 2235265 2272769 2313406 2355580 2394759 2423613 2436341 2430377 
2194.743 2408719 2377501 2345519 2318869 2300348 2288657 2280163 2271469 
2198.601 2262077 2253217 2246922 2243692 2241926 2237397 2226573 2207490 
2202.458 2182247 2156107 2135262 2124540 2125706 2136560 2153509 2172457 
2206.316 2191438 2210487 2230137 2250686 2271036 2288956 2302813 2312773 
2210.173 2320801 2330295 2343220 2359111 2373870 2381566 2377334 2359977 
2214.031 2332627 2302913 2278231 2264408 2262310 2268905 2277598 2283427 
2217.888 2283261 2278264 2271436 2266140 2263742 2263742 2263909 2262410 
2221.745 2257913 2251419 2244025 2235732 2225474 2210953 2190106 2162533 
2225.603 2130267 2096738 2066142 2041040 2021267 2004323 1987081 1968008 
2229.460 1947339 1927336 1910763 1899081 1891228 1884272 1874855 1861611 
2233.318 1845039 1829001 1817355 1813296 1817455 1828003 1841412 1855155 
2237.175 1867401 1879281 1891860 1906902 1924008 1942280 1959587 1974931 
2241.032 1988013 2000528 2013511 2027791 2042339 2055489 2065043 2070537 
2244.890 2072734 2073533 2074998 2077928 2081490 2083754 2082755 2077395 
2248.747 2068606 2058452 2049030 2041706 2036014 2030954 2025561 2020002 
2252.605 2016773 2019103 2029389 2049030 2075664 2104796 2130900 2148847 
2256.462 2155707 2150446 2134263 2109424 2078627 2044836 2011380 1981855 
2260.320 1959554 1946806 1943878 1948870 1958356 1968208 1976030 1981722 
2264.177 1987913 1998265 2015841 2041107 2072001 2103764 2131333 2150912 
2268.034 2161301 2163599 2159803 2152311 2142587 2130933 2117581 2103464 
2271.892 2090413 2080857 2077561 2081723 2093542 2111089 2132365 2155274 
2275.749 2178251 2200296 2220278 2237497 2250519 2258346 2261277 2260811 
2279.607 2260211 2262443 2270104 2283960 2302946 2324632 2346285 2365974 
2283.464 2382798 2396725 2407886 2416216 2420947 2421214 2416549 2407653 
2287.322 2396625 2385697 2377001 2371737 2369838 2370638 2373703 2379167 
2291.179 2387996 2401356 2420081 2443805 2471462 2500587 2529882 2558044 
2295.036 2585076 2611742 2638543 2665213 2690684 2713689 2732827 2747899 
2298.894 2759536 2768740 2776843 2784012 2789648 2792716 2792516 2789281 
2302.751 2783946 2778110 2773275 2769973 2767606 2765138 2761403 2755735 
2306.609 2748666 2741163 2734495 2729226 2725225 2721791 2717890 2713089 
2310.466 2707754 2702420 2697952 2694985 2693318 2692717 2692717 2693618 
2314.323 2695585 2699119 2704287 2710522 2716656 2721491 2724025 2724225 
2318.181 2722725 2720857 2720357 2722891 2729527 2741297 2758036 2779144 
2322.038 2802020 2821896 2832502 2826832 2798752 2745831 2669347 2575809 
2325.896 2473895 2374203 2285792 2214317 2161368 2125040 2101433 2086451 
2329.753 2077062 2072368 2073000 2079726 2093143 2112953 2137693 2166263 
2333.611 2196567 2227239 2256648 2283494 2306711 2325998 2341854 2355879 
2337.468 2369772 2385364 2402789 2421214 2438373 2452268 2461732 2466963 
2341.325 2469763 2472395 2476527 2481959 2487957 2493089 2497622 2504053 
2345.183 2516684 2541213 2582242 2641677 2718423 2808323 2906113 3006194 
2349.040 3103528 3195010 3278198 3351985 3416434 3472142 3520474 3563133 
2352.898 3601753 3638004 3672120 3703933 3733107 3759610 3784611 3810549 
2356.755 3840433 3877372 3923142 3977878 4040213 4107641 4178525 4251428 
2360.613 4325916 4402627 4481292 4561512 4641546 4719384 4793517 4862771 
2364.470 4927075 4986631 5042138 5092925 5139292 5180299 5215844 5245490 
2368.327 5268865 5285266 5293484 5292477 5282348 5264170 5241097 5217689 
2372.185 5198742 5189052 5191231 5206656 5235563 5277754 5333600 5404248 
2376.042 5491215 5595788 5718447 5857999 6012614 6179618 6357277 6544024 
2379.900 6739129 6941763 7150587 7363422 7577305 7788663 7994149 8190751 
2383.757 8376058 8547928 8704720 8844187 8964757 9064959 9144203 9202579 
2387.615 9240925 9260287 9261809 9246442 9215508 9170091 9112429 9044524 
2391.472 8968783 8886730 8799113 8706005 8606866 8501871 8392070 8280000 
2395.329 8169142 8063408 7966981 7882418 7811669 7755638 7714792 7689126 
2399.187 7678941 7684269 7704505 7739077 7787212 7848004 7921188 8006839 
2403.044 8105267 8216649 8340929 8477475 8625286 8783492 8951227 9127656 
2406.902 9312653 9506093 9707820 9918014 10137670 10367820 10610214 10865654 
2410.759 11134162 11413074 11697714 11981927 12258011 12519503 12761224 
2414.134 12979251 13171771 13337451 13475475 13585543 13667428 13722346 
2417.510 13752202 13759726 13748508 13721354 13679910 13625270 13557545 
2420.885 13476979 13384536 13282103 13172352 13058359 12942997 12828860 
2424.260 12717789 12612137 12513978 12426207 12351645 12293424 12253682 
2427.635 12234562 12237153 12262203 12310126 12380998 12474250 12589249 
2431.010 12724647 12878689 13050130 13237693 13440751 13659496 13893779 
2434.386 14143284 14407490 14685635 14976852 15281753 15600469 15934473 
2437.761 16284559 16651763 17036198 17438078 17858148 18297596 18758316 
2441.136 19242764 19752442 20288654 20851182 21439712 22053060 22690732 
2444.511 23352316 24037284 24744452 25471040 26212926 26966024 27725834 
2447.887 28488532 29251720 30013022 30770432 31521362 32263208 32992988 
2451.262 33708528 34407780 35088832 35749080 36383928 36987228 37551372 
2454.637 38068000 38529876 38930448 39264688 39528336 39716764 39824576 
2458.012 39846764 39778164 39615444 39357400 39005080 38561636 38030640 
2461.388 37416568 36724432 35958808 35125980 34232932 33287554 32299150 
2464.763 31277198 30231432 29172408 28110268 27056114 26021540 25017540 
2468.138 24054620 23141460 22283964 21485596 20747216 20068490 19447332 
2471.513 18881496 18368138 17903550 17482712 17100160 16749656 16425554 
2474.889 16124044 15842434 15580171 15337391 15113648 14907681 14716721 
2478.264 14537186 14365431 14198844 14035745 13875579 13718858 13566193 
2481.639 13418572 13276979 13142638 13017113 12901762 12797634 12704791 
2485.014 12622506 12549037 12482843 12422865 12368622 12320557 12279244 
2488.390 12244753 12216466 12193088 12173289 12156320 12142452 12133116 
2491.765 12129539 12133525 12145417 12164737 12190771 12222362 12258897 
2495.140 12299797 12344725 12392999 12442505 12491744 12538567 12581267 
2498.515 12619846 12655152 12688585 12721474 12754536 12787602 12819952 
2501.891 12850667 12879098 12905346 12929786 12953511 12977134 13001886 
2505.266 13027868 13055969 13086427 13119347 13154216 13190078 13225226 
2508.641 13257951 13286271 13308547 13323579 13330344 13327543 13313740 
2512.016 13287330 13247464 13194176 13128841 13054125 12973482 12889508 
2515.392 12804288 12718028 12630590 12540989 12449051 12355839 12263396 
2518.767 12174414 12091413 12016330 11949945 11892390 11843253 11801714 
2522.142 11767839 11741081 11721065 11707415 11699313 11696285 11698054 
2525.517 11704352 11714665 11728963 11746221 11765729 11786870 11809273 
2528.893 11833481 11860381 11890483 11923551 11958903 11994802 12029786 
2532.268 12063408 12096285 12130628 12169166 12213842 12265202 12321818 
2535.643 12381543 12441618 12500235 12557768 12615377 12675826 12741093 
2539.018 12812718 12890738 12974199 13061500 13151279 13242681 13335162 
2542.394 13427901 13520798 13612996 13703606 13792696 13879958 13965868 
2545.769 14050426 14133734 14214764 14292625 14366424 14435338 14499363 
2549.144 14558875 14614522 14667024 14717270 14765293 14811402 14856351 
2552.519 14900515 14944546 14988822 15032930 15076049 15116977 15154407 
2555.895 15187141 15214524 15235766 15250694 15258758 15259617 15253061 
2559.270 15239060 15218024 15190367 15156329 15116015 15068811 15014580 
2562.645 14953120 14885049 14811848 14735266 14657394 14579810 14503577 
2566.020 14429377 14357623 14289577 14226439 14170225 14122472 14083932 
2569.396 14054294 14032493 14016786 14006314 14001079 14001112 14007478 
2572.771 14020550 14039646 14063431 14089921 14117920 14146947 14178338 
2576.146 14213600 14254960 14303583 14359301 14420129 14484083 14548527 
2579.521 14611884 14673124 14732455 14790867 14849561 14909773 14972976 
2582.896 15040717 15114026 15193901 15280449 15373158 15470661 15571001 
2586.272 15671983 15772026 15869686 15964413 16055688 16143989 16229488 
2589.647 16312322 16393242 16472459 16550072 16626045 16699864 16771007 
2593.022 16839132 16904582 16968248 17031614 17096264 17163474 17233972 
2596.397 17307444 17383584 17461670 17542050 17625478 17713062 17806536 
2599.773 17906588 18013710 18127388 18246934 18372008 18502584 18638974 
2603.148 18781634 18930778 19086138 19246608 19411366 19579306 19749912 
2606.523 19922768 20097846 20274384 20452244 20629934 20806130 20979652 
2609.898 21149140 21312984 21470244 21618886 21757094 21883150 21995300 
2613.274 22092628 22174738 22242076 22295020 22334016 22359726 22372634 
2616.649 22373612 22363948 22345004 22318704 22286650 22249992 22209818 
2620.024 22166614 22121286 22074846 22028796 21984600 21943996 21908380 
2623.399 21878654 21855656 21840048 21832346 21833148 21842764 21861022 
2626.775 21887088 21919880 21958598 22002446 22051944 22107794 22171390 
2630.150 22243856 22325192 22415126 22512340 22615330 22722364 22832600 
2633.525 22945066 23059482 23175466 23292774 23410988 23530356 23651084 
2636.900 23774296 23900378 24030000 24163022 24298786 24436552 24575100 
2640.276 24714042 24853204 24992304 25131028 25268674 25403762 25534748 
2643.651 25660498 25780378 25894912 26005570 26114004 26222114 26331518 
2647.026 26442992 26557312 26675114 26796650 26922698 27053786 27190208 
2650.401 27332212 27479594 27632250 27789694 27951930 28118504 28289278 
2653.777 28464014 28642464 28824634 29010388 29200368 29394756 29594266 
2657.152 29798910 30008514 30222302 30439610 30659726 30882232 31106918 
2660.527 31333748 31562406 31792652 32023906 32255604 32487500 32719344 
2663.902 32951448 33183646 33415928 33647764 33878472 34107616 34335480 
2667.278 34562716 34790640 35020948 35255224 35494404 35738900 35988432 
2670.653 36242392 36499776 36759736 37021360 37283684 37545560 37805996 
2674.028 38063768 38317896 38567176 38810796 39047744 39276908 39497744 
2677.403 39709904 39914068 40112040 40306432 40500836 40699000 40904504 
2680.779 41120264 41348708 41591784 41850904 42127480 42422576 42736956 
2684.154 43070916 43424136 43795904 44185552 44592664 45017060 45458540 
2687.529 45916748 46390888 46879680 47381108 47893844 48416152 48947544 
2690.904 49488088 50038008 50598120 51168716 51750220 52342704 52946332 
2694.280 53561296 54187676 54825680 55474784 56134024 56802456 57478728 
2697.655 58161592 58850568 59545240 60245448 60951200 61661732 62376412 
2701.030 63094072 63813076 64531692 65247840 65959000 66662060 67353792 
2704.405 68030704 68688656 69323920 69932096 70508424 71047968 71545368 
2707.781 71995824 72395264 72740424 73029592 73262040 73437912 73557800 
2711.156 73622728 73633600 73591792 73498776 73355984 73164352 72924584 
2714.531 72636776 72300344 71915032 71480720 70998064 70468936 69895856 
2717.906 69281872 68630784 67946704 67233864 66497216 65742032 64973808 
2721.281 64198604 63422172 62650272 61889132 61143896 60420120 59722676 
2724.657 59055888 58423244 57827480 57270452 56753932 56278536 55845364 
2728.032 55454868 55107448 54802860 54540708 54319416 54137644 53993804 
2731.407 53886244 53813820 53775340 53769752 53796080 53853048 53939180 
2734.782 54053164 54193232 54358052 54545520 54753356 54978368 55216592 
2738.158 55463940 55715688 55967732 56216152 56457884 56689896 56909680 
2741.533 57114916 57303680 57475252 57629932 57769572 57897212 58016144 
2744.908 58130032 58241872 58353428 58466004 58580576 58697688 58817560 
2748.283 58941068 59068184 59198944 59333124 59470080 59609888 59753436 
2751.659 59902392 60059348 60227556 60410372 60610944 60832756 61078600 
2755.034 61351100 61652568 61984320 62346504 62738964 63159288 63604960 
2758.409 64072088 64556332 65052776 65555648 66058172 66553204 67032612 
2761.784 67488272 67912840 68299656 68642976 68938864 69183816 69375464 
2765.160 69512200 69593872 69621832 69597992 69526472 69411848 69259056 
2768.535 69073992 68862096 68629312 68381984 68126008 67867432 67611376 
2771.910 67362344 67123640 66897496 66685660 66488832 66307724 66142200 
2775.285 65991512 65853992 65727264 65608016 65492228 65375580 65252536 
2778.661 65117284 64963608 64784676 64574360 64328112 64043136 63719860 
2782.036 63361520 62974164 62564388 62140276 61708896 61276352 60848044 
2785.411 60428268 60019668 59624332 59243072 58875344 58520180 58176512 
2788.786 57843680 57521624 57211328 56914176 56631420 56364200 56112340 
2792.162 55875172 55651316 55439548 55238188 55046064 54861280 54681388 
2795.537 54503592 54324524 54140720 53949980 53750292 53540532 53320384 
2798.912 53089192 52845508 52588352 52315872 52026640 51720284 51396876 
2802.287 51057084 50702332 50333208 49950828 49555676 49148900 48732048 
2805.663 48307556 47878824 47449628 47023988 46606144 46199576 45808224 
2809.038 45435180 45083516 44755972 44454592 44180380 43933284 43712860 
2812.413 43517488 43345856 43196432 43068132 42960288 42872468 42804632 
2815.788 42756588 42728764 42721304 42734944 42770224 42828036 42908676 
2819.164 43013000 43140988 43293176 43469876 43671348 43897396 44147732 
2822.539 44421412 44716344 45030328 45360468 45703704 46057200 46417912 
2825.914 46782652 47148180 47510688 47865468 48207580 48531292 48830880 
2829.289 49100960 49336464 49533468 49689768 49804872 49879908 49917708 
2832.665 49922280 49898048 49850328 49784436 49705708 49619708 49531868 
2836.040 49446760 49368644 49300124 49242816 49197356 49164632 49146004 
2839.415 49144112 49163368 49209160 49287764 49405512 49568304 49782320 
2842.790 50053996 50391404 50804672 51305324 51906312 52619392 53451784 
2846.166 54403532 55463752 56608924 57799020 58981488 60094392 61066548 
2849.541 61832052 62334108 62530516 62402540 61954320 61212520 60219712 
2852.916 59031632 57711480 56318328 54910872 53539668 52243516 51052800 
2856.291 49986328 49052068 48249164 47569464 46999804 46523528 46123260 
2859.667 45782600 45486352 45221968 44979464 44751564 44534176 44325332 
2863.042 44125580 43937320 43763504 43607632 43473028 43362332 43277724 
2866.417 43221320 43194892 43200056 43237792 43308076 43409600 43539980 
2869.792 43694760 43868104 44054392 44246452 44438148 44623324 44797516 
2873.167 44957600 45102848 45235280 45358520 45478444 45601752 45734336 
2876.543 45882276 46049796 46239524 46453420 46692176 46955612 47242960 
2879.918 47552864 47883116 48230872 48593432 48967792 49351276 49741372 
2883.293 50135244 50529548 50920300 51302860 51672324 52024476 52356352 
2886.668 52666300 52954832 53223932 53477152 53718940 53954708 54190344 
2890.044 54431440 54684204 54955092 55250380 55577688 55945420 56363220 
2893.419 56842828 57396852 58038260 58779208 59627868 60585948 61645236 
2896.794 62786280 63975676 65165252 66299544 67316616 68155744 68770040 
2900.169 69128376 69222680 69068128 68700760 68171984 67536272 66851356 
2903.545 66167704 65524860 64954416 64477792 64107732 63852108 63713796 
2906.920 63692852 63787632 63996136 64316660 64748520 65292044 65947316 
2910.295 66713288 67586944 68561560 69625800 70764832 71958320 73180464 
2913.670 74402792 75590688 76706936 77716928 78587096 79292536 79819504 
2917.046 80165712 80339816 80358632 80244112 80017056 79695048 79290272 
2920.421 78808000 78248408 77608088 76882824 76070936 75175256 74204288 
2923.796 73173248 72103304 71016904 69938360 68889392 67886416 66941872 
2927.171 66062728 65251572 64508356 63831300 63217544 62663092 62163900 
2930.547 61714628 61309280 60942012 60606028 60295312 60004676 59729368 
2933.922 59465520 59211172 58964560 58725300 58493452 58269376 58053032 
2937.297 57843948 57640792 57441968 57246408 57053544 56864848 56683064 
2940.672 56512640 56358504 56225580 56117544 56035620 55978552 55940712 
2944.048 55913576 55884932 55839864 55764096 55645064 55474216 55249664 
2947.423 54976152 54665412 54332108 53993504 53665660 53359384 53080992 
2950.798 52830540 52602788 52387976 52174092 51949144 51701512 51422796 
2954.173 51108332 50757260 50372868 49960828 49528828 49084232 48633676 
2957.549 48182368 47733676 47289916 46852404 46422668 46001940 45591412 
2960.924 45192336 44805708 44432424 44073612 43730780 43405832 43100920 
2964.299 42818604 42561024 42329932 42126824 41952416 41807304 41691416 
2967.674 41603852 41543108 41506428 41490172 41489624 41499648 41515764 
2971.050 41533916 41551676 41567756 41582596 41597948 41615960 41639444 
2974.425 41670264 41708012 41749776 41789356 41816828 41818904 41781512 
2977.800 41690868 41535268 41307784 41006236 40634452 40200936 39718256 
2981.175 39201728 38667312 38130508 37605096 37101576 36627120 36185668 
2984.551 35777828 35402836 35059416 34747384 34468360 34226084 34025188 
2987.926 33869264 33758268 33686792 33641212 33601332 33541516 33432964 
2991.301 33251174 32978616 32608672 32147910 31614826 31037514 30445650 
2994.676 29869004 29331084 28845312 28417104 28044064 27719124 27433038 
2998.052 27177298 26944906 26730468 26530470 26341728 26161756 25988614 
3001.427 25820814 25657756 25499888 25347838 25202900 25065872 24937346 
3004.802 24817170 24705378 24601678 24505784 24418150 24338628 24267320 
3008.177 24204500 24150238 24104528 24066948 24037074 24013648 23995368 
3011.552 23980626 23968162 23957552 23949008 23943582 23942568 23947188 
3014.928 23958006 23975374 23999010 24028530 24064146 24106418 24155142 
3018.303 24210072 24269702 24331304 24391828 24448084 24497862 24539968 
3021.678 24574714 24602414 24623418 24638078 24645546 24645054 24636498 
3025.053 24620474 24599328 24576292 24555148 24539302 24531378 24532534 
3028.429 24542282 24559320 24581024 24604098 24625698 24642776 24653190 
3031.804 24656242 24652280 24643056 24631062 24619246 24609742 24604554 
3035.179 24604448 24609392 24619456 24634394 24654244 24679740 24711166 
3038.554 24749396 24794824 24847940 24908606 24976650 25051306 25131380 
3041.930 25215050 25300562 25386022 25470444 25553126 25634204 25713894 
3045.305 25792544 25869906 25945346 26018410 26088706 26156618 26223450 
3048.680 26290682 26359576 26430524 26502648 26573972 26642068 26704534 
3052.055 26759682 26807152 26847472 26881664 26911486 26938384 26963592 
3055.431 26988166 27013236 27039434 27067540 27098258 27131514 27167704 
3058.806 27206752 27248204 27292270 27338636 27386770 27435790 27484746 
3062.181 27532828 27579534 27625152 27670564 27717392 27767546 27822052 
3065.556 27881828 27947018 28017060 28091180 28168422 28247764 28328324 
3068.932 28409394 28490266 28570834 28651488 28732796 28816064 28902644 
3072.307 28993492 29089210 29189594 29294078 29401882 29512230 29624312 
3075.682 29737450 29851364 29965270 30078462 30190724 30301772 30411640 
3079.057 30521074 30630250 30739134 30847654 30954778 31059830 31162306 
3082.433 31262386 31360388 31457412 31554214 31651106 31748410 31846486 
3085.808 31945370 32045950 32149408 32256282 32367110 32481362 32597710 
3089.183 32714520 32830324 32944548 33057344 33169948 33283264 33398718 
3092.558 33516924 33637740 33760776 33885816 34012752 34141880 34273520 
3095.934 34408068 34545456 34685256 34826680 34968620 35110532 35251412 
3099.309 35390756 35528568 35664904 35800244 35935304 36070872 36207164 
3102.684 36344404 36482048 36619192 36754972 36889032 37021616 37153804 
3106.059 37287192 37422928 37561708 37703352 37846520 37989988 38132788 
3109.435 38274504 38415584 38557108 38699908 38844528 38991048 39138780 
3112.810 39287212 39435948 39584884 39734304 39884392 40035152 40186468 
3116.185 40338100 40489704 40641332 40793588 40946668 41100632 41255604 
3119.560 41410816 41565348 41718988 41871556 42023004 42174140 42325552 
3122.936 42477672 42631016 42785324 42940716 43096708 43252984 43408612 
3126.311 43563128 43715608 43865724 44013508 44159656 44304788 44450004 
3129.686 44595124 44739480 44882128 45021912 45158068 45291472 45424292 
3133.061 45558476 45696380 45839008 45985844 46135312 46285084 46433364 
3136.437 46578996 46721768 46862332 47001172 47138576 47274476 47408268 
3139.812 47540000 47670144 47800032 47930952 48064288 48200104 48338260 
3143.187 48477384 48616112 48753692 48889616 49024248 49158212 49292328 
3146.562 49426900 49562212 49698348 49835196 49972800 50111260 50250432 
3149.938 50389948 50529136 50667556 50804632 50940232 51074640 51208344 
3153.313 51341716 51475168 51608848 51742940 51877188 52011512 52145956 
3156.688 52279992 52413208 52545380 52676172 52805772 52935404 53065868 
3160.063 53198424 53333984 53472584 53613400 53755504 53897576 54038496 
3163.438 54177804 54315172 54450816 54584892 54717500 54848684 54978780 
3166.814 55107976 55236532 55364936 55492664 55618812 55742508 55862172 
3170.189 55976852 56086212 56190128 56288720 56382384 56471016 56554080 
3173.564 56631532 56703372 56769980 56832480 56892080 56949760 57005864 
3176.939 57060044 57112080 57161400 57208456 57253968 57299452 57346524 
3180.315 57396244 57449492 57506796 57568076 57633152 57701716 57772748 
3183.690 57845008 57916748 57986076 58051516 58112268 58168788 58222240 
3187.065 58274456 58326976 58381020 58437420 58496220 58557300 58621304 
3190.440 58688132 58758380 58832092 58908548 58987032 59066208 59144916 
3193.816 59221884 59296624 59368716 59437400 59502568 59564244 59622548 
3197.191 59678616 59734008 59790468 59849300 59910948 59974168 60037740 
3200.566 60099648 60158476 60214160 60267332 60319180 60371228 60424500 
3203.941 60479300 60535668 60593608 60653000 60713852 60775932 60839008 
3207.317 60901980 60963784 61023456 61080696 61136764 61192720 61250176 
3210.692 61309888 61371288 61432584 61492020 61547524 61598420 61645424 
3214.067 61689880 61733648 61777996 61823072 61868460 61913276 61956652 
3217.442 61998612 62040004 62081972 62125440 62171396 62219380 62268632 
3220.818 62318008 62366428 62412868 62456864 62498568 62538324 62576704 
3224.193 62614672 62652296 62690036 62727400 62763460 62797384 62828288 
3227.568 62855892 62880708 62903688 62925824 62947968 62970064 62991856 
3230.943 63012928 63033000 63052736 63073344 63095912 63121320 63149020 
3234.319 63177488 63204512 63227736 63246252 63259780 63269556 63277484 
3237.694 63284880 63292704 63300984 63309492 63317852 63326092 63334756 
3241.069 63344300 63354656 63364968 63373864 63379800 63382068 63380800 
3244.444 63377156 63373096 63370524 63370564 63373668 63379348 63387284 
3247.820 63397288 63409404 63424392 63442840 63464084 63487208 63510336 
3251.195 63531504 63548608 63561036 63568516 63571928 63572892 63572468 
3254.570 63571780 63571624 63571624 63571700 63570932 63568860 63565068 
3257.945 63560268 63554788 63549876 63546844 63545964 63547000 63548840 
3261.321 63549720 63547916 63542700 63533768 63522032 63508764 63494956 
3264.696 63481496 63468264 63454688 63440196 63424244 63406684 63387284 
3268.071 63365848 63342236 63315936 63286804 63255480 63222564 63189484 
3271.446 63157224 63126148 63096144 63066444 63036376 63005684 62974968 
3274.822 62945164 62917212 62891244 62866620 62841728 62815532 62787280 
3278.197 62757872 62729044 62702440 62678976 62657848 62636912 62612952 
3281.572 62583828 62548848 62509896 62469912 62432988 62402348 62379128 
3284.947 62362796 62351436 62342640 62334188 62324700 62313684 62300988 
3288.323 62286528 62270696 62253912 62237084 62221712 62209248 62200796 
3291.698 62196744 62196284 62198348 62201944 62206916 62213796 62224236 
3295.073 62239648 62260564 62286416 62315600 62345968 62375688 62403800 
3298.448 62430540 62456828 62483800 62511996 62541576 62572004 62602656 
3301.823 62632888 62663012 62692872 62722848 62753588 62785708 62820092 
3305.199 62858036 62900700 62948956 63002700 63060276 63119052 63176036 
3308.574 63228428 63274956 63315972 63353160 63388892 63425280 63463664 
3311.949 63504316 63546768 63590036 63633500 63676812 63719364 63760652 
3315.324 63799984 63836484 63869260 63898780 63925268 63949764 63972988 
3318.700 63995332 64016260 64035184 64051428 64064524 64075200 64083836 
3322.075 64091408 64097704 64102544 64104692 64103080 64097324 64087184 
3325.450 64072900 64054964 64033188 64007312 63977092 63942192 63903308 
3328.825 63861856 63818828 63775232 63730836 63684644 63634916 63579984 
3332.201 63519040 63451848 63378960 63300984 63217692 63128560 63032584 
3335.576 62929040 62818176 62701100 62579884 62456212 62331124 62204468 
3338.951 62075628 61943084 61805880 61664064 61518244 61369040 61217404 
3342.326 61063500 60906900 60746664 60582368 60413496 60239888 60061708 
3345.702 59878396 59689716 59495232 59295368 59091420 58886012 58682024 
3349.077 58482532 58290104 58104960 57926628 57753788 57584532 57417348 
3352.452 57251396 57086044 56921012 56756424 56592048 56428036 56265632 
3355.827 56105932 55950920 55802448 55661860 55529528 55405364 55288312 
3359.203 55177344 55071228 54968780 54868648 54769632 54670524 54569936 
3362.578 54467760 54364252 54260848 54159264 54061684 53969456 53883508 
3365.953 53804180 53731204 53664500 53603692 53548628 53498444 53451860 
3369.328 53407004 53361520 53313340 53260636 53202244 53137904 53067400 
3372.704 52990616 52907444 52817556 52720352 52615876 52503724 52383564 
3376.079 52254768 52116740 51968600 51809688 51640084 51460212 51271092 
3379.454 51073336 50866912 50651244 50424780 50185900 49933584 49667328 
3382.829 49388024 49097028 48796512 48488276 48173780 47854552 47531720 
3386.205 47206464 46880084 46553068 46226296 45899548 45572532 45244692 
3389.580 44916036 44586640 44257528 43929912 43604852 43283328 42966248 
3392.955 42653712 42345896 42042644 41743208 41446136 41149808 40852264 
3396.330 40551904 40248592 39942980 39637296 39334292 39036288 38744644 
3399.706 38459424 38179128 37901904 37626164 37350736 37075416 36800664 
3403.081 36526232 36251752 35976336 35698900 35418688 35136252 34852816 
3406.456 34570604 34291556 34017340 33748240 33484210 33224348 32968070 
3409.831 32715126 32465898 32220810 31980000 31742920 31508964 31276736 
3413.207 31045164 30813436 30581222 30348956 30117028 29886148 29656734 
3416.582 29429076 29203238 28978898 28755276 28531026 28305194 28076616 
3419.957 27845226 27611876 27378230 27146752 26919558 26697980 26482010 
3423.332 26270546 26061542 25852956 25642640 25430112 25214908 24997498 
3426.708 24778618 24558936 24339118 24120080 23902094 23686216 23472716 
3430.083 23261802 23053366 22846744 22641372 22437212 22234508 22034164 
3433.458 21837050 21643994 21455098 21269764 21087152 20906286 20726850 
3436.833 20549224 20374278 20203080 20036670 19875038 19717594 19562840 
3440.208 19408942 19254332 19097668 18938704 18777688 18616076 18455216 
3443.584 18296454 18140412 17987012 17835292 17684350 17532804 17380792 
3446.959 17229422 17080686 16937722 16802624 16676519 16558504 16445925 
3450.334 16335579 16224124 16109360 15990574 15868587 15744917 15621077 
3453.709 15498302 15376866 15256939 15138385 15021749 14907749 14797380 
3457.085 14690912 14587862 14486893 14385946 14282900 14176627 14066545 
3460.460 13953174 13837471 13721081 13605509 13491812 13381051 13274041 
3463.835 13171053 13072051 12976212 12882682 12790469 12699025 12608555 
3467.210 12519877 12433878 12351680 12273007 12196394 12120134 12041572 
3470.586 11959073 11872027 11780912 11687434 11593228 11499824 11407971 
3473.961 11318315 11230784 11145584 11063017 10983830 10907851 10834977 
3477.336 10764425 10695039 10625902 10556334 10486268 10415705 10344847 
3480.711 10273730 10202251 10130445 10058820 9988903 9921946 9859642 9802500 
3484.569 9750176 9700739 9652086 9601846 9548396 9491666 9432810 9373760 
3488.426 9316681 9263163 9214391 9170429 9131039 9095781 9064113 9035593 
3492.284 9009848 8986643 8965434 8946188 8928600 8912907 8898803 8886797 
3496.141 8876720 8868671 8863193 8860961 8862820 8869787 8882402 8900190 
3499.999 8922613 8948217 8975717 9004808 9035694 9069290 9107286 9150328 
3503.856 9199331 9253720 9313059 9376435 9443714 9514594 9589043 9667027 
3507.713 9747974 9831409 9916726 10004465 10095072 10190176 10291101 
3511.089 10398261 10511523 10629772 10750805 10872925 10994059 11113290 
3514.464 11229357 11341544 11448861 11550760 11646931 11738085 11825276 
3517.839 11909792 11992384 12072675 12148688 12217420 12275393 12319773 
3521.214 12348816 12361873 12359077 12340976 12307978 12259714 12196053 
3524.590 12116931 12022427 11913607 11791262 11656019 11508432 11348992 
3527.965 11178595 10999156 10812828 10622302 10429721 10236310 10042103 
3531.340 9846593 9648494 9446966 9241434 9031432 8816865 8597707 8374031 
3535.198 8146488 7916970 7688283 7464098 7248114 7042441 6847772 6663587 
3539.055 6487786 6318781 6155521 5997664 5845607 5699176 5557258 5417466 
3542.912 5276881 5132452 4982542 4826986 4667602 4506502 4346431 4189397 
3546.770 4037102 3890344 3750486 3617957 3493819 3377563 3268216 3163201 
3550.627 3059747 2955017 2848210 2739696 2631409 2525982 2425512 2330895 
3554.485 2241926 2157472 2076862 1999563 1926072 1856187 1790139 1726929 
3558.342 1664825 1602099 1537221 1470556 1403238 1337192 1274181 1215664 
3562.199 1161508 1111012 1062814 1015352 966700 914700 856763 789605 711008 
3566.539 620082 519620 415102 313892 223414 148565 90365 46456 12027 -17858 
3571.361 -47644 -79779 -114761 -151826 -189849 -228167 -266746 -306183 
3575.218 -347370 -390805 -436056 -482561 -529622 -577043 -624955 -673457 
3579.076 -723078 -772991 -821840 -867972 -909504 -944881 -973578 -995629 
3582.933 -1011265 -1022108 -1029181 -1034735 -1041015 -1051493 -1069111 
3586.308 -1096907 -1135773 -1184746 -1239761 -1295363 -1345706 -1386564 
3589.684 -1416288 -1435542 -1447266 -1455819 -1465065 -1478836 -1499638 
3593.059 -1528167 -1563692 -1604332 -1647344 -1690121 -1730023 -1765862 
3596.434 -1796649 -1822056 -1842645 -1859043 -1872536 -1884710 -1897213 
3599.809 -1911563 -1927958 -1946464 -1965266 -1982846 -1996764 -2005505 
3603.185 -2008770 -2006989 -2001712 -1994786 -1988453 -1984693 -1984594 
3606.560 -1990201 -2002009 -2020082 -2044058 -2071792 -2100843 -2128244 
3609.935 -2152313 -2172721 -2190623 -2208557 -2229325 -2253882 -2281702 
3613.310 -2309981 -2334699 -2352495 -2361360 -2361986 -2357438 -2352462 
3616.686 -2351506 -2358954 -2376947 -2405747 -2443376 -2486470 -2530284 
3620.061 -2570010 -2601663 -2622807 -2632490 -2631864 -2622972 -2608711 
3623.436 -2591452 -2572052 -2550147 -2524355 -2493157 -2456555 -2417906 
3626.811 -2383966 -2364919 -2370818 -2408383 -2475235 -2560128 -2645235 
3630.187 -2714915 -2760913 -2782971 -2787021 -2781029 -2772436 -2766411 
3633.562 -2764501 -2765851 -2768255 -2769901 -2770263 -2770263 -2771975 
3636.937 -2776749 -2784815 -2795218 -2805950 -2815135 -2821489 -2824945 
3640.312 -2826394 -2826591 -2826328 -2825110 -2821489 -2813720 -2799992 
3643.688 -2779317 -2751233 -2717023 -2678430 -2638615 -2600773 -2569120 
3647.063 -2547413 -2539178 -2546623 -2570932 -2610555 -2662590 -2721336 
3650.438 -2779712 -2829685 -2865204 -2881628 -2878370 -2857929 -2826032 
3653.813 -2790543 -2760485 -2744187 -2747117 -2770329 -2809407 -2856283 
3657.188 -2901739 -2938765 -2964928 -2980987 -2989806 -2994808 -2998197 
3660.564 -3000863 -3002047 -3001126 -2997177 -2990267 -2981119 -2970226 
3663.939 -2957787 -2943636 -2926818 -2906314 -2881563 -2853452 -2823826 
3667.314 -2796502 -2776189 -2768551 -2777769 -2805555 -2848712 -2898448 
3670.689 -2943603 -2972958 -2979835 -2964039 -2931294 -2891898 -2857764 
3674.065 -2841602 -2852004 -2890515 -2949362 -3013926 -3070025 -3108879 
3677.440 -3129604 -3136578 -3135986 -3132104 -3126677 -3119308 -3108221 
3680.815 -3093253 -3075059 -3056404 -3039789 -3026726 -3015736 -3003857 
3684.190 -2986680 -2961440 -2928201 -2890482 -2854670 -2828533 -2818460 
3687.566 -2827447 -2853683 -2891601 -2932841 -2970884 -3002607 -3028009 
3690.941 -3049034 -3067295 -3083449 -3096839 -3106247 -3111774 -3113288 
3694.316 -3112728 -3111610 -3111347 -3112268 -3113748 -3114275 -3112630 
3697.691 -3108057 -3101181 -3093318 -3086476 -3082988 -3084501 -3092364 
3701.067 -3106050 -3124242 -3144243 -3162894 -3177202 -3184603 -3184472 
3704.442 -3176413 -3161578 -3141513 -3117400 -3090719 -3061372 -3029391 
3707.817 -2994742 -2958149 -2921388 -2887421 -2860891 -2845881 -2845914 
3711.192 -2861616 -2890713 -2928168 -2966870 -2999908 -3022876 -3033734 
3714.568 -3033274 -3024357 -3010800 -2996355 -2983949 -2975426 -2971148 
3717.943 -2970950 -2974044 -2979440 -2987437 -2998395 -3012281 -3028898 
3721.318 -3046929 -3063610 -3076540 -3083350 -3083679 -3078514 -3070683 
3724.693 -3063379 -3059596 -3060649 -3065584 -3071572 -3074401 -3070420 
3728.069 -3057358 -3035577 -3007345 -2977071 -2950415 -2931656 -2924152 
3731.444 -2928529 -2941891 -2959432 -2975689 -2987569 -2994611 -3000205 
3734.819 -3007872 -3021396 -3041072 -3064202 -3085850 -3100819 -3106247 
3738.194 -3101444 -3087693 -3067196 -3041039 -3009714 -2972958 -2931656 
3741.570 -2888573 -2849107 -2822740 -2818723 -2843676 -2896835 -2965487 
3744.945 -3029194 -3068643 -3074960 -3050219 -3004153 -2949395 -2898711 
3748.320 -2861714 -2844598 -2848449 -2870865 -2906347 -2949362 -2995565 
3751.695 -3041697 -3083745 -3117400 -3137828 -3141414 -3127795 -3099010 
3755.071 -3059826 -3016197 -2974044 -2938568 -2912929 -2899106 -2897361 
3758.446 -2906709 -2925502 -2950843 -2979013 -3004581 -3022712 -3029654 
3761.821 -3024423 -3008958 -2987700 -2966409 -2950284 -2942714 -2943998 
3765.196 -2952225 -2963381 -2973451 -2980823 -2985430 -2989510 -2995302 
3768.572 -3004976 -3018862 -3035412 -3051765 -3064630 -3071835 -3072230 
3771.947 -3066012 -3054957 -3040710 -3024982 -3008990 -2993426 -2978157 
3775.322 -2962756 -2947190 -2931557 -2917767 -2908322 -2906215 -2913752 
3778.697 -2931393 -2957162 -2986318 -3013071 -3032385 -3041894 -3041730 
3782.073 -3034590 -3024916 -3016230 -3010965 -3010175 -3012939 -3018302 
3785.448 -3024818 -3032122 -3040085 -3048903 -3057951 -3066176 -3072230 
3788.823 -3075158 -3074533 -3071210 -3066110 -3060089 -3053739 -3045908 
3792.198 -3035478 -3021132 -3003067 -2982731 -2963480 -2948737 -2941266 
3795.573 -2942056 -2949000 -2957260 -2961440 -2957162 -2942780 -2919972 
3798.949 -2894432 -2873794 -2866487 -2878699 -2912008 -2961177 -3014650 
3802.324 -3058806 -3083942 -3086278 -3069006 -3040512 -3011623 -2992801 
3805.699 -2991912 -3011623 -3047949 -3090950 -3127992 -3149440 -3150920 
3809.074 -3133650 -3102826 -3064399 -3023600 -2983126 -2943998 -2905853 
3812.450 -2868298 -2832187 -2800617 -2777934 -2769045 -2777045 -2801078 
3815.825 -2834623 -2867277 -2888606 -2891799 -2876362 -2847626 -2815892 
3819.200 -2792584 -2788798 -2812139 -2862801 -2932578 -3006259 -3068545 
3822.575 -3108814 -3124670 -3120558 -3104668 -3085554 -3069104 -3058148 
3825.951 -3051502 -3045283 -3034952 -3017118 -2991550 -2960452 -2927740 
3829.326 -2897098 -2871490 -2851938 -2837849 -2827315 -2818295 -2809210 
3832.701 -2799333 -2789029 -2779053 -2771020 -2766608 -2767695 -2776485 
3836.076 -2794296 -2821127 -2855559 -2894070 -2931261 -2962394 -2984212 
3839.452 -2995828 -2998856 -2996190 -2991155 -2986318 -2983324 -2982764 
3842.827 -2984771 -2988490 -2992965 -2996717 -2998296 -2996190 -2988786 
3846.202 -2975788 -2956997 -2933038 -2904668 -2872610 -2836829 -2796897 
3849.577 -2753340 -2707276 -2662821 -2626660 -2607986 -2616846 -2660120 
3852.953 -2737635 -2837454 -2940608 -3027417 -3085094 -3111972 -3112728 
3856.328 -3095260 -3066735 -3032550 -2996289 -2960288 -2926160 -2895255 
3859.703 -2869088 -2848515 -2833800 -2824419 -2819184 -2817341 -2818658 
3863.078 -2823925 -2833998 -2848383 -2865072 -2879061 -2884854 -2877975 
3866.454 -2857205 -2826229 -2792387 -2765061 -2753900 -2765226 -2799268 
3869.829 -2849469 -2903121 -2948572 -2978651 -2992603 -2994907 -2993097 
3873.204 -2993558 -2999185 -3009188 -3019026 -3022876 -3015835 -2995927 
3876.579 -2964994 -2927147 -2888244 -2854275 -2830245 -2819546 -2822410 
3879.955 -2836467 -2856974 -2877514 -2892062 -2897197 -2891799 -2878436 
3883.330 -2861550 -2847461 -2841931 -2848811 -2867837 -2894268 -2919940 
3886.705 -2936297 -2937514 -2922244 -2893807 -2858423 -2823497 -2796700 
3890.080 -2782807 -2784090 -2798148 -2819744 -2842129 -2858949 -2866388 
3893.456 -2863064 -2849700 -2828171 -2801276 -2771646 -2742475 -2716759 
3896.831 -2697826 -2687881 -2688144 -2698287 -2715837 -2736976 -2757620 
3900.206 -2774378 -2785901 -2792881 -2797621 -2803021 -2811415 -2823925 
3903.581 -2839594 -2856843 -2873136 -2886105 -2894597 -2897756 -2895913 
3906.957 -2889133 -2877777 -2862274 -2843610 -2823102 -2802296 -2783136 
3910.332 -2766872 -2753702 -2742903 -2732696 -2721336 -2707342 -2690811 
3913.707 -2673326 -2657881 -2647804 -2646124 -2654390 -2671580 -2695290 
3917.082 -2721534 -2746031 -2765621 -2778790 -2785144 -2785506 -2780699 
3920.458 -2771712 -2758740 -2742573 -2723904 -2704510 -2686465 -2672107 
3923.833 -2663183 -2660153 -2662722 -2668748 -2676059 -2682941 -2687947 
3927.208 -2691338 -2693314 -2694895 -2696838 -2699571 -2703127 -2707704 
3930.583 -2713400 -2720315 -2728580 -2737701 -2746492 -2753735 -2757653 
3933.958 -2757093 -2752056 -2743199 -2732037 -2720052 -2708791 -2698583 
3937.334 -2689692 -2680999 -2671943 -2662425 -2652381 -2643292 -2636178 
3940.709 -2632622 -2633609 -2639274 -2648891 -2661174 -2674413 -2686728 
3944.084 -2696377 -2702765 -2705498 -2704872 -2701876 -2697529 -2692985 
3947.459 -2688836 -2685279 -2682546 -2680142 -2677640 -2675301 -2672832 
3950.835 -2670724 -2668913 -2667102 -2664731 -2661240 -2656004 -2648956 
3954.210 -2640394 -2631238 -2622445 -2614771 -2608546 -2603672 -2599324 
3957.585 -2595372 -2591156 -2586874 -2583580 -2581571 -2581538 -2583317 
3960.960 -2586380 -2589509 -2591222 -2590629 -2587203 -2580978 -2572678 
3964.336 -2563686 -2555088 -2547611 -2541550 -2536741 -2532623 -2528373 
3967.711 -2523531 -2518128 -2512199 -2506269 -2501097 -2496715 -2493190 
3971.086 -2489797 -2485811 -2480605 -2473753 -2465681 -2456719 -2447659 
3974.461 -2438994 -2430954 -2423310 -2415665 -2407329 -2398168 -2388382 
3977.837 -2378199 -2368412 -2359712 -2352561 -2346992 -2342773 -2339939 
3981.212 -2338225 -2337401 -2337632 -2338654 -2340697 -2343531 -2346629 
3984.587 -2350089 -2353022 -2355230 -2356581 -2357043 -2356779 -2356054 
3987.962 -2355329 -2354967 -2355296 -2356351 -2358328 -2361063 -2364128 
3991.338 -2367325 -2370620 -2373718 -2376716 -2379748 -2382615 -2385877 
3994.713 -2389469 -2393226 -2397147 -2400475 -2402716 -2403177 -2401529 
3998.088 -2397872 -2393127 -2388546 -2385713 -2385713 -2389107 
##END=
