
##TITLE=Z240_1_e
##JCAMP-DX=5.01  $$ Nicolet v. 1
##DATATYPE=INFRARED SPECTRUM
##ORIGIN=UniL
##OWNER=Nicolet
##LONGDATE=2011/09/09
##TIME=11:24:41
##SPECTROMETER/DATA SYSTEM=Nicolet iS5
##DATA PROCESSING=
Ratio against background
%Transmittance->Absorbance
Truncated
ElementMultiply or ElementDivide
##COMMENTS=
Number of sample scans: 32
Collection length: 51.21 sec
Sample gain: 2.0
Background collected on: Ven Sep 09 11:02:15 2011 (GMT+02:00);
Number of background scans: 32
Background gain: 2.0
Sample spacing:  1.000
Number of scan points: 12415
Resolution points: 8192
Number of FFT points: 65536
Apodization: N-B fort;
Phase correction: Mertz;
Laser frequency: 15798.0 cm-1
Number of rejected sample scans: 0
Number of rejected background scans: 0
Bench serial number: ASB1000141;
##RESOLUTION=4.000
##XUNITS=1/CM
##YUNITS=ABSORBANCE
##FIRSTX=649.893372
##LASTX=4000.122314
##FIRSTY=0.078099
##MAXX=4000.122314
##MINX=649.893372
##MAXY=0.291695
##MINY=-0.002712
##XFACTOR=1.000000
##YFACTOR=1.000000E-009
##NPOINTS=6950
##DELTAX=0.482117
##ZPD=6100
##XYDATA=(X++(Y..Y))
649.893 78099296 77888432 77794448 77825992 77968192 78184936 78428336 
653.268 78660088 78863736 79051352 79254600 79508912 79840368 80255272 
656.643 80745976 81303160 81928992 82640608 83465816 84425856 85526512 
660.018 86753192 88081464 89490960 90977400 92553232 94235320 96027224 
663.393 97907128 99826216 101725648 103553704 105267880 106840296 108241584 
666.767 109425808 110327480 110879480 111044872 110835216 110294976 
669.660 109465152 108362672 106982744 105318512 103381776 101220952 98918848 
673.035 96569824 94266352 92070760 90009136 88084912 86292880 84631072 
676.410 83105936 81726656 80495328 79402360 78426592 77539904 76714176 
679.785 75928800 75170608 74432376 73709880 72999368 72297056 71601864 
683.159 70917336 70251768 69616576 69023224 68478144 67982344 67530232 
686.534 67112376 66718116 66336712 65958500 65576300 65183388 64775132 
689.909 64349168 63905344 63446060 62975468 62497460 62014436 61526336 
693.284 61031236 60526528 60011412 59487824 58961412 58441552 57939804 
696.659 57466964 57033896 56648636 56315236 56034640 55804144 55618324 
700.034 55471244 55357448 55273032 55215424 55182728 55172496 55181188 
703.408 55204848 55239768 55284208 55338252 55403408 55481784 55574224 
706.783 55681072 55802900 55941728 56102992 56296148 56533588 56832252 
710.158 57213144 57701412 58329932 59132004 60136748 61355680 62768480 
713.533 64312352 65874776 67317392 68490520 69265584 69571936 69405592 
716.908 68835808 67982192 67006552 66085368 65380236 65044536 65202484 
720.282 65932200 67257032 69117224 71362104 73733440 75910920 77563792 
723.657 78395352 78237104 77077816 75076344 72507976 69708736 67002764 
727.032 64616308 62675492 61203516 60153528 59443940 58991584 58733492 
730.407 58621496 58619828 58697992 58824276 58970632 59119284 59264984 
733.782 59415972 59586708 59789864 60029748 60300340 60589724 60886812 
737.156 61186008 61488772 61799388 62120240 62447072 62769896 63076832 
740.531 63360596 63623184 63876288 64135572 64412340 64707248 65007128 
743.906 65287808 65519116 65674612 65736784 65699168 65565548 65346808 
747.281 65060668 64727976 64374104 64027780 63715600 63459100 63270816 
750.656 63151008 63090928 63076944 63097216 63145412 63223140 63336788 
754.031 63495876 63707388 63974364 64294836 64661296 65062248 65480128 
757.405 65893516 66279316 66614544 66884316 67085312 67228648 67336768 
760.780 67437688 67558024 67713824 67910936 68148304 68423960 68743888 
764.155 69126472 69602000 70213832 71013320 72051280 73376936 75022344 
767.530 76987016 79217576 81596488 83949352 86053064 87702408 88767960 
770.905 89247464 89291416 89176992 89245712 89766864 90859336 92412448 
774.279 94107776 95460584 95952872 95215200 93100448 89754024 85538416 
777.654 80958952 76509864 72554336 69312144 66828512 65024024 63746260 
781.029 62833764 62155720 61619076 61176164 60807412 60508168 60280884 
784.404 60132180 60074036 60121788 60294324 60608996 61078180 61710236 
787.779 62511272 63489160 64658180 66039116 67654232 69527136 71677320 
791.154 74120768 76876176 79967656 83426744 87291040 91590128 96332496 
794.528 101485736 106969904 112649112 118328824 123788384 128785088 
797.421 133084472 136512544 138975088 140497824 141224336 141417488 
800.314 141410448 141522256 142026192 143059488 144585824 146373056 
803.206 148025904 149071024 149015392 147508336 144421168 139890928 
806.099 134286336 128117112 121927160 116123696 110932944 106367560 
808.992 102269744 98383040 94447776 90297888 85882872 81277464 76629376 
812.367 72119384 67902688 64074740 60679024 57709696 55134460 52910664 
815.742 50998952 49366532 47983536 46823136 45859484 45067964 44429412 
819.116 43930684 43564044 43325572 43212316 43220076 43345160 43585216 
822.491 43942120 44423024 45039884 45806532 46734680 47831436 49094804 
825.866 50512164 52055140 53679120 55324476 56912780 58362828 59601532 
829.241 60577952 61283220 61757980 62097492 62431232 62915832 63713148 
832.616 64952752 66720932 69027064 71791064 74821744 77821480 80438096 
835.990 82272800 82975832 82328744 80277072 76964032 72683696 67843568 
839.365 62855280 58067876 53748752 50039864 46982008 44541480 42642456 
842.740 41193668 40104592 39301068 38719396 38306532 38022792 37837336 
846.115 37730564 37693412 37721924 37813192 37961132 38155320 38383368 
849.490 38635544 38908128 39204884 39534288 39905640 40323992 40789620 
852.865 41299332 41850644 42445700 43093164 43805684 44596848 45477340 
856.239 46453200 47527728 48705468 49995288 51414108 52987136 54743584 
859.614 56719572 58954468 61488964 64365996 67618800 71256952 75244240 
862.989 79480856 83793568 87921504 91562968 94403832 96157280 96637648 
866.364 95778512 93654192 90456880 86476856 82056336 77513088 73136584 
869.739 69146712 65676420 62795660 60514072 58800904 57597624 56832440 
873.113 56430264 56309840 56392532 56604052 56871268 57135360 57354800 
876.488 57510124 57607156 57674432 57755796 57895852 58130868 58476768 
879.863 58923576 59433944 59949860 60408316 60747580 60924588 60924016 
883.238 60759468 60471000 60111516 59740548 59407844 59146620 58975496 
886.613 58900008 58920388 59039716 59266124 59613200 60096108 60723948 
889.987 61495604 62396572 63402468 64481796 65601812 66735460 67860232 
893.362 68958552 70016912 71022136 71960664 72818744 73581040 74230784 
896.737 74750536 75119864 75320016 75337000 75165560 74813984 74304808 
900.112 73674272 72964408 72219384 71481888 70785384 70157672 69621360 
903.487 69193464 68889152 68722104 68703360 68842680 69148888 69629184 
906.862 70292088 71145848 72198608 73457376 74926144 76604952 78491296 
910.236 80581600 82872968 85364432 88055936 90946264 94030288 97299848 
913.611 100744392 104357512 108143056 112119960 116323712 120799456 
916.504 125597672 130760672 136309456 142231264 148464352 154891728 
919.397 161313872 167457760 172997440 177555392 180790944 182465168 
922.289 182501632 181040464 178440416 175267168 172164704 169809200 
925.182 168819264 169621360 172435040 177205760 183622288 191098832 
928.075 198836960 205981088 211634400 215044992 215727456 213464816 
930.967 208336800 200645568 190864096 179541376 167242368 154549136 
933.860 141979104 129976552 118917752 109054464 100543200 93455240 87785136 
937.235 83485776 80487192 78714368 78085456 78499352 79826560 81871736 
940.610 84368672 87008128 89427976 91284048 92309896 92333264 91322272 
943.985 89373752 86697200 83556896 80223976 76951568 73921520 71247768 
947.359 68981776 67122440 65636808 64476416 63593180 62942528 62486404 
950.734 62194796 62040312 61998112 62048108 62172656 62359200 62599628 
954.109 62888792 63222176 63594216 63997596 64424568 64868616 65325940 
957.484 65796428 66281980 66785232 67307016 67846088 68399672 68965392 
960.859 69543192 70135984 70748024 71383928 72045176 72730936 73437328 
964.233 74160464 74898192 75650904 76421512 77212488 78025248 78858256 
967.608 79708704 80573304 81450736 82342088 83249352 84173840 85113888 
970.983 86064424 87018608 87970232 88916064 89856544 90795872 91738960 
974.358 92689432 93649472 94620368 95603976 96604544 97628832 98683984 
977.733 99775688 100906048 102073672 103275760 104511112 105782408 107097000 
981.108 108463856 109891560 111384656 112943352 114564048 116241080 
984.000 117968392 119737912 121536552 123343368 125126008 126842768 
986.893 128451152 129910248 131191608 132282808 133186888 133920448 
989.786 134508880 134986656 135393568 135772352 136171072 136633024 
992.678 137193424 137875936 138688352 139625808 140675936 141826160 
995.571 143067920 144398656 145819232 147330848 148930416 150611168 
998.464 152364400 154182880 156063824 158006608 160009824 162066080 
1001.356 164157920 166259088 168341024 170377136 172350976 174259104 
1004.249 176108720 177914416 179694592 181471408 183268704 185115328 
1007.142 187044944 189088352 191271440 193606816 196092240 198711504 
1010.035 201440880 204256944 207137824 210064512 213016720 215966224 
1012.927 218876272 221708544 224427008 227010608 229456304 231775472 
1015.820 233983648 236088832 238083088 239942320 241632736 243121120 
1018.713 244387296 245428768 246262688 246921632 247455056 247928272 
1021.605 248416416 249010496 249806208 250886464 252318624 254137312 
1024.498 256343328 258908000 261783840 264916544 268244352 271702944 
1027.391 275216832 278685632 281992992 285007232 287590592 289626272 
1030.284 291018144 291694592 291609280 290730848 289045728 286563584 
1033.177 283325760 279410528 274921056 269982176 264714960 259219056 
1036.070 253576368 247846192 242074112 236305408 230586272 224964560 
1038.963 219492608 214219856 209194048 204464128 200070592 196040880 
1041.856 192374064 189027024 185900336 182835216 179644832 176123328 
1044.750 172092944 167449584 162171248 156331904 150075824 143604048 
1047.643 137130416 130846072 124918016 119460416 114535192 110163184 
1050.536 106327728 102988504 100089816 97574896 95389544 93485768 91826680 
1053.911 90381480 89122512 88023800 87055736 86184696 85377384 84600152 
1057.286 83823504 83026664 82195040 81322808 80411984 79473096 78524880 
1060.661 77593744 76714448 75925248 75263664 74765296 74456912 74356392 
1064.037 74471776 74801232 75332864 76042824 76896512 77844072 78820952 
1067.412 79759064 80586744 81242512 81686576 81901304 81893624 81688776 
1070.787 81325008 80843712 80281816 79672000 79037720 78395000 77755048 
1074.162 77125856 76514368 75929864 75383704 74890000 74464616 74120608 
1077.538 73866328 73702464 73621776 73609736 73648128 73719656 73808752 
1080.913 73902864 73991760 74064456 74109840 74119040 74088776 74027120 
1084.288 73956640 73918144 73964104 74154528 74553448 75216312 76187448 
1087.663 77495592 79147760 81125192 83377848 85828488 88367272 90861176 
1091.039 93180968 95204232 96842016 98051240 98833136 99229408 99304616 
1094.414 99138976 98809848 98383040 97917088 97460056 97053840 96740488 
1097.789 96557240 96533320 96680744 96983992 97390520 97804064 98099536 
1101.164 98125448 97727328 96785736 95225976 93042520 90296704 87112624 
1104.540 83653624 80088048 76585424 73285304 70286280 67654000 65416484 
1107.915 63574500 62110380 60995656 60197220 59677704 59400856 59328752 
1111.290 59420648 59635740 59929512 60253020 60559896 60804172 60946360 
1114.665 60960388 60833100 60566564 60175412 59683900 59120724 58514152 
1118.041 57891684 57276688 56687748 56140468 55645892 55211472 54841580 
1121.416 54537664 54298388 54120080 53995532 53912616 53851548 53787040 
1124.791 53686808 53516956 53250408 52870880 52379712 51795764 51154252 
1128.166 50499472 49873852 49315380 48848456 48482980 48215580 48032604 
1131.542 47914304 47835908 47773028 47703428 47608616 47478640 47312972 
1134.917 47121220 46920540 46732872 46581028 46481888 46445680 46473668 
1138.292 46559080 46687896 46840368 46994784 47125908 47209640 47225340 
1141.667 47156524 46994228 46736896 46389632 45962308 45467260 44918536 
1145.042 44330144 43716304 43092248 42472300 41869692 41294776 40752788 
1148.418 40244120 39764840 39309156 38871636 38449796 38044488 37659332 
1151.793 37299032 36967708 36668116 36402196 36171192 35977168 35822588 
1155.168 35709476 35638648 35608796 35616708 35658540 35731024 35833136 
1158.543 35965324 36129236 36326032 36555100 36814476 37101252 37412636 
1161.919 37746644 38101964 38476076 38864244 39257908 39645356 40013280 
1165.294 40347840 40637652 40873924 41050556 41164380 41214796 41203684 
1168.669 41136220 41020840 40869480 40695032 40510728 40328644 40158156 
1172.044 40007500 39884864 39798716 39759756 39779656 39868956 40037224 
1175.420 40291524 40636380 41076596 41618076 42268504 43038572 43939112 
1178.795 44980604 46172380 47522256 49038452 50731120 52611728 54694012 
1182.170 56991956 59517424 62279608 65283268 68527304 72001064 75678392 
1185.545 79515080 83437024 87341392 91106928 94588400 97640192 100133048 
1188.921 101954696 103030888 103328552 102857984 101670824 99853616 97523176 
1192.296 94804864 91827664 88717112 85576384 82492384 79530472 76729832 
1195.671 74110504 71675056 69413248 67308184 65340840 63495496 61760040 
1199.046 60127652 58595556 57163592 55832028 54600184 53465912 52425880 
1202.422 51476252 50614312 49839064 49151900 48555116 48050520 47637416 
1205.797 47311160 47064124 46885552 46764204 46690440 46656132 46654472 
1209.172 46679632 46724868 46782872 46847716 46915892 46988360 47071216 
1212.547 47175544 47314892 47503328 47754464 48079500 48487092 48984632 
1215.923 49576508 50264752 51048104 51922072 52879788 53913216 55016164 
1219.298 56184624 57417688 58716388 60083132 61520572 63032464 64624616 
1222.673 66305868 68087720 69983672 72005440 74159520 76444784 78850864 
1226.048 81358064 83936328 86548504 89148800 91681784 94089952 96312848 
1229.424 98293240 99987064 101363960 102412168 103139568 103575240 103770768 
1232.799 103796312 103748296 103741656 103897144 104345960 105209064 
1235.692 106587056 108563648 111195032 114512848 118527888 123231536 
1238.585 128595384 134564336 141061040 147976496 155168288 162481856 
1241.478 169743248 176770480 183393216 189438784 194743280 199165776 
1244.371 202584384 204913504 206110464 206172176 205131904 203049920 
1247.264 200013232 196127008 191510640 186297808 180613072 174559952 
1250.157 168210112 161592976 154704960 147525328 140041536 132268072 
1253.050 124262888 116122792 107983992 100005088 92335760 85118360 78462912 
1256.426 72433424 67056508 62317052 58170796 54551680 51385164 48598620 
1259.801 46120388 43890396 41859988 39990136 38254568 36636208 35124328 
1263.176 33712252 32393958 31163018 30012844 28937210 27932318 26996594 
1266.551 26129908 25332278 24601538 23933358 23322036 22762726 22253410 
1269.927 21795974 21394982 21056440 20785240 20584036 20454084 20396502 
1273.302 20414074 20511846 20694914 20966820 21326070 21763956 22264502 
1276.677 22803824 23354658 23884486 24358674 24745082 25014310 25146476 
1280.052 25135452 24990374 24734770 24399994 24020126 23622324 23222336 
1283.427 22824604 22425524 22019768 21605234 21187060 20776238 20387440 
1286.803 20032956 19721858 19458282 19243146 19076894 18960820 18896654 
1290.178 18885094 18924098 19008936 19132672 19288588 19472352 19681362 
1293.553 19913542 20164586 20426508 20687684 20936918 21165804 21373506 
1296.928 21567418 21762318 21975606 22225230 22527414 22894486 23336932 
1300.304 23861590 24469888 25152830 25886894 26634740 27343046 27951294 
1303.679 28405114 28658602 28686176 28484146 28068980 27472710 26736810 
1307.054 25910844 25043618 24180994 23365426 22627338 21985644 21446708 
1310.429 21006082 20652588 20373932 20161082 20009292 19916976 19882980 
1313.805 19903726 19972654 20081778 20224290 20396572 20598106 20829108 
1317.180 21087290 21365988 21654060 21939500 22213444 22473116 22722538 
1320.555 22969728 23222758 23485446 23756202 24028774 24296472 24554342 
1323.930 24801806 25042880 25285392 25540228 25819584 26138390 26513108 
1327.306 26958446 27484606 28090826 28763030 29471804 30178968 30846304 
1330.681 31441990 31950324 32372500 32723914 33026808 33304296 33575660 
1334.056 33853540 34146504 34460648 34801444 35174196 35583408 36031952 
1337.431 36521980 37056180 37639676 38280260 38986880 39765420 40616732 
1340.807 41534504 42507160 43519832 44557892 45607492 46652444 47674952 
1344.182 48653320 49563288 50384256 51102260 51713008 52220164 52629264 
1347.557 52940308 53141576 53205916 53094244 52767532 52192884 51357008 
1350.932 50271228 48973392 47522552 45988312 44450116 42981648 41646520 
1354.308 40498324 39570908 38878556 38413776 38151236 38051724 38070316 
1357.683 38168456 38315180 38490920 38686032 38896164 39121084 39364116 
1361.058 39635660 39955984 40352712 40859252 41502308 42291732 43215720 
1364.433 44240944 45320304 46395460 47407972 48299708 49010556 49488124 
1367.809 49688508 49583532 49167376 48457748 47493240 46322572 45000964 
1371.184 43583568 42118136 40654536 39244740 37942800 36808528 35894956 
1374.559 35235996 34839788 34686548 34740348 34961580 35323540 35819820 
1377.934 36465616 37293072 38346560 39680824 41353048 43423848 45946800 
1381.310 48946540 52391860 56162904 60055812 63768476 66945048 69248520 
1384.685 70371368 70108368 68395448 65346844 61263336 56575292 51786840 
1388.060 47324684 43463688 40321808 37876524 36029036 34649908 33620556 
1391.435 32842082 32237440 31754754 31357396 31022924 30742086 30514320 
1394.811 30344160 30235480 30188450 30197474 30254664 30350734 30478598 
1398.186 30633840 30814324 31019542 31250246 31507574 31792794 32106240 
1401.561 32447368 32814064 33203640 33612896 34040308 34486908 34955512 
1404.936 35448816 35967408 36508356 37066212 37636064 38216828 38812500 
1408.312 39431992 40085660 40781176 41522072 42307072 43132280 43993156 
1411.687 44885140 45799684 46718408 47610984 48436376 49149080 49716516 
1415.062 50128436 50405724 50595064 50764076 50989188 51337988 51864120 
1418.437 52592764 53513208 54580456 55726572 56882032 57984712 58994092 
1421.813 59893604 60691292 61424568 62156368 62970260 63943192 65124408 
1425.188 66522120 68105008 69819536 71608744 73432304 75264416 77090632 
1428.563 78901648 80685960 82432208 84135472 85807696 87479976 89194280 
1431.938 90997208 92923912 94995040 97220968 99615160 102209112 105057584 
1435.313 108232448 111797168 115773744 120109208 124689504 129382360 
1438.207 134076432 138690352 143148352 147361744 151189120 154436912 
1441.100 156901312 158376048 158702880 157802096 155669696 152382560 
1443.993 148080416 142969392 137291328 131290544 125221000 119306488 
1446.886 113740672 108696024 104295072 100597328 97583072 95165368 93217432 
1450.261 91613576 90273864 89176704 88356912 87872792 87776416 88078464 
1453.636 88744504 89698536 90846024 92101360 93388920 94664080 95916752 
1457.011 97177816 98501496 99942776 101555648 103376176 105427640 107723240 
1460.387 110259352 113010488 115918464 118902024 121838760 124562808 
1463.280 126894328 128648264 129694896 130011472 129702224 128966032 
1466.173 128014416 127034056 126146096 125409368 124846672 124452024 
1469.066 124196720 124020792 123827832 123483192 122819096 121687064 
1471.959 120012360 117846720 115362624 112792192 110343672 108140920 
1474.852 106239912 104659552 103413136 102527824 102034696 101945816 
1477.745 102242160 102868608 103751920 104813304 105993784 107265576 
1480.638 108631552 110120096 111770600 113625736 115722880 118099752 
1483.531 120804400 123896528 127444880 131506640 136101344 141172880 
1486.424 146554480 151980720 157064016 161330784 164301200 165515248 
1489.317 164647968 161607184 156578128 150004400 142452000 134493344 
1492.210 126557008 118885992 111594656 104693024 98160680 92011576 86307184 
1495.586 81166368 76736832 73139880 70429928 68579912 67512032 67124368 
1498.961 67321840 68029816 69183432 70720456 72577480 74678480 76939864 
1502.336 79278536 81590736 83755944 85626824 86990232 87576608 87079664 
1505.711 85234544 81973048 77534560 72423488 67172592 62143524 57472264 
1509.087 53142548 49091132 45274848 41685580 38356584 35337020 32660324 
1512.462 30337976 28352056 26666940 25241386 24038020 23025380 22172960 
1515.837 21451200 20835122 20307402 19865396 19517334 19273312 19134508 
1519.212 19087314 19102964 19150230 19206674 19275322 19383718 19571404 
1522.588 19863870 20259004 20732968 21253306 21796914 22355958 22943284 
1525.963 23583212 24301482 25109788 26001876 26958904 27960516 28994234 
1529.338 30059182 31164906 32326098 33556296 34865924 36261012 37742564 
1532.713 39306400 40940368 42622460 44320896 46002420 47636644 49201700 
1536.089 50677496 52045464 53291540 54399064 55355304 56150420 56777984 
1539.464 57228644 57489888 57556044 57434440 57150968 56741396 56234632 
1542.839 55640996 54948436 54135092 53185728 52111436 50953532 49773552 
1546.214 48626228 47534196 46484360 45435844 44343572 43181208 41961724 
1549.590 40734592 39570908 38527268 37622800 36838676 36133772 35468480 
1552.965 34822840 34205256 33644400 33170342 32792944 32492928 32222882 
1556.340 31921938 31519402 30945492 30147110 29112774 27904476 26652426 
1559.715 25499572 24532394 23762326 23150756 22642104 22182828 21726962 
1563.091 21242588 20715590 20154626 19587624 19052070 18580906 18186430 
1566.466 17858768 17571168 17294410 17007148 16705683 16404392 16130200 
1569.841 15909074 15753334 15660098 15615925 15606651 15620665 15649965 
1573.216 15686857 15720146 15735917 15721934 15675006 15609433 15555444 
1576.592 15548953 15611632 15742650 15923303 16129717 16343113 16554993 
1579.967 16768631 16994640 17245314 17528628 17845994 18192478 18560398 
1583.342 18941438 19326486 19704660 20059154 20368270 20609886 20765812 
1586.717 20830324 20813466 20742352 20654464 20591262 20593070 20690638 
1590.093 20905834 21252158 21733476 22342178 23053298 23823718 24588318 
1593.468 25267690 25786390 26078748 26108198 25873212 25407136 24769076 
1596.843 24027374 23253552 22506476 21830394 21259916 20817706 20517614 
1600.218 20365284 20358200 20487950 20743740 21116892 21601022 22190290 
1603.594 22874718 23634956 24438550 25245074 26004830 26666974 27187316 
1606.969 27527532 27661912 27578864 27279852 26778746 26099682 25276750 
1610.344 24351700 23372246 22390808 21452384 20589802 19819198 19138524 
1613.719 18533496 17983318 17468846 16976552 16502986 16057579 15659308 
1617.094 15330834 15089428 14942316 14885084 14904046 14979630 15089771 
1620.470 15214592 15337974 15454180 15568700 15698023 15860992 16071331 
1623.845 16330967 16630417 16955638 17295238 17645524 18008908 18389950 
1627.220 18789558 19201826 19615042 20017030 20400254 20765706 21120196 
1630.595 21472052 21823986 22172228 22504382 22804384 23057594 23253028 
1633.971 23387528 23465964 23501044 23508634 23504718 23501814 23505698 
1637.346 23516540 23528922 23533680 23517764 23466630 23369030 23220590 
1640.721 23027268 22803652 22568526 22336878 22112952 21890118 21651762 
1644.096 21377822 21051154 20665548 20229704 19770022 19323054 18925724 
1647.472 18604838 18370212 18216802 18129390 18088316 18070008 18045140 
1650.847 17981072 17839848 17591938 17236832 16827526 16459795 16215697 
1654.222 16118955 16134325 16206238 16284112 16337160 16352678 16330073 
1657.597 16276648 16200975 16109258 16002502 15877385 15728803 15552868 
1660.973 15349302 15121676 14876855 14624426 14374884 14138458 13923339 
1664.348 13734213 13570433 13425202 13286032 13136730 12958837 12736998 
1667.723 12463168 12140237 11782717 11412156 11051971 10718710 10420117 
1671.098 10155238 9918590 9701450 9493088 9281408 9053693 8800669 8522179 
1674.956 8232351 7957970 7727002 7557379 7449401 7388496 7353110 7323725 
1678.813 7290298 7252528 7219814 7203778 7211594 7241106 7279718 7308696 
1682.671 7312066 7284839 7242858 7218567 7247710 7348190 7512978 7720222 
1686.528 7946159 8174510 8395448 8605244 8802765 8987590 9159735 9320337 
1690.385 9473142 9623764 9778031 9939100 10104433 10265384 10407424 10515054 
1694.243 10576976 10594020 10582849 10573478 10595378 10659824 10755662 
1697.618 10853526 10919778 10921680 10839325 10675411 10464001 10259922 
1700.993 10108842 10026980 9997752 9990191 9971611 9917878 9814734 9658082 
1704.851 9454212 9218656 8971894 8731934 8510487 8310768 8129573 7959354 
1708.708 7791631 7619420 7439188 7251483 7060121 6871066 6689495 6517821 
1712.566 6355899 6201263 6050915 5903071 5757695 5615960 5477928 5341952 
1716.423 5205382 5066911 4931331 4809598 4716905 4663784 4653368 4678185 
1720.281 4725380 4779547 4828159 4865049 4890515 4910822 4934347 4968432 
1724.138 5015758 5074185 5138220 5202330 5262963 5318271 5367212 5407938 
1727.995 5437094 5451152 5447897 5428404 5396666 5356880 5309986 5250051 
1731.853 5163735 5033255 4844744 4598647 4319792 4050815 3836722 3699923 
1735.710 3635131 3617589 3617990 3612945 3587086 3536107 3465094 3386412 
1739.568 3313554 3256898 3220979 3204757 3204423 3216373 3237670 3265645 
1743.425 3297161 3329380 3358830 3383874 3404612 3422612 3439711 3456010 
1747.282 3470138 3478822 3478387 3466063 3440914 3404044 3357962 3306075 
1751.140 3252058 3200517 3155658 3120749 3097288 3083573 3074229 3060815 
1754.997 3034688 2988845 2922191 2840706 2756302 2681649 2624509 2585009 
1758.855 2555844 2526449 2486524 2430610 2359777 2281562 2206124 2142321 
1762.712 2094075 2060549 2037778 2021300 2007652 1994603 1979824 1960785 
1766.570 1934625 1900180 1858815 1815093 1775167 1743096 1718779 1696857 
1770.427 1668983 1627342 1569675 1502906 1441533 1401642 1393099 1415471 
1774.284 1459120 1511485 1560929 1602199 1635091 1663728 1692333 1722770 
1778.142 1753309 1779725 1797758 1806109 1807240 1806342 1808305 1814760 
1781.999 1823877 1830631 1830831 1822612 1808438 1793333 1783119 1781522 
1785.857 1788309 1800985 1816590 1833094 1850729 1870296 1891394 1910397 
1789.714 1921146 1915555 1887900 1837586 1771374 1701847 1641576 1599173 
1793.572 1575827 1566217 1562891 1559965 1554678 1547096 1538783 1530138 
1797.429 1519797 1505001 1483323 1454532 1421521 1389143 1363516 1347728 
1801.286 1342045 1343939 1349656 1356802 1364846 1375017 1388512 1405465 
1805.144 1424579 1442896 1458089 1469393 1477638 1484853 1492799 1501244 
1809.001 1509024 1513712 1514377 1511717 1509157 1510454 1518334 1532499 
1812.859 1549956 1566350 1578388 1584972 1588198 1592056 1601168 1618063 
1816.716 1643106 1674538 1710163 1748186 1788342 1831064 1876685 1924474 
1820.573 1972568 2018104 2059051 2094075 2123108 2145917 2162100 2171424 
1824.431 2173955 2171491 2168228 2168760 2177085 2194136 2216815 2238629 
1828.288 2252484 2253883 2243925 2230036 2223409 2234699 2269071 2324365 
1832.146 2392860 2465331 2534814 2598175 2656845 2714989 2776909 2845275 
1836.003 2920090 3000289 3085208 3175951 3275627 3387514 3513426 3652305 
1839.861 3800454 3952833 4105065 4255008 4402727 4550161 4700392 4856103 
1843.718 5019378 5191633 5372981 5562460 5756756 5949794 6133476 6298038 
1847.575 6434011 6535076 6598620 6626577 6623482 6594179 6541434 6465287 
1851.433 6363968 6236589 6084818 5914055 5732245 5546720 5362783 5181976 
1855.290 5003121 4824775 4646703 4471718 4303997 4147112 4002089 3866641 
1859.148 3736917 3609237 3482462 3358563 3241542 3134365 3037725 2949312 
1863.005 2865087 2782512 2701619 2625576 2558678 2503787 2460099 2422713 
1866.863 2384831 2341488 2292587 2244224 2205792 2186143 2188508 2209588 
1870.720 2240861 2273068 2299915 2319202 2332227 2341122 2347085 2348018 
1874.577 2340788 2321367 2288323 2243092 2189340 2130733 2069704 2006087 
1878.435 1938619 1866303 1790771 1715585 1645301 1583177 1528941 1478669 
1882.292 1426640 1368402 1303160 1234704 1169016 1112374 1067863 1034117 
1886.150 1006618 980282 952188 922801 895508 874491 862672 860647 866922 
1890.489 879206 896637 919082 946942 978954 1012230 1041956 1064242 1077994 
1894.829 1085567 1092510 1104103 1123237 1148186 1173634 1193702 1205696 
1898.686 1211212 1215830 1226430 1247198 1277238 1311435 1342178 1363450 
1902.544 1374119 1377343 1378640 1382628 1390340 1399415 1405963 1407127 
1906.401 1403902 1400911 1403503 1414939 1434020 1454598 1469592 1473083 
1910.259 1463940 1445523 1424313 1405598 1391204 1379737 1368037 1353611 
1914.116 1337292 1321139 1307679 1296845 1284815 1265242 1232743 1186957 
1917.973 1134000 1085135 1050126 1033951 1032589 1035878 1031028 1008909 
1921.831 968061 914500 858954 811448 777058 753956 736000 717214 695310 
1926.170 672611 654426 644935 644603 649382 653629 653364 648187 642778 
1930.510 642612 651539 668396 686881 699492 701019 691328 675564 660996 
1934.850 652966 651738 653032 650245 639128 619650 596623 575588 559530 
1939.189 546027 528809 501110 459978 409564 360614 325232 311704 319629 
1943.529 340652 363599 379849 387443 391920 401339 422266 454306 491622 
1947.868 525459 550406 566198 578939 596524 623599 657877 691062 711639 
1952.208 712137 692390 659636 624063 594234 572303 553060 527449 487907 
1956.548 432780 367578 301922 244100 198485 163116 132556 102429 71873 43672 
1961.369 21239 4671 -11298 -34027 -70238 -119365 -172064 -214589 -232770 
1965.709 -220550 -182364 -133542 -90810 -66528 -63148 -74247 -90744 -106479 
1970.049 -123340 -148779 -190843 -251811 -323301 -389911 -434501 -447443 
1973.906 -429403 -390507 -342504 -291945 -234525 -157358 -47677 98021 267706 
1978.246 437025 578507 670852 706793 693220 645466 580067 507678 432515 
1982.585 354513 273276 192617 119961 62959 27170 11431 10470 16037 23658 
1987.407 32406 46091 68460 99744 134975 166331 186021 191656 187778 183402 
1992.229 188109 206573 236674 270656 301889 326360 346786 370032 402433 
1996.568 445782 495470 541648 575156 591016 591381 583385 574028 566265 
2000.908 556577 535511 494475 428899 342608 246189 151714 69520 3677 -47677 
2005.730 -88193 -119199 -138411 -140796 -123473 -89750 -49996 -18389 -6262 
2010.069 -17858 -47677 -83191 -110355 -120392 -112541 -92467 -67654 -43800 
2014.409 -20045 7024 42413 86322 134975 181281 219568 250200 279741 317374 
2019.231 370497 439413 516767 590850 650377 690797 713265 725611 734241 
2023.570 742240 747484 744795 730822 707324 682202 665410 664348 679779 
2027.910 705599 732282 752263 764677 776162 796244 833457 889997 962018 
2032.250 1040893 1120712 1200347 1283685 1376313 1480298 1590659 1697389 
2036.107 1788841 1857884 1906403 1943511 1981622 2030155 2092044 2161101 
2039.964 2227972 2282761 2321301 2345785 2362309 2376901 2392860 2409485 
2043.822 2424379 2436674 2448570 2466264 2496389 2544279 2610442 2691250 
2047.679 2780978 2874126 2966793 3054608 3132429 3192473 3226120 3227222 
2051.537 3197046 3145779 3090581 3052740 3048736 3084073 3151954 3234666 
2055.394 3312118 3367979 3396530 3402809 3397666 3391989 3392156 3397866 
2059.251 3405080 3409387 3410356 3411458 3418605 3435670 3461821 3491080 
2063.109 3515530 3528625 3528925 3519839 3507714 3498128 3492783 3488875 
2066.966 3481460 3467098 3446291 3424048 3406883 3400070 3404278 3415866 
2070.824 3427956 3434568 3433733 3427254 3419540 3414664 3413562 3414597 
2074.681 3413829 3408820 3400571 3392456 3390019 3396530 3412259 3432765 
2078.539 3452469 3466330 3472876 3473578 3472743 3474045 3478888 3486136 
2082.396 3492817 3497092 3498862 3500132 3503739 3511522 3522278 3533535 
2086.253 3541686 3544158 3541319 3535239 3528524 3522011 3514094 3501034 
2090.111 3479423 3447927 3409154 3368380 3333019 3308579 3297762 3300333 
2093.968 3313888 3336492 3366844 3404745 3449196 3497660 3545160 3586184 
2097.826 3616119 3634062 3643016 3648195 3654878 3666272 3681911 3699187 
2101.683 3715629 3730835 3747913 3771341 3805769 3851999 3907328 3966877 
2105.541 4025765 4081919 4137378 4196423 4262905 4337596 4416417 4492373 
2109.398 4559068 4613415 4657521 4697444 4741023 4792746 4852819 4915648 
2113.255 4973526 5019612 5050551 5067614 5075190 5079482 5084845 5093998 
2117.113 5108011 5127423 5153173 5186805 5229057 5279229 5334539 5391399 
2120.970 5446522 5499034 5550177 5602936 5659396 5719387 5779051 5833148 
2124.828 5876807 5908076 5928800 5943916 5959199 5978045 6000385 6022693 
2128.685 6040701 6050882 6052561 6048093 6040903 6034217 6029748 6027699 
2132.542 6028304 6033511 6046816 6072520 6112506 6164662 6222539 6277465 
2136.400 6320866 6348939 6362724 6368440 6372508 6379872 6391137 6403813 
2140.257 6414002 6418676 6417365 6411480 6401023 6383672 6354823 6308695 
2144.115 6241496 6155152 6056862 5956076 5862634 5780595 5708408 5639120 
2147.972 5565078 5482055 5390493 5295798 5202967 5115354 5031009 4943932 
2151.830 4847157 4736266 4610602 4472253 4323975 4165913 3996003 3813925 
2155.687 3624272 3442250 3291886 3202854 3200284 3293688 3471440 3704133 
2159.544 3954705 4187959 4382310 4529268 4631264 4693827 4723035 4724073 
2163.402 4702569 4665659 4624232 4587596 4562182 4547483 4535295 4513867 
2167.259 4472220 4405739 4317617 4217133 4116003 4022622 3940830 3867778 
2171.117 3798582 3729331 3659389 3592331 3533335 3487406 3456644 3440980 
2174.974 3438142 3444587 3456744 3469570 3475148 3465662 3432197 3370818 
2178.832 3285142 3186765 3093117 3021175 2982940 2979871 3003258 3038025 
2182.689 3070058 3091248 3101193 3106031 3112806 3125955 3144311 3163301 
2186.546 3177587 3184529 3186532 3188301 3194443 3206526 3222014 3235667 
2190.404 3242944 3242644 3237570 3234031 3237236 3249020 3267648 3287846 
2194.261 3305174 3316793 3324372 3331116 3341233 3355992 3374457 3394260 
2198.119 3413161 3432063 3453338 3479790 3511722 3544926 3572286 3585483 
2201.976 3579402 3554347 3516900 3477051 3444387 3425017 3419072 3422645 
2205.833 3429893 3435938 3438876 3439745 3440045 3441381 3443719 3446458 
2209.691 3449597 3454273 3463023 3477987 3499798 3526787 3554380 3579135 
2213.548 3598479 3613346 3626410 3640744 3656849 3672454 3683782 3687057 
2217.406 3682345 3673991 3669280 3675829 3697483 3732105 3773146 3811518 
2221.263 3839028 3853069 3855409 3851731 3847218 3845346 3845547 3844945 
2225.121 3840299 3829836 3814159 3795908 3777191 3759610 3742900 3727092 
2228.978 3713189 3704066 3703498 3714526 3737385 3768334 3801123 3828866 
2232.835 3846884 3855342 3857715 3859353 3865003 3876670 3893219 3911774 
2236.693 3930063 3947584 3966141 3988378 4016134 4048640 4082956 4115334 
2240.550 4142362 4163169 4178759 4191472 4203516 4216296 4230315 4246409 
2244.408 4266720 4294259 4332174 4381306 4439413 4500542 4556624 4600589 
2248.265 4628954 4642952 4647808 4650019 4655009 4664755 4678487 4693860 
2252.123 4708866 4723872 4741291 4763232 4790904 4822162 4852920 4877849 
2255.980 4893297 4898155 4894101 4884216 4870678 4853992 4833017 4806114 
2259.837 4773115 4736132 4699588 4668104 4645364 4632202 4626844 4626576 
2263.695 4629054 4634044 4642952 4658224 4680765 4709938 4742698 4774991 
2267.552 4804137 4829231 4851847 4874699 4899998 4928148 4957841 4986396 
2271.410 5011165 5031042 5046294 5058362 5068989 5078912 5088835 5098323 
2275.267 5107810 5118170 5130206 5144456 5160785 5177583 5192908 5205751 
2279.125 5216381 5227011 5240694 5260246 5287111 5320350 5357550 5395055 
2282.982 5430115 5460782 5486786 5507994 5524940 5537424 5545747 5550311 
2286.839 5553130 5556117 5561789 5571522 5584947 5599983 5613946 5624552 
2290.697 5631199 5634925 5638248 5643887 5653454 5667385 5684774 5704346 
2294.554 5725464 5747858 5771932 5797552 5823913 5848865 5870056 5885640 
2298.412 5895212 5899578 5901023 5901123 5900787 5899612 5896085 5888663 
2302.269 5876907 5861828 5845003 5828581 5813469 5800003 5787076 5773879 
2306.126 5760147 5746716 5735133 5726974 5722979 5722845 5725665 5730365 
2309.984 5736308 5744265 5755379 5770522 5789628 5811589 5834088 5854977 
2313.841 5872508 5886144 5895918 5902467 5905456 5904515 5898571 5887487 
2317.699 5871870 5854070 5837211 5824752 5819547 5823644 5837211 5859746 
2321.556 5888898 5921041 5950533 5970487 5973376 5952582 5904885 5831570 
2325.414 5738658 5635797 5533967 5443468 5370298 5315922 5277821 5250890 
2329.271 5230130 5212055 5195758 5182010 5171917 5166317 5164708 5165881 
2333.128 5168597 5172554 5178187 5186335 5197300 5210982 5226475 5242807 
2336.986 5259676 5277988 5299387 5325516 5357316 5394049 5433839 5474169 
2340.843 5512859 5548868 5582161 5613509 5644055 5674837 5707502 5744265 
2344.701 5788587 5844465 5915566 6003812 6108239 6224656 6346585 6466430 
2348.558 6576855 6671628 6746398 6798327 6826869 6832524 6818152 6787658 
2352.416 6746129 6698647 6650498 6605080 6564576 6530098 6502047 6480522 
2356.273 6466363 6460175 6462798 6474670 6495354 6523943 6559194 6600942 
2360.130 6648917 6703964 6766052 6834308 6906817 6980651 7053151 7122799 
2363.988 7189360 7253943 7318401 7383677 7450412 7517562 7584622 7650916 
2367.845 7716614 7782523 7849016 7915924 7981898 8044945 8104051 8158810 
2371.703 8211179 8264027 8320867 8384200 8455143 8533904 8619845 8712834 
2375.560 8813552 8923324 9043848 9175810 9318543 9470060 9627287 9787520 
2379.417 9948524 10109588 10270643 10432132 10593917 10755526 10914952 
2382.793 11070529 11219734 11360114 11489787 11607010 11710547 11799740 
2386.168 11874955 11937412 11989080 12032102 12068280 12098227 12121702 
2389.543 12137375 12143883 12140101 12125858 12101633 12068894 12029241 
2392.918 11984175 11935335 11884490 11833583 11784930 11740468 11701730 
2396.294 11669633 11644481 11626613 11617118 11617765 11631072 11659831 
2399.669 11705270 11767056 11842436 11927842 12018374 12110833 12203618 
2403.044 12297480 12394873 12498598 12611420 12735395 12871077 13018616 
2406.419 13177031 13345651 13522985 13707983 13899253 14096014 14297864 
2409.795 14505255 14718675 14938476 15163877 15392863 15621867 15846249 
2413.170 16061326 16262751 16447095 16611792 16755097 16876162 16974484 
2416.545 17050740 17106880 17145654 17170404 17184778 17191328 17191500 
2419.920 17185880 17174160 17156410 17133488 17106706 17078102 17049532 
2423.296 17022344 16997364 16975518 16957910 16947162 16946678 16960290 
2426.671 16991746 17043812 17117598 17213080 17329236 17464534 17617678 
2430.046 17787376 17972682 18172506 18386112 18613068 18853362 19107432 
2433.421 19375748 19658550 19954788 20263448 20582992 20912196 21250870 
2436.797 21599696 21959644 22331890 22716674 23113364 23521156 23939380 
2440.172 24368592 24810050 25265302 25735306 26219298 26715000 27219030 
2443.547 27728058 28240514 28756338 29277240 29805156 30341388 30885434 
2446.922 31435150 31987526 32539174 33087804 33631796 34170520 34703308 
2450.298 35228704 35745664 36252724 36748624 37232636 37704108 38161800 
2453.673 38603460 39025632 39423940 39794072 40132280 40435224 40701076 
2457.048 40927296 41111632 41251160 41342696 41382968 41369484 41300644 
2460.423 41175708 40994404 40757264 40465520 40121816 39730164 39296896 
2463.799 38830072 38340044 37836616 37330012 36830056 36345092 35882760 
2467.174 35450036 35053024 34696920 34385832 34122096 33906484 33738572 
2470.549 33617260 33541120 33509192 33520322 33572584 33663340 33788244 
2473.924 33941848 34117868 34309948 34511984 34718708 34925024 35126156 
2477.300 35317464 35494728 35654436 35794312 35913100 36010532 36086680 
2480.675 36141732 36175328 36186856 36176192 36143388 36089776 36016724 
2484.050 35927060 35822912 35706884 35580924 35447160 35307404 35163628 
2487.425 35017140 34869012 34719388 34567556 34412084 34251216 34083028 
2490.801 33905556 33717728 33518140 33306264 33082158 32845690 32597568 
2494.176 32337948 32066890 31783416 31486198 31172914 30841928 30492424 
2497.551 30125338 29743410 29350722 28951554 28549780 28147598 27746390 
2500.926 27346186 26946776 26548398 26152394 25760512 25375062 24997568 
2504.302 24629450 24271384 23923906 23587584 23263480 22952786 22656416 
2507.677 22375042 22108210 21854926 21614150 21384994 21166602 20958962 
2511.052 20761292 20573058 20392996 20220090 20053324 19892624 19738536 
2514.427 19592478 19455718 19329360 19213948 19109820 19017174 18936628 
2517.802 18869176 18815472 18775578 18748906 18733890 18728736 18732092 
2521.178 18743474 18763194 18791980 18829796 18875890 18928322 18984532 
2524.553 19042098 19099780 19157396 19215264 19273868 19332408 19389018 
2527.928 19440436 19483544 19515358 19534142 19539376 19531300 19510368 
2531.303 19477064 19432052 19376580 19312420 19242174 19168998 19095660 
2534.679 19023856 18954210 18886618 18820420 18756032 18694004 18636138 
2538.054 18584192 18539548 18502790 18473712 18451932 18436894 18428286 
2541.429 18426004 18429254 18436478 18445364 18452830 18456392 18454594 
2544.804 18447092 18435060 18420368 18405124 18390502 18377644 18367032 
2548.180 18359012 18353378 18350198 18348366 18346568 18342940 18335820 
2551.555 18324552 18309898 18293690 18278830 18267666 18262034 18261828 
2554.930 18266632 18274786 18284740 18295314 18305440 18313736 18318262 
2558.305 18316536 18306028 18284670 18251564 18207300 18153228 18091218 
2561.681 18023104 17949510 17871404 17789516 17704952 17619646 17536114 
2565.056 17456774 17383516 17317202 17258278 17206634 17162268 17125524 
2568.431 17097124 17077482 17066314 17062938 17066176 17074586 17087476 
2571.806 17104226 17124904 17149516 17177642 17208908 17242694 17278584 
2575.182 17316824 17358274 17403486 17452600 17505308 17560402 17616678 
2578.557 17673202 17730182 17788480 17849136 17912976 17980176 18050286 
2581.932 18122550 18196416 18272402 18351200 18434164 18521878 18614210 
2585.307 18710056 18807930 18906690 19006026 19106670 19209584 19315746 
2588.683 19425260 19537400 19650854 19764440 19877466 19989794 20101352 
2592.058 20212176 20321184 20427030 20527618 20622080 20709960 20792400 
2595.433 20871068 20947870 21024234 21101064 21178850 21258106 21339538 
2598.808 21424536 21514248 21609484 21710380 21816074 21925734 22038662 
2602.184 22154930 22275698 22402148 22535230 22675268 22821530 22972908 
2605.559 23128286 23287252 23450228 23617882 23790922 23969106 24151674 
2608.934 24336912 24523350 24709762 24895552 25080616 25264564 25446658 
2612.309 25625244 25798312 25963744 26120056 26266286 26402072 26527372 
2615.685 26642032 26745832 26839050 26922238 26996594 27064438 27127954 
2619.060 27188692 27247464 27303914 27356810 27404944 27447756 27485382 
2622.435 27519306 27551254 27582960 27616042 27651142 27688538 27728130 
2625.810 27769808 27813362 27858440 27904970 27952426 28000450 28049224 
2629.186 28099274 28151698 28207562 28267884 28332780 28401860 28473706 
2632.561 28546630 28619176 28690070 28758746 28824988 28889010 28951590 
2635.936 29013258 29074580 29136796 29200544 29266536 29335266 29406952 
2639.311 29481200 29557912 29636692 29717614 29800648 29885898 29973366 
2642.687 30062696 30153502 30245286 30338014 30432076 30528182 30627334 
2646.062 30730244 30837550 30949262 31064954 31184236 31306542 31431730 
2649.437 31559628 31690024 31822704 31957318 32093752 32231658 32371074 
2652.812 32512498 32656896 32805060 32958136 33117056 33282474 33454758 
2656.188 33633912 33819296 34009992 34204756 34402044 34600892 34800364 
2659.563 35000440 35201284 35403592 35607680 35813844 36021440 36229964 
2662.938 36438588 36646372 36853144 37058996 37264480 37470316 37677220 
2666.313 37885600 38095488 38306820 38519052 38731676 38944548 39157632 
2669.688 39371480 39587060 39805292 40027448 40254192 40485668 40721820 
2673.064 40961556 41204052 41448032 41692764 41936944 42179764 42419980 
2676.439 42656636 42888852 43116616 43340512 43562612 43785344 44011196 
2679.814 44242600 44481240 44728096 44983876 45249108 45524732 45812164 
2683.189 46112760 46427832 46758296 47104044 47464632 47838984 48226132 
2686.565 48625116 49035224 49455672 49885560 50324356 50771112 51225568 
2689.940 51687664 52157988 52636936 53125364 53623448 54131076 54647980 
2693.315 55174036 55709360 56254732 56810764 57377868 57956052 58544824 
2696.690 59142976 59749332 60362468 60981628 61606208 62235864 62870292 
2700.066 63509300 64152664 64799868 65450540 66103772 66758104 67411680 
2703.441 68061744 68705688 69340712 69964168 70573864 71167128 71741608 
2706.816 72293776 72820152 73317112 73781304 74211008 74604984 74963592 
2710.191 75287152 75576600 75832832 76056408 76248184 76409112 76540208 
2713.567 76642224 76715160 76757904 76768456 76744376 76683536 76584672 
2716.942 76447824 76274368 76066312 75826760 75558664 75265560 74951344 
2720.317 74620912 74279416 73933144 73588224 73250544 72925992 72619616 
2723.692 72336120 72079992 71854936 71663688 71508296 71389328 71306184 
2727.068 71258000 71243408 71261712 71311688 71393344 71505408 71646840 
2730.443 71815528 72009040 72225408 72462320 72718320 72992120 73282048 
2733.818 73585864 73900504 74222600 74548328 74874728 75199560 75520816 
2737.193 75837808 76149456 76454904 76753000 77043272 77324992 77598656 
2740.569 77864760 78124368 78378808 78629224 78877688 79126048 79377136 
2743.944 79633704 79898552 80173608 80459952 80757224 81064368 81379872 
2747.319 81701896 82028360 82357024 82684336 83005760 83316424 83610520 
2750.694 83883264 84131416 84353464 84549832 84722120 84872880 85004592 
2754.070 85119328 85219312 85306112 85380856 85444136 85495408 85532928 
2757.445 85553752 85554192 85529984 85477408 85393112 85274344 85118968 
2760.820 84926016 84694688 84425576 84120272 83781224 83412136 83016472 
2764.195 82598208 82161448 81709568 81246824 80777776 80307368 79841640 
2767.571 79386128 78945952 78525320 78127496 77754776 77409016 77092344 
2770.946 76805904 76551400 76329352 76139424 75979864 75848024 75740240 
2774.321 75652520 75581416 75522664 75472560 75426992 75381184 75329512 
2777.696 75266424 75185144 75079768 74944768 74775648 74569728 74326352 
2781.072 74047280 73736344 73399264 73042768 72673552 72297576 71920352 
2784.447 71545408 71175904 70813928 70460560 70116040 69779272 69448080 
2787.822 69118976 68787976 68451264 68105624 67749800 67383584 67008480 
2791.197 66626252 66239484 65850868 65462908 65078756 64702020 64336292 
2794.573 63985808 63654520 63345568 63061504 62803856 62573336 62369872 
2797.948 62192768 62040808 61912440 61805768 61718980 61650276 61598572 
2801.323 61563104 61543060 61537864 61545924 61565012 61592004 61623776 
2804.698 61657192 61690108 61721732 61751868 61781128 61809852 61838660 
2808.073 61866436 61892416 61914848 61931316 61939188 61935516 61917064 
2811.449 61880460 61822960 61742548 61638020 61509500 61358044 61185820 
2814.824 60995124 60789420 60572884 60350516 60128296 59913496 59713400 
2818.199 59535740 59388052 59276528 59206692 59182576 59206996 59281012 
2821.574 59404352 59575116 59789520 60043024 60329996 60644200 60979224 
2824.950 61328588 61684876 62040808 62388424 62719664 63026988 63304244 
2828.325 63546576 63750908 63915476 64040332 64125860 64173484 64185888 
2831.700 64166180 64119176 64050428 63965924 63871876 63773660 63675888 
2835.075 63582480 63496568 63420676 63357412 63309452 63279444 63270776 
2838.451 63287376 63334220 63417956 63545928 63727156 63971600 64288764 
2841.826 64688832 65182536 65780544 66495940 67344240 68341816 69507072 
2845.201 70855672 72396904 74128512 76031416 78067016 80170056 82255344 
2848.576 84221704 85954072 87345160 88303232 88761624 88692112 88103504 
2851.952 87041160 85574488 83793160 81795808 79673912 77516024 75397976 
2855.327 73376544 71496072 69783120 68248904 66891552 65699400 64654260 
2858.702 63733444 62914908 62178160 61504460 60878576 60287660 59720208 
2862.077 59167276 58621608 58078104 57534180 56989992 56448152 55913084 
2865.453 55391552 54891808 54422948 53994740 53616700 53296448 53039696 
2868.828 52848800 52722520 52656236 52642060 52670560 52730156 52809100 
2872.203 52895808 52979352 53051188 53105292 53138992 53153336 53152172 
2875.578 53141352 53126596 53113192 53104652 53102520 53107648 53120156 
2878.954 53140676 53170000 53209660 53260560 53323008 53396480 53480040 
2882.329 53572240 53671700 53778004 53891012 54010876 54138132 54273272 
2885.704 54416864 54569336 54731296 54903128 55084732 55275632 55475044 
2889.079 55681824 55895032 56114676 56341452 56577440 56825152 57088008 
2892.455 57369548 57673336 58002660 58360744 58750716 59175592 59637488 
2895.830 60137088 60673500 61242164 61835680 62441984 63046412 63631504 
2899.205 64178936 64672948 65102236 65461404 65752864 65986000 66175884 
2902.580 66339688 66496404 66663176 66854448 67083336 67360760 67696048 
2905.956 68098528 68576496 69137160 69787904 70535464 71386512 72348880 
2909.331 73430648 74639800 75982944 77462672 79075840 80811024 82649304 
2912.706 84561136 86507624 88444840 90320032 92077888 93667224 95040184 
2916.081 96161456 97011584 97587552 97902688 97981568 97857024 97560672 
2919.457 97118680 96548712 95857128 95041056 94091768 93000000 91760616 
2922.832 90376872 88862192 87241496 85549072 83821656 82098488 80415176 
2926.207 78798904 77270680 75842224 74518272 73297776 72175840 71145496 
2929.582 70198680 69327456 68525248 67786280 67107120 66485972 65922900 
2932.958 65419220 64976728 64597428 64282464 64031348 63841856 63709504 
2936.333 63627364 63585700 63573696 63578984 63589268 63594372 63586816 
2939.708 63562608 63522220 63469224 63409364 63349096 63294472 63249164 
2943.083 63214472 63188144 63165000 63136644 63092268 63020744 62911772 
2946.458 62758484 62559448 62319420 62050476 61768216 61492172 61241136 
2949.834 61029708 60868552 60761716 60707756 60700328 60730392 60787212 
2953.209 60858948 60934540 61003588 61057052 61087676 61090500 61062544 
2956.584 61002904 60912468 60793996 60650872 60487756 60309852 60122364 
2959.959 59930196 59737888 59548548 59364384 59186832 59016864 58855652 
2963.335 58704628 58565792 58440984 58332132 58240128 58165264 58107080 
2966.710 58064660 58036784 58022168 58019324 58026484 58041632 58062764 
2970.085 58087648 58115376 58145412 58178560 58215800 58258732 58308372 
2973.460 58364988 58428172 58496788 58569204 58643000 58714416 58778900 
2976.836 58829436 58857476 58853528 58807200 58710052 58556084 58343156 
2980.211 58073712 57754168 57395340 57009568 56611108 56213736 55828560 
2983.586 55464392 55125844 54813688 54524520 54252660 53991404 53734052 
2986.961 53476068 53215164 52951240 52684592 52414668 52137700 51846272 
2990.337 51528480 51170356 50758824 50284436 49744420 49144480 48498356 
2993.712 47826184 47148584 46485576 45852044 45254328 44692472 44160244 
2997.087 43648524 43147500 42649328 42149532 41646556 41141940 40637872 
3000.462 40137696 39644084 39159012 38684152 38220448 37768584 37329324 
3003.838 36903060 36489976 36089992 35703288 35329580 34968872 34621088 
3007.213 34286140 33963628 33652884 33353026 33062812 32781116 32506570 
3010.588 32238334 31975650 31717862 31464822 31216276 30972286 30732804 
3013.963 30497792 30267276 30041320 29820308 29605156 29397130 29197958 
3017.339 29009290 28832070 28666072 28509654 28360332 28214844 28070148 
3020.714 27924156 27776448 27627272 27478042 27330308 27185236 27043984 
3024.089 26907892 26778818 26659436 26553366 26464262 26394926 26346584 
3027.464 26318316 26306592 26305326 26307684 26305536 26290820 26256608 
3030.840 26196878 26107600 25987276 25836884 25659830 25460852 25246268 
3034.215 25022068 24793386 24564686 24339330 24119378 23906716 23702450 
3037.590 23507200 23320954 23143104 22972418 22807668 22648002 22493144 
3040.965 22343750 22200646 22064598 21935736 21813148 21695508 21580754 
3044.341 21467736 21355618 21244676 21135712 21030042 20928434 20831540 
3047.716 20739606 20652554 20570314 20492846 20419702 20350528 20284242 
3051.091 20219638 20154730 20088096 20018244 19944276 19866124 19784066 
3054.466 19699600 19614386 19530192 19449064 19372388 19300608 19233446 
3057.842 19170278 19110028 19052138 18996958 18945488 18899216 18859452 
3061.217 18826718 18800630 18780008 18763712 18751084 18742644 18739496 
3064.592 18743474 18755132 18774334 18799142 18826302 18852394 18873916 
3067.967 18888938 18896308 18895686 18887276 18871150 18847272 18815610 
3071.343 18776616 18731434 18681656 18629772 18577862 18527928 18481388 
3074.718 18438830 18400698 18366374 18335164 18305440 18275444 18243236 
3078.093 18207160 18166426 18121272 18073014 18023518 17974752 17927858 
3081.468 17883488 17840884 17799320 17757622 17715444 17672858 17630308 
3084.844 17588384 17548050 17509828 17474744 17443804 17418212 17399104 
3088.219 17386998 17381654 17381896 17385724 17391138 17396312 17400242 
3091.594 17402486 17403554 17403760 17403518 17403002 17402380 17401934 
3094.969 17402588 17405762 17412900 17425662 17444702 17469812 17499926 
3098.344 17533528 17568546 17603496 17637142 17669232 17699672 17729112 
3101.720 17758210 17787618 17817892 17849448 17882696 17917706 17954898 
3105.095 17994060 18035158 18077814 18121066 18163732 18204432 18241750 
3108.470 18275304 18305164 18332364 18358598 18385870 18415634 18448820 
3111.845 18485538 18525266 18567280 18611098 18655956 18701304 18746344 
3115.221 18789800 18830142 18865924 18896344 18921158 18941300 18958122 
3118.596 18973178 18987404 19001216 19014268 19026348 19037426 19047984 
3121.971 19058856 19071318 19085826 19102444 19120344 19138488 19155978 
3125.346 19172496 19188286 19204284 19221290 19240270 19261294 19284466 
3128.722 19309512 19336530 19364940 19394562 19424532 19454158 19482366 
3132.097 19508532 19532862 19556464 19581142 19608942 19641494 19679594 
3135.472 19722726 19769850 19818990 19868760 19917636 19965022 20010680 
3138.847 20054746 20097292 20138520 20178436 20217208 20255290 20292786 
3142.223 20330386 20368826 20408760 20451478 20498092 20549608 20606618 
3145.598 20668712 20734738 20802618 20870164 20935422 20997388 21056370 
3148.973 21112962 21168482 21223938 21279890 21335918 21391606 21446466 
3152.348 21500288 21553732 21607462 21662802 21720690 21781760 21846422 
3155.724 21914338 21985366 22058568 22133036 22207482 22280580 22351528 
3159.099 22420012 22486236 22551390 22616866 22683472 22752286 22823100 
3162.474 22895920 22970392 23046588 23125072 23206434 23291166 23379134 
3165.849 23469496 23560720 23651226 23739298 23824208 23905420 23983218 
3169.225 24058016 24130096 24199596 24266864 24332146 24395612 24457654 
3172.600 24517914 24576642 24632782 24685842 24735226 24781282 24824434 
3175.975 24865552 24905624 24945312 24984830 25024524 25064678 25105542 
3179.350 25147950 25192472 25239596 25289042 25340394 25392416 25444024 
3182.726 25494654 25544130 25593084 25642184 25692520 25744692 25799190 
3186.101 25856226 25916188 25979046 26044514 26112244 26181218 26250378 
3189.476 26319162 26387144 26454716 26523040 26593170 26666130 26742204 
3192.851 26821002 26901404 26982490 27063132 27143048 27222274 27300950 
3196.227 27379500 27457992 27536392 27614736 27693236 27771892 27850914 
3199.602 27930304 28009816 28088986 28167538 28245360 28322878 28400692 
3202.977 28479438 28559298 28640094 28721292 28801938 28881680 28960620 
3206.352 29039116 29117520 29195974 29273802 29350086 29423616 29494074 
3209.728 29561600 29627574 29693454 29761258 29831702 29904816 29980040 
3213.103 30056126 30132476 30208910 30285714 30363986 30444370 30527116 
3216.478 30612116 30698522 30785336 30871702 30956700 31039970 31121014 
3219.853 31200112 31277270 31353406 31429310 31506042 31584002 31663578 
3223.229 31744596 31826164 31907674 31988808 32069314 32149482 32229624 
3226.604 32309714 32389530 32468468 32545566 32620676 32693584 32764860 
3229.979 32835040 32904982 32974970 33045438 33116124 33187438 33258974 
3233.354 33331022 33403154 33474692 33544414 33611176 33674368 33734024 
3236.729 33791144 33847484 33905088 33965456 34029736 34097724 34168944 
3240.105 34242612 34317656 34393148 34468040 34541116 34611328 34677576 
3243.480 34739880 34799288 34857556 34917520 34981152 35049644 35122672 
3246.855 35198516 35274772 35349708 35422140 35492428 35561756 35631384 
3250.230 35702316 35774340 35846952 35919432 35991380 36063416 36136908 
3253.606 36212964 36292460 36375100 36459884 36544864 36628456 36709324 
3256.981 36787288 36863024 36937224 37011152 37085016 37159252 37233544 
3260.356 37307660 37381580 37455288 37529408 37603764 37678884 37754560 
3263.731 37830900 37907688 37985180 38063228 38142444 38223448 38306968 
3267.107 38393828 38484656 38579884 38679444 38782684 38888520 38995472 
3270.482 39101944 39206624 39308684 39407900 39504856 39600672 39697052 
3273.857 39795924 39899068 40007648 40122396 40242556 40367224 40494324 
3277.232 40621936 40749148 40875524 41001900 41129848 41261032 41397216 
3280.608 41538660 41685248 41836456 41990996 42148108 42307216 42467952 
3283.983 42630104 42793660 42958456 43124888 43293760 43466216 43643796 
3287.358 43827824 44018936 44216620 44420128 44627764 44837964 45050140 
3290.733 45264404 45481424 45702416 45928716 46160808 46399368 46644328 
3294.109 46895404 47151872 47413072 47678352 47946864 48217876 48491020 
3297.484 48766744 49045948 49329892 49619820 49916744 50221272 50533492 
3300.859 50853128 51180384 51515384 51858144 52208840 52566996 52931812 
3304.234 53302404 53677884 54058008 54443420 54835040 55233864 55640804 
3307.610 56055900 56478788 56909116 57346332 57790652 58241944 58700720 
3310.985 59166668 59639388 60117988 60601992 61091112 61586128 62088016 
3314.360 62597796 63116408 63643932 64180128 64724400 65276524 65836140 
3317.735 66403464 66978484 67560232 68147952 68740200 69335968 69934464 
3321.111 70535704 71139720 71746808 72356552 72967848 73579232 74189160 
3324.486 74796240 75399752 75998776 76592896 77180704 77761112 78333048 
3327.861 78895728 79449504 79994712 80531736 81060096 81578064 82082632 
3331.236 82570720 83039824 83488144 83915824 84322800 84709344 85073864 
3334.612 85414488 85727728 86010648 86261760 86481016 86669896 86830640 
3337.987 86965208 87074560 87158544 87215976 87244816 87243680 87210472 
3341.362 87143928 87042616 86905224 86730776 86518992 86269792 85983472 
3344.737 85660280 85299792 84900952 84462408 83983280 83463680 82904808 
3348.113 82309768 81682184 81026392 80345912 79643656 78921792 78182040 
3351.488 77426120 76655384 75871464 75075632 74269584 73454744 72633248 
3354.863 71808064 70982568 70161144 69347976 68546432 67759096 66986912 
3358.238 66230452 65488756 64761212 64046980 63345416 62655896 61978012 
3361.614 61311684 60657004 60014912 59386684 58773968 58178256 57600424 
3364.989 57041036 56499204 55974288 55464920 54970432 54489920 54023148 
3368.364 53569508 53128356 52698880 52280252 51871736 51472596 51082428 
3371.739 50701028 50327552 49961128 49600540 49244528 48891916 48541888 
3375.115 48194032 47847860 47503404 47160184 46817896 46476248 46135420 
3378.490 45796224 45459680 45126780 44797956 44472944 44150224 43827164 
3381.865 43501044 43169204 42830008 42483372 42130000 41772468 41413656 
3385.240 41056564 40703512 40355768 40013168 39674652 39338612 39003340 
3388.615 38667564 38331140 37994764 37659692 37327160 36997872 36672476 
3391.991 36350600 36031884 35716312 35403916 35094688 34788916 34485972 
3395.366 34185144 33885600 33586760 33289272 32994668 32705516 32424268 
3398.741 32152656 31890772 31636990 31388488 31141516 30893796 30643406 
3402.116 30390816 30136916 29883592 29632292 29384120 29138956 28896908 
3405.492 28657116 28419192 28182810 27947620 27713578 27480652 27248698 
3408.867 27018278 26790376 26565554 26344966 26129098 25918124 25711680 
3412.242 25509446 25310958 25116212 24925344 24738628 24556200 24377600 
3415.617 24202364 24029546 23858792 23689330 23521368 23354344 23188432 
3418.993 23023320 22858792 22694956 22532230 22371866 22215084 22062960 
3422.368 21916012 21773990 21635916 21500774 21367868 21236500 21107222 
3425.743 20979966 20854902 20731194 20607662 20482600 20354866 20223908 
3429.118 20090246 19954892 19819512 19685072 19552444 19422002 19294166 
3432.494 19169482 19048712 18933132 18823188 18719084 18619882 18524158 
3435.869 18430118 18335924 18240472 18143624 18045622 17947092 17848792 
3439.244 17751098 17654050 17557920 17462706 17368514 17275034 17182054 
3442.619 17089130 16995468 16900274 16803038 16703444 16601946 16498959 
3445.995 16395686 16293332 16193409 16097017 16005218 15917907 15834771 
3449.370 15753748 15673323 15590990 15505410 15415693 15322322 15226329 
3452.745 15129259 15032176 14935493 14839001 14742121 14644474 14546472 
3456.120 14448525 14352143 14257802 14165912 14075855 13986638 13896892 
3459.496 13805933 13713387 13620005 13526780 13434839 13344933 13257643 
3462.871 13172659 13090047 13009328 12930230 12852340 12775249 12698410 
3466.246 12621142 12543205 12464464 12385191 12305559 12225769 12145826 
3469.621 12065181 11983392 11900257 11815674 11729881 11643222 11556068 
3472.997 11468491 11380419 11291653 11202835 11114717 11028520 10945363 
3476.372 10866334 10791088 10718642 10647124 10574565 10499303 10420592 
3479.747 10338638 10254324 10169349 10085814 10005414 9929505 9858693 
3483.122 9793315 9732318 9673870 9616380 9557710 9496306 9431659 9364111 
3486.980 9294746 9224984 9156182 9088608 9022636 8957925 8894576 8833130 
3490.837 8774533 8719730 8668990 8621704 8576213 8530254 8482037 8430548 
3494.695 8376734 8322319 8270106 8222693 8181466 8146218 8115665 8087578 
3498.552 8059830 8030836 7999380 7965361 7928646 7889976 7849523 7808161 
3502.409 7767546 7729228 7696006 7670105 7653513 7646870 7649365 7658538 
3506.267 7671117 7683224 7691385 7693342 7688721 7678502 7665788 7653580 
3510.124 7645183 7642519 7645622 7653378 7663360 7673376 7681807 7688114 
3513.982 7693005 7697524 7702583 7708485 7715163 7721605 7727103 7731016 
3517.839 7733343 7734422 7734085 7732162 7727474 7718738 7704674 7684809 
3521.697 7659785 7630750 7599660 7567999 7536442 7504550 7470704 7433356 
3525.554 7390383 7340877 7284705 7222778 7156112 7086323 7014323 6940820 
3529.411 6866185 6790519 6714160 6637410 6560910 6485298 6410774 6336499 
3533.269 6261632 6184021 6102224 6015268 5923426 5828211 5732077 5637577 
3537.126 5546888 5460916 5379556 5302036 5226944 5153743 5081661 5010796 
3540.984 4940849 4871583 4802361 4732582 4661875 4590477 4519659 4450494 
3544.841 4384619 4322536 4264042 4208166 4153869 4100182 4046768 3994096 
3548.698 3941699 3889608 3836388 3780901 3721611 3658387 3591997 3524416 
3552.556 3458548 3396397 3339263 3286911 3237870 3190504 3143343 3095286 
3556.413 3046367 2996452 2945909 2894472 2842140 2788648 2734328 2680115 
3560.271 2627076 2576609 2529848 2487358 2448970 2414283 2382099 2351116 
3564.128 2319402 2284227 2242526 2191705 2130334 2059284 1981855 1904007 
3567.986 1831596 1769245 1718745 1678629 1645568 1614803 1582711 1546664 
3571.843 1505932 1461281 1414207 1366574 1319378 1273118 1228058 1183867 
3575.700 1141010 1099419 1059393 1020633 982574 944717 906266 867055 827349 
3580.040 788078 750936 717082 687545 663153 643707 628543 616067 604155 
3584.380 589921 569947 541117 500778 448468 386017 317904 250665 190960 
3588.719 143858 111245 92022 82246 77275 71774 61699 44103 18290 -15274 
3593.541 -54601 -96806 -138676 -177032 -209522 -234525 -251679 -261613 
3597.398 -266713 -269494 -273567 -281448 -295256 -314593 -337835 -361408 
3601.256 -381900 -396135 -402756 -402127 -396036 -387296 -378391 -371935 
3605.113 -369949 -374352 -387031 -409674 -443041 -486400 -536638 -589319 
3608.971 -638553 -679808 -711632 -735780 -756354 -778349 -805701 -838872 
3612.828 -874883 -908479 -934268 -948981 -953742 -952386 -952221 -960387 
3616.686 -981777 -1018207 -1067524 -1123809 -1178732 -1224761 -1255884 
3620.061 -1269760 -1268009 -1254232 -1233516 -1210916 -1189802 -1172619 
3623.436 -1159533 -1149719 -1142019 -1135641 -1131444 -1132633 -1144167 
3626.811 -1172289 -1221291 -1291233 -1374641 -1457107 -1521761 -1555240 
3630.187 -1553986 -1523973 -1476557 -1424182 -1376193 -1338736 -1313367 
3633.562 -1298402 -1290044 -1284626 -1280332 -1276830 -1276169 -1280332 
3636.937 -1291134 -1308742 -1331667 -1357135 -1382799 -1406645 -1427550 
3640.312 -1445846 -1461499 -1474642 -1484713 -1490525 -1491119 -1486298 
3643.688 -1477118 -1466122 -1456843 -1453507 -1459881 -1478869 -1511592 
3647.063 -1557089 -1612750 -1673981 -1736161 -1793448 -1840072 -1870623 
3650.438 -1880586 -1867785 -1833572 -1782988 -1723422 -1663914 -1613872 
3653.813 -1580926 -1569470 -1580530 -1609548 -1647245 -1681672 -1701871 
3657.188 -1701409 -1679757 -1641072 -1592744 -1542793 -1497657 -1461895 
3660.564 -1438316 -1426758 -1425734 -1432636 -1444096 -1457173 -1468830 
3663.939 -1477184 -1479925 -1475732 -1463645 -1443699 -1417477 -1387224 
3667.314 -1355384 -1322583 -1284362 -1227932 -1133988 -976620 -732207 
3670.689 -389216 50963 573663 1161076 1794930 2458266 3132663 3783909 
3674.547 4357275 4781490 4981100 4910119 4570519 4008074 3289949 2484725 
3678.404 1657442 861577 143858 -458928 -928978 -1267645 -1495016 -1639983 
3682.262 -1732927 -1797639 -1846901 -1885898 -1915324 -1936865 -1954842 
3685.637 -1976018 -2008341 -2056425 -2119803 -2192139 -2262321 -2319077 
3689.012 -2355395 -2369994 -2366600 -2351111 -2328503 -2301675 -2272275 
3692.387 -2241455 -2210930 -2183205 -2160556 -2144631 -2135366 -2131541 
3695.763 -2131080 -2131838 -2132629 -2132926 -2133651 -2135729 -2140707 
3699.138 -2149840 -2164512 -2185480 -2212315 -2243367 -2274681 -2300852 
3702.513 -2317067 -2319242 -2307278 -2283383 -2252432 -2220457 -2192634 
3705.888 -2171864 -2159533 -2154060 -2153170 -2155050 -2158742 -2164710 
3709.264 -2174930 -2190886 -2213337 -2240796 -2269605 -2294886 -2311299 
3712.639 -2314595 -2303257 -2278406 -2243697 -2204238 -2165336 -2131146 
3716.014 -2104635 -2086401 -2074958 -2067241 -2060382 -2052402 -2044058 
3719.389 -2037034 -2034989 -2040562 -2054215 -2074002 -2095930 -2115945 
3722.765 -2130717 -2139850 -2145257 -2150137 -2157720 -2169194 -2183568 
3726.140 -2197645 -2207633 -2209644 -2202590 -2187227 -2167611 -2148027 
3729.515 -2134113 -2130189 -2139323 -2161940 -2195436 -2235357 -2275571 
3732.890 -2311398 -2340928 -2365183 -2386701 -2407592 -2426835 -2440806 
3736.266 -2443310 -2429570 -2398267 -2352858 -2299731 -2246037 -2197678 
3739.641 -2158215 -2128772 -2109483 -2102162 -2110768 -2142356 -2204535 
3743.016 -2300852 -2424694 -2554495 -2659956 -2712083 -2700361 -2635553 
3746.391 -2543461 -2451053 -2380605 -2345607 -2349661 -2386075 -2439784 
3749.767 -2493355 -2531799 -2547216 -2538717 -2509794 -2464231 -2404297 
3753.142 -2331898 -2250520 -2165171 -2082905 -2011474 -1955931 -1919250 
3756.517 -1901040 -1898731 -1908265 -1925979 -1949895 -1978096 -2007780 
3759.892 -2034725 -2052699 -2056326 -2043036 -2015663 -1980834 -1947783 
3763.268 -1925781 -1919481 -1928882 -1948410 -1969323 -1983407 -1986045 
3766.643 -1978657 -1966651 -1956854 -1954941 -1962462 -1977206 -1993598 
3770.018 -2005142 -2006857 -1997259 -1978030 -1952731 -1925583 -1900116 
3773.393 -1878673 -1861913 -1849607 -1840896 -1834429 -1829447 -1826082 
3776.769 -1825785 -1830470 -1842315 -1862276 -1889197 -1919448 -1947849 
3780.144 -1968828 -1979580 -1979449 -1971071 -1958504 -1945672 -1935381 
3783.519 -1928453 -1923934 -1920569 -1917007 -1912388 -1906615 -1899391 
3786.894 -1890054 -1877188 -1859636 -1837465 -1812323 -1787773 -1767875 
3790.270 -1755863 -1752728 -1757315 -1766159 -1776224 -1785364 -1794274 
3793.645 -1806185 -1825059 -1853764 -1891869 -1935018 -1975787 -2006065 
3797.020 -2021039 -2020808 -2011342 -2001646 -2001712 -2019851 -2058535 
3800.395 -2113373 -2172490 -2219468 -2238324 -2221116 -2170578 -2098535 
3803.771 -2021269 -1954347 -1910541 -1897015 -1913708 -1952566 -1999370 
3807.146 -2037297 -2052863 -2041519 -2006791 -1957943 -1904702 -1854753 
3810.521 -1811795 -1775960 -1745797 -1719957 -1698867 -1685830 -1685434 
3813.896 -1702795 -1740352 -1795395 -1859537 -1918722 -1959691 -1974336 
3817.271 -1963352 -1934787 -1901337 -1876132 -1869435 -1886360 -1924759 
3820.647 -1974732 -2020247 -2044685 -2038221 -2000821 -1941285 -1872536 
3824.022 -1807835 -1757216 -1725435 -1712564 -1713356 -1721013 -1727911 
3827.397 -1729924 -1726821 -1721607 -1719000 -1723026 -1735237 -1754939 
3830.772 -1778764 -1801962 -1820572 -1831823 -1834660 -1829942 -1819813 
3834.148 -1806911 -1794438 -1786024 -1784803 -1792261 -1808099 -1829018 
3837.523 -1849244 -1861616 -1860428 -1843965 -1815193 -1780084 -1746425 
3840.898 -1721574 -1710221 -1713950 -1731046 -1757249 -1787014 -1814236 
3844.273 -1834297 -1844328 -1843932 -1834660 -1819549 -1802424 -1786222 
3847.649 -1773188 -1763486 -1756259 -1750154 -1745039 -1742926 -1748999 
3851.024 -1771472 -1818757 -1895927 -2000821 -2118517 -2224314 -2292348 
3854.399 -2307509 -2270561 -2194447 -2096623 -1993301 -1895267 -1809122 
3857.774 -1737547 -1681144 -1639158 -1610472 -1594527 -1590268 -1596442 
3861.150 -1611726 -1634504 -1663518 -1697646 -1736128 -1776950 -1816447 
3864.525 -1848617 -1866697 -1865377 -1844064 -1806713 -1762364 -1722795 
3867.900 -1698768 -1697580 -1719627 -1757975 -1798464 -1825455 -1829282 
3871.275 -1808924 -1771967 -1730485 -1696458 -1678470 -1678602 -1692894 
3874.651 -1712894 -1729099 -1734247 -1726524 -1708934 -1688471 -1673255 
3878.026 -1670119 -1683520 -1713026 -1754048 -1797276 -1833011 -1852114 
3881.401 -1849805 -1827006 -1789324 -1745435 -1704313 -1674278 -1659887 
3884.776 -1661339 -1673453 -1687085 -1693092 -1685170 -1662693 -1630509 
3888.152 -1596904 -1570823 -1559169 -1566466 -1591490 -1629453 -1671341 
3891.527 -1708307 -1733158 -1742662 -1737613 -1721145 -1697349 -1669591 
3894.902 -1641006 -1614235 -1591292 -1574851 -1567060 -1569008 -1580464 
3898.277 -1599248 -1620837 -1640544 -1653814 -1659062 -1657015 -1651503 
3901.653 -1646882 -1647344 -1654903 -1668766 -1685302 -1700584 -1709726 
3905.028 -1709462 -1699495 -1680846 -1656454 -1629156 -1602087 -1577261 
3908.403 -1556099 -1539359 -1526516 -1517172 -1509941 -1503337 -1495973 
3911.778 -1486463 -1474245 -1459749 -1444162 -1429598 -1418666 -1413911 
3915.154 -1417180 -1428574 -1446737 -1468665 -1490426 -1508125 -1518922 
3918.529 -1521497 -1516247 -1504360 -1487949 -1469292 -1450667 -1433924 
3921.904 -1421540 -1415430 -1416718 -1426130 -1442510 -1463150 -1484713 
3925.279 -1503271 -1516148 -1522422 -1523082 -1520407 -1516709 -1513804 
3928.655 -1512252 -1511526 -1510700 -1508488 -1504922 -1500761 -1496667 
3932.030 -1493431 -1490591 -1486926 -1481048 -1471670 -1458857 -1443897 
3935.405 -1429235 -1417213 -1409617 -1407503 -1410245 -1416817 -1425734 
3938.780 -1436005 -1446539 -1457206 -1467839 -1478175 -1487751 -1495841 
3942.156 -1502214 -1506440 -1508554 -1509115 -1508554 -1507002 -1504525 
3945.531 -1501025 -1496568 -1491516 -1485803 -1480024 -1474179 -1468202 
3948.906 -1461994 -1455258 -1448125 -1440661 -1432867 -1425073 -1417213 
3952.281 -1409221 -1401525 -1394722 -1389966 -1388281 -1390593 -1397265 
3955.656 -1407371 -1419294 -1430886 -1440529 -1447002 -1450304 -1451262 
3959.032 -1451064 -1450799 -1450965 -1451262 -1451229 -1449743 -1446011 
3962.407 -1439505 -1430291 -1418468 -1404663 -1389503 -1374475 -1360504 
3965.782 -1349207 -1341346 -1337118 -1335829 -1335994 -1335565 -1333088 
3969.157 -1328001 -1320502 -1312144 -1304415 -1298733 -1295891 -1295991 
3972.533 -1298204 -1301574 -1305174 -1308379 -1310757 -1312045 -1312244 
3975.908 -1311054 -1308742 -1305075 -1300516 -1295462 -1290143 -1284725 
3979.283 -1278944 -1272700 -1265432 -1257172 -1248384 -1239992 -1233153 
3982.658 -1229452 -1229816 -1234970 -1245146 -1259089 -1275277 -1291696 
3986.034 -1305802 -1316109 -1321691 -1322715 -1320700 -1317364 -1314424 
3989.409 -1313235 -1313631 -1314886 -1316009 -1316274 -1315448 -1314424 
3992.784 -1314457 -1316472 -1320964 -1327307 -1334376 -1341147 -1346829 
3996.159 -1351420 -1355648 -1360239 -1365557 -1371139 -1376391 -1380024 
3999.535 -1381444 -1380949 -1379199 
##END=
