
##TITLE=Z240_2_c
##JCAMP-DX=5.01  $$ Nicolet v. 1
##DATATYPE=INFRARED SPECTRUM
##ORIGIN=UniL
##OWNER=Nicolet
##LONGDATE=2011/09/09
##TIME=11:37:06
##SPECTROMETER/DATA SYSTEM=Nicolet iS5
##DATA PROCESSING=
Ratio against background
%Transmittance->Absorbance
Truncated
ElementMultiply or ElementDivide
##COMMENTS=
Number of sample scans: 32
Collection length: 51.20 sec
Sample gain: 2.0
Background collected on: Ven Sep 09 11:29:40 2011 (GMT+02:00);
Number of background scans: 32
Background gain: 2.0
Sample spacing:  1.000
Number of scan points: 12415
Resolution points: 8192
Number of FFT points: 65536
Apodization: N-B fort;
Phase correction: Mertz;
Laser frequency: 15798.0 cm-1
Number of rejected sample scans: 0
Number of rejected background scans: 0
Bench serial number: ASB1000141;
##RESOLUTION=4.000
##XUNITS=1/CM
##YUNITS=ABSORBANCE
##FIRSTX=649.893372
##LASTX=4000.122314
##FIRSTY=0.083043
##MAXX=4000.122314
##MINX=649.893372
##MAXY=0.305880
##MINY=-0.000463
##XFACTOR=1.000000
##YFACTOR=1.000000E-009
##NPOINTS=6950
##DELTAX=0.482117
##ZPD=6100
##XYDATA=(X++(Y..Y))
649.893 83042984 82811936 82602296 82445072 82352816 82320336 82333792 
653.268 82385336 82483688 82655672 82931520 83332480 83855416 84475280 
656.643 85154200 85861840 86590696 87357480 88194424 89129272 90175408 
660.018 91328976 92577552 93917120 95362384 96940952 98679120 100579912 
663.393 102611416 104707200 106791272 108798680 110677432 112396536 
666.285 113923472 115205816 116168856 116735792 116864784 116574640 
669.178 115922400 114961896 113720272 112197384 110390280 108315392 
672.071 106026224 103612128 101170640 98793872 96537912 94421336 92439584 
675.446 90582872 88850568 87253728 85805432 84511384 83359856 82324984 
678.820 81373720 80475864 79613376 78781144 77981992 77219968 76495440 
682.195 75803552 75137120 74491840 73867552 73267920 72697288 72156080 
685.570 71640432 71143000 70658928 70189368 69743824 69335504 68976032 
688.945 68667696 68399600 68147840 67879904 67565648 67183040 66723408 
692.320 66191980 65603392 64976960 64329492 63675812 63027488 62393588 
695.694 61784144 61209660 60680396 60205820 59792104 59442384 59156264 
699.069 58931204 58763008 58647092 58578452 58551308 58558244 58591120 
702.444 58640948 58700116 58764336 58833268 58910032 58998568 59101744 
705.819 59219260 59348012 59484440 59627568 59781460 59956288 60166316 
709.194 60426140 60751692 61158964 61666812 62302212 63098328 64087564 
712.569 65291472 66701272 68264256 69873360 71388544 72650008 73513184 
715.943 73890960 73765600 73199680 72316080 71288112 70309688 69559064 
719.318 69203832 69373328 70144040 71530640 73462160 75777632 78210800 
722.693 80435384 82117896 82957592 82782752 81579616 79506560 76842248 
726.068 73930592 71106824 68607464 66567228 65012440 63894212 63125148 
729.443 62614672 62294292 62113436 62037404 62039124 62090004 62163980 
732.817 62243240 62320916 62402008 62498340 62620148 62769092 62937200 
736.192 63110092 63274884 63425468 63564644 63700908 63842660 63993760 
739.567 64152048 64312512 64472876 64636880 64814864 65018712 65254696 
742.942 65519616 65798356 66070592 66315248 66518800 66678552 66800416 
746.317 66894136 66968544 67028516 67075952 67112304 67142088 67172904 
749.692 67212976 67268256 67339008 67420080 67504568 67588024 67672120 
753.066 67765216 67877848 68019744 68194968 68401384 68632688 68881776 
756.441 69144224 69417520 69700872 69991416 70283832 70572192 70853088 
759.816 71128872 71408736 71704760 72027776 72381912 72762240 73158544 
763.191 73563408 73978368 74421480 74926224 75542424 76329184 77345224 
766.566 78646456 80269936 82219464 84445816 86834968 89217512 91374496 
769.940 93106816 94292912 94944160 95228576 95444360 95950976 97023552 
773.315 98765624 101020048 103396696 105316864 106167176 105513176 103187680 
776.690 99371960 94503416 89184808 84000848 79376744 75567104 72621384 
780.065 70446224 68866328 67699768 66802428 66075148 65470228 64969956 
783.440 64570980 64275280 64087876 64018636 64081000 64291112 64663412 
786.815 65205908 65921784 66812748 67885248 69155696 70650816 72402664 
790.189 74446288 76813184 79529952 82624816 86128936 90078200 94509888 
793.564 99448528 104890112 110781336 117015112 123421200 129762712 135775424 
796.939 141168656 145661248 149041744 151193248 152141776 152056096 
799.832 151248400 150117680 149050192 148386336 148318480 148849232 
802.724 149773344 150708752 151185584 150705952 148907872 145647440 
805.617 141041552 135439520 129332768 123251384 117595008 112586632 
808.510 108237712 104388440 100775856 97128096 93263272 89112384 84733472 
811.885 80262960 75875880 71727384 67918184 64498744 61471744 58812932 
815.259 56487584 54463288 52713356 51214084 49943656 48881088 48005736 
818.634 47301072 46755712 46361540 46112612 46003048 46025148 46172196 
822.009 46440884 46834356 47363332 48044300 48896404 49934400 51166368 
825.384 52587604 54180356 55907508 57712952 59523696 61244836 62777972 
828.759 64034612 64951948 65517112 65775564 65836564 65848900 65990360 
832.133 66442920 67350312 68807312 70828016 73334216 76137104 78943528 
835.508 81407616 83137872 83790344 83148264 81154464 77944488 73802784 
838.883 69125504 64313508 59705684 55559652 52009012 49088048 46758924 
842.258 44945876 43561224 42521264 41759480 41218732 40849680 40612768 
845.633 40474428 40410788 40408676 40461444 40565292 40714940 40901484 
849.008 41114948 41348124 41600060 41877356 42191304 42553496 42971224 
852.382 43444680 43969872 44542656 45162664 45836468 46575420 47392784 
855.757 48300264 49305356 50413876 51633924 52977852 54467120 56131044 
859.132 58002704 60120424 62524392 65254384 68350192 71840704 75729784 
862.507 79973872 84463848 89015944 93355400 97166384 100120776 101919248 
865.882 102368672 101401704 99099184 95666040 91411416 86698496 81864776 
869.256 77217008 72987728 69316648 66276424 63875480 62078840 60822504 
872.631 60028376 59615096 59494436 59580476 59791724 60048200 60284844 
876.006 60456716 60542984 60551212 60513580 60479452 60498876 60613876 
879.381 60845872 61189364 61612320 62061144 62477220 62802404 62995464 
882.756 63041352 62951712 62762620 62521792 62281788 62084764 61956192 
886.131 61906860 61936588 62042832 62228904 62507404 62899128 63428344 
889.505 64111412 64952984 65940760 67049308 68243896 69487512 70749120 
892.880 72002392 73226552 74404808 75519712 76552544 77484496 78294632 
896.255 78961528 79463984 79778936 79886168 79771920 79433272 78883408 
899.630 78151888 77284968 76335192 75357296 74402992 73512232 72717032 
903.005 72041624 71502792 71115056 70890192 70836944 70962280 71270808 
906.379 71766000 72451792 73333664 74418256 75712824 77222232 78948576 
909.754 80890408 83045112 85410088 87983992 90766264 93754928 96942736 
913.129 100318384 103867472 107578424 111451496 115503008 119769128 
916.022 124298480 129147608 134366592 139984640 145998064 152354016 
918.914 158944368 165577920 171987424 177848240 182776816 186418672 
921.807 188513904 188960256 187874720 185598816 182690768 179797952 
924.700 177609456 176764144 177711472 180696752 185691152 192404304 
927.593 200264816 208473680 216156576 222372368 226302352 227384720 
930.485 225324016 220142800 212120272 201742960 189609040 176354912 
933.378 162647936 149083344 136168592 124325048 113826400 104833000 97407352 
936.753 91527256 87125536 84112992 82399040 81888344 82468544 83998720 
940.128 86268712 88992360 91837976 94417504 96363024 97392544 97328408 
943.502 96146568 93962000 91010536 87584144 83977728 80462864 77231528 
946.877 74400440 72018816 70079592 68542544 67351360 66451648 65793268 
950.252 65334024 65041036 64884768 64838872 64881580 64993664 65161288 
953.627 65375692 65632180 65927720 66260212 66626324 67022248 67444688 
957.002 67890832 68359576 68850176 69361504 69891032 70434920 70989520 
960.377 71552872 72125800 72712368 73317544 73945280 74596560 75269296 
963.751 75959264 76662312 77376744 78103696 78846264 79606848 80386264 
967.126 81182312 81991536 82811224 83641248 84485064 85347696 86233184 
970.501 87143328 88075008 89023264 89983008 90951624 91930128 92922512 
973.876 93933288 94965136 96018464 97092040 98185432 99300776 100443560 
977.251 101619696 102835360 104093112 105392584 106731744 108110240 
980.143 109531160 111002080 112531848 114128464 115795768 117532160 
983.036 119332528 121189392 123095496 125041856 127014128 128990200 
985.929 130935144 132803128 134546544 136118752 137486368 138634368 
988.821 139565616 140300416 140869712 141316048 141687152 142033168 
991.714 142407856 142858160 143421344 144121392 144965984 145949648 
994.607 147059280 148281712 149607696 151034032 152561024 154189120 
997.500 155914864 157731664 159630224 161603152 163646384 165757696 
1000.392 167932528 170160272 172418976 174679136 176909072 179080512 
1003.285 181176832 183195136 185144608 187042000 188908608 190769888 
1006.178 192653776 194593312 196626016 198786112 201101024 203583472 
1009.070 206229936 209022064 211933568 214939872 218018176 221148944 
1011.963 224311568 227476288 230604224 233654320 236587696 239380960 
1014.856 242029536 244543392 246935808 249211152 251355616 253338464 
1017.748 255119056 256658320 257933504 258942240 259705424 260261744 
1020.641 260669824 261006320 261358832 261832624 262536672 263564832 
1023.534 264992144 266855776 269154528 271852928 274893984 278212864 
1026.427 281736032 285388288 289083648 292711520 296146688 299250272 
1029.320 301879904 303918624 305273632 305880000 305699648 304709952 
1032.213 302905824 300304032 296952992 292936480 288361088 283352000 
1035.106 278026816 272476864 266770896 260952240 255050064 249093504 
1037.999 243115584 237155616 231261232 225482144 219872144 214491440 
1040.892 209395904 204632496 200222160 196141824 192311584 188589344 
1043.785 184801120 180751008 176268144 171251376 165678160 159617744 
1046.678 153206912 146636128 140107360 133800208 127870816 122424040 
1049.571 117515920 113162664 109345160 106021736 103136208 100631624 
1052.464 98453696 96554544 94897520 93451824 92189512 91083920 90104168 
1055.840 89214784 88380832 87566472 86741256 85883152 84978112 84021632 
1059.215 83018120 81982056 80936880 79913456 78951600 78093032 77377616 
1062.590 76841976 76512352 76405392 76527688 76876296 77438552 78190048 
1065.965 79096072 80106176 81154904 82173304 83088080 83836440 84377408 
1069.341 84691752 84785104 84680792 84414752 84025656 83547896 83011824 
1072.716 82439496 81846416 81244912 80645144 80057688 79496488 78977704 
1076.091 78520360 78144000 77863528 77687048 77612600 77628368 77714152 
1079.466 77845656 78000624 78158832 78304800 78426472 78512256 78551408 
1082.842 78537072 78469736 78363520 78248176 78173472 78201200 78399760 
1086.217 78841408 79587376 80686120 82167776 84037272 86269840 88803448 
1089.592 91544880 94362536 97098712 99600696 101725520 103370384 104488992 
1092.967 105088728 105227432 104991112 104487088 103818912 103075128 
1095.860 102332944 101651056 101074904 100643368 100385096 100316680 
1098.753 100435248 100710920 101078216 101430200 101635824 101541784 
1101.646 100996256 99886600 98148384 95787848 92876920 89548864 85972568 
1105.022 82318288 78754288 75416544 72399336 69763552 67533720 65707760 
1108.397 64266288 63179904 62415012 61933912 61699960 61675060 61817648 
1111.772 62086180 62434292 62811056 63167220 63453808 63628436 63663000 
1115.147 63543236 63271656 62863820 62346084 61749464 61103808 60438624 
1118.523 59778188 59141572 58544976 58000204 57515720 57097908 56750268 
1121.898 56474260 56267972 56125272 56033284 55969956 55906712 55807572 
1125.273 55635572 55362000 54971000 54466144 53869144 53219024 52563108 
1128.648 51945820 51405680 50967092 50638176 50414288 50279600 50211972 
1132.024 50184484 50170760 50146588 50092520 49998376 49864112 49700616 
1135.399 49526928 49366752 49244600 49178732 49180436 49251428 49385132 
1138.774 49566188 49773252 49981536 50162692 50288712 50336368 50287112 
1142.149 50131376 49868012 49503536 49049396 48519360 47929360 47294496 
1145.525 46630456 45953652 45279260 44621192 43990224 43391916 42826576 
1148.900 42290304 41777240 41282020 40801668 40336428 39889476 39464688 
1152.275 39065944 38696500 38359480 38058268 37797428 37581540 37414184 
1155.650 37297044 37228380 37204228 37219136 37268920 37351312 37466448 
1159.026 37615864 37801080 38022536 38279356 38569600 38891780 39244052 
1162.401 39624444 40028684 40449552 40875088 41290692 41680764 42030376 
1165.776 42327636 42564532 42735604 42838092 42871296 42836704 42738928 
1169.151 42586280 42391192 42167608 41930560 41694296 41470008 41267448 
1172.527 41095644 40963012 40879712 40856816 40904248 41031108 41244456 
1175.902 41549524 41951432 42456628 43073368 43812176 44683620 45697816 
1179.277 46864104 48190552 49686052 51361928 53230896 55307468 57606436 
1182.652 60139868 62917092 65943384 69219104 72735872 76471216 80385792 
1186.028 84411128 88450048 92386096 96077080 99377544 102154944 104289384 
1189.403 105695176 106325784 106175768 105283256 103723728 101607808 
1192.296 99059264 96209504 93189552 90108936 87060552 84114488 81312664 
1195.671 78676448 76207544 73894696 71719176 69661352 67705536 65841848 
1199.046 64066828 62382456 60793768 59305776 57921516 56641348 55463076 
1202.422 54383292 53399064 52509148 51714460 51017136 50418268 49916596 
1205.797 49506432 49179176 48923288 48727004 48580424 48475716 48406188 
1209.172 48366444 48349740 48349480 48359816 48377892 48405928 48450636 
1212.547 48524216 48640940 48815088 49060264 49387320 49804840 50319700 
1215.923 50936096 51655904 52477216 53395168 54402180 55490108 56652408 
1219.298 57885364 59188652 60564048 62014780 63544736 65158552 66863604 
1222.673 68670488 70592648 72645896 74843944 77194912 79698952 82345968 
1226.048 85116104 87977544 90890344 93803736 96654296 99374424 101890672 
1229.424 104130680 106035952 107561920 108685600 109407560 109754304 
1232.317 109780488 109564496 109217016 108871184 108667048 108757560 
1235.210 109283240 110362128 112093840 114547264 117764672 121765864 
1238.103 126548808 132090104 138336048 145207888 152589408 160325168 
1240.996 168242624 176143616 183815712 191057888 197662912 203433856 
1243.889 208202720 211827184 214212864 215320288 215162656 213799408 
1246.782 211322272 207854752 203537056 198518480 192958208 186996272 
1249.675 180741616 174260976 167569248 160640896 153428768 145895824 
1252.568 138036672 129897776 121574256 113209792 104976648 97039960 89557784 
1255.943 82652752 76396864 70820792 65910176 61618580 57876504 54605028 
1259.319 51726820 49165112 46855432 44745360 42792856 40970404 39261060 
1262.694 37655288 36148288 34736148 33414140 32176670 31018296 29934776 
1266.069 28924388 27986350 27119948 26322856 25590308 24916642 24297068 
1269.444 23729816 23216920 22763284 22375146 22057312 21812416 21641382 
1272.820 21544924 21525006 21585212 21729818 21960446 22273778 22660466 
1276.195 23103720 23580238 24064496 24526610 24935136 25261508 25479404 
1279.570 25571190 25531724 25370074 25108348 24775250 24401886 24012422 
1282.945 23619632 23226356 22828306 22420428 22002654 21581728 21170986 
1286.321 20786874 20443144 20149106 19909136 19723834 19593414 19518652 
1289.696 19500838 19540312 19634700 19778694 19964364 20184092 20431786 
1293.071 20702974 20993006 21295794 21600638 21895240 22167590 22410172 
1296.446 22623500 22816536 23005292 23207972 23442428 23724706 24067226 
1299.822 24480790 24973808 25549294 26200926 26907256 27632462 28324114 
1303.197 28921732 29370114 29622254 29651166 29451522 29038480 28442822 
1306.572 27704996 26873980 25998286 25124076 24294160 23539904 22881180 
1309.947 22325366 21868862 21501366 21210996 20989006 20830392 20732968 
1313.323 20695018 20712428 20778706 20886468 21029870 21206194 21415554 
1316.698 21658344 21931588 22227916 22535266 22841018 23136220 23418612 
1320.073 23692618 23966480 24247838 24539968 24839836 25140542 25434572 
1323.448 25716884 25987382 26250834 26516878 26798236 27109754 27469428 
1326.823 27896596 28407872 29013930 29712294 30484748 31295608 32099996 
1330.199 32852910 33517104 34073496 34522100 34879712 35171496 35424944 
1333.574 35665408 35911332 36177272 36474948 36813432 37200440 37640648 
1336.949 38135824 38685964 39291312 39954716 40682372 41481824 42357656 
1340.324 43309464 44329372 45404428 46518252 47653984 48795140 49921500 
1343.700 51009908 52032804 52959472 53764616 54431288 54954188 55337648 
1347.075 55589888 55714068 55702540 55533220 55174036 54593532 53768628 
1350.450 52695960 51395644 49912728 48309928 46656980 45030180 43498224 
1353.825 42119340 40941712 39995620 39292544 38823188 38560656 38464200 
1357.201 38487372 38590168 38740804 38919108 39115576 39326528 39552580 
1360.576 39798864 40078100 40413476 40835520 41380560 42076736 42933876 
1363.951 43939296 45058592 46244612 47440644 48591020 49640548 50530592 
1367.326 51206704 51618512 51725920 51509452 50971752 50138628 49050656 
1370.702 47760120 46324268 44797184 43238560 41712460 40284616 39026352 
1374.077 38000044 37245380 36773220 36563896 36580116 36780292 37136620 
1377.452 37642060 38312032 39179172 40288800 41697396 43464968 45655708 
1380.827 48327148 51505572 55157672 59155088 63279404 67207448 70559320 
1384.203 72976792 74134440 73817704 71963792 68700024 64351356 59377456 
1387.578 54313256 49608564 45550452 42259040 39706420 37784344 36352980 
1390.953 35284760 34473816 33838676 33325154 32895796 32528352 32213922 
1394.328 31952322 31748160 31605810 31525888 31504192 31533904 31607378 
1397.704 31718184 31861890 32035034 32235406 32461114 32711912 32988198 
1401.079 33290740 33620056 33975236 34354200 34754780 35176456 35621132 
1404.454 36093372 36597452 37135828 37706384 38303712 38921860 39557876 
1407.829 40214096 40897476 41616616 42377896 43183148 44029276 44910712 
1411.205 45821668 46756268 47705604 48650836 49561584 50396648 51110720 
1414.580 51671692 52071128 52332352 52504808 52658664 52872380 53213480 
1417.955 53734312 54457356 55369640 56425360 57558392 58701292 59795984 
1421.330 60803564 61708364 62517620 63267520 64019672 64856724 65855608 
1424.706 67066716 68500184 70126640 71895248 73751656 75657880 77589784 
1428.081 79532824 81475000 83399160 85285064 87118416 88901632 90659576 
1431.456 92431920 94267392 96207104 98279984 100505520 102906824 105524032 
1434.831 108421240 111679016 115368408 119515776 124066816 128900680 
1437.724 133875296 138868512 143788736 148548816 153047152 157124960 
1440.617 160567808 163153840 164662288 164930864 163885136 161535680 
1443.510 157977728 153369136 147931744 141917392 135575136 129160496 
1446.404 122898200 116985008 111602024 106884920 102908168 99665632 97077952 
1449.779 95019200 93359880 92013872 90952512 90203712 89820600 89850144 
1453.154 90299728 91133656 92277080 93638616 95137896 96701568 98281816 
1456.529 99855696 101434136 103050672 104747592 106577400 108581520 
1459.422 110790528 113224464 115885016 118751480 121769984 124863024 
1462.315 127910408 130745936 133186536 135041216 136174112 136557920 
1465.208 136296624 135591696 134658352 133685664 132794168 132041008 
1468.102 131446224 131001536 130676720 130408840 130095464 129592808 
1470.995 128720328 127319144 125312776 122764456 119869504 116886464 
1473.888 114043840 111474752 109236536 107346560 105817712 104681056 
1476.781 103974344 103716872 103894416 104453248 105318424 106408920 
1479.674 107664056 109056632 110591256 112298128 114217072 116387856 
1482.567 118842560 121612000 124736976 128271920 132281560 136819696 
1485.460 141902464 147467440 153335936 159224816 164721744 169323568 
1488.353 172521648 173832768 172922192 169706096 164397280 157478896 
1491.246 149555872 141232176 132954432 124970544 117392512 110223696 
1494.139 103436600 97039960 91093648 85717632 81063488 77257216 74355848 
1497.514 72332752 71108496 70579128 70648048 71240904 72296048 73755312 
1500.890 75560432 77640416 79915408 82304512 84704640 86994240 89023992 
1504.265 90575320 91368768 91081632 89423704 86297728 81920872 76792304 
1507.640 71457360 66299580 61474648 56979112 52757128 48769040 45008940 
1511.015 41513176 38334832 35510876 33056662 30956522 29175172 27671164 
1514.391 26405560 25344606 24454464 23701820 23058364 22503928 22035384 
1517.766 21662942 21400344 21252366 21207934 21238204 21308218 21388472 
1521.141 21473028 21583782 21758800 22028344 22397158 22847478 23350462 
1524.516 23883260 24436238 25019012 25653502 26364048 27163260 28047030 
1527.892 28998912 30000418 31040576 32118656 33244628 34433208 35697460 
1531.267 37046800 38484728 40007792 41606188 43262352 44951316 46643332 
1534.642 48310596 49930052 51485500 52959732 54335072 55596368 56723840 
1538.017 57700768 58512520 59146772 59588492 59820928 59836864 59646000 
1541.393 59279304 58779280 58180832 57498248 56721836 55829840 54806096 
1544.768 53661240 52436836 51196156 49996780 48864028 47787452 46727376 
1548.143 45638776 44493940 43303024 42111672 40987188 39983088 39117640 
1551.518 38372584 37707828 37085484 36486296 35919252 35412612 34996704 
1554.894 34682208 34451860 34261328 34052708 33756908 33301652 32624710 
1558.269 31696260 30555056 29316374 28124584 27083620 26225386 25527894 
1561.644 24944470 24424878 23923836 23408262 22862146 22291846 21723096 
1565.019 21192000 20730812 20351882 20045690 19785142 19539966 19285298 
1568.395 19012156 18729428 18458952 18224714 18041478 17911732 17828870 
1571.770 17784650 17772742 17788032 17824832 17872682 17916360 17940150 
1575.145 17934282 17903930 17870886 17866536 17913322 18016680 18166080 
1578.520 18344668 18538682 18742850 18961444 19204598 19483476 19804042 
1581.896 20165906 20562600 20985182 21423978 21868514 22305554 22715346 
1585.271 23072760 23352072 23531860 23604518 23579364 23485550 23364414 
1588.646 23264004 23232718 23308716 23520562 23885606 24408196 25077632 
1592.021 25861748 26708834 27542288 28271104 28809162 29082656 29049886 
1595.396 28709928 28101326 27293118 26365244 25401478 24470870 23624248 
1598.772 22900320 22323308 21907020 21656742 21569296 21635116 21842208 
1602.147 22180282 22641022 23216710 23896564 24661188 25479508 26313000 
1605.522 27113880 27832086 28422128 28841524 29057468 29050098 28811922 
1608.897 28349474 27681936 26842150 25873916 24829310 23767856 22742090 
1612.273 21791966 20939594 20186454 19519484 18917696 18360394 17831426 
1615.648 17324618 16845986 16411584 16042039 15754195 15555684 15443502 
1619.023 15406217 15425786 15481751 15555410 15631279 15703382 15776597 
1622.398 15865700 15988510 16158054 16376279 16634548 16919910 17222214 
1625.774 17538046 17869782 18220880 18590762 18971586 19349072 19709550 
1629.149 20044162 20353374 20645014 20929164 21212212 21493430 21764896 
1632.524 22014226 22229380 22400404 22521936 22593166 22617494 22600810 
1635.899 22552088 22482676 22403090 22321810 22241134 22157652 22061530 
1639.275 21939674 21780852 21580058 21342498 21082248 20818610 20567222 
1642.650 20334448 20115512 19895712 19656158 19378278 19052416 18680652 
1646.025 18279486 17876030 17500132 17177746 16922702 16738981 16621500 
1649.400 16559675 16537990 16534548 16521538 16463270 16324431 16087973 
1652.776 15778279 15464549 15220632 15083836 15042260 15059652 15097524 
1656.151 15129224 15141472 15130734 15100028 15054232 14996779 14927777 
1659.526 14844419 14743286 14622062 14480452 14320362 14144482 13956800 
1662.901 13762394 13568108 13382384 13213338 13066144 12940574 12829917 
1666.277 12722293 12601494 12451916 12262817 12031795 11767022 11483970 
1669.652 11201748 10935339 10693511 10478529 10288217 10117727 9959509 
1673.027 9803720 9637958 9450520 9235917 9000343 8762970 8548165 8375889 
1676.885 8251971 8168939 8110735 8061114 8009572 7954258 7902394 7864131 
1680.742 7847869 7853368 7870407 7881068 7866425 7814098 7728553 7632639 
1684.599 7559065 7532700 7557749 7623500 7714016 7816561 7923416 8031578 
1688.457 8139938 8247818 8353562 8456258 8556883 8659491 8769597 8891532 
1692.314 9025985 9168196 9307676 9431930 9530039 9598595 9645683 9690438 
1696.172 9753870 9845983 9961915 10083881 10189158 10253849 10260363 
1699.547 10204015 10100803 9983546 9885505 9824528 9797145 9788300 9778709 
1703.404 9752040 9696571 9605438 9478425 9321759 9147384 8967903 8793771 
1707.262 8630727 8478760 8334410 8192034 8047173 7897704 7745148 7593895 
1711.119 7449300 7316143 7196164 7088512 6990214 6898670 6812329 6731557 
1714.977 6657463 6589100 6522127 6449547 6364540 6266237 6162377 6068152 
1718.834 5998907 5963634 5962693 5988694 6030420 6077190 6121916 6162209 
1722.691 6199683 6237967 6280423 6327858 6378931 6430715 6481262 6529762 
1726.549 6576182 6619512 6657059 6684145 6695720 6689327 6666514 6632633 
1730.406 6594583 6555999 6513785 6456879 6367734 6229463 6035157 5798224 
1734.264 5550848 5332996 5170710 5068016 5010897 4978821 4953618 4921982 
1738.121 4878184 4823134 4762529 4703574 4652430 4612712 4585688 4571356 
1741.979 4569280 4579158 4599183 4626475 4657085 4687932 4717240 4745880 
1745.836 4775493 4807722 4842265 4876174 4904388 4921781 4924260 4910253 
1749.693 4879893 4835698 4780887 4719518 4656617 4597877 4548654 4512226 
1753.551 4488724 4474128 4460637 4439547 4402627 4346666 4274850 4196590 
1757.408 4123261 4062621 4016067 3978447 3940696 3893453 3831340 3754163 
1761.266 3667910 3581373 3502904 3437808 3387047 3348579 3319764 3297862 
1765.123 3280635 3265345 3248920 3228290 3201719 3170711 3139671 3114908 
1768.980 3100325 3095953 3096554 3093484 3077232 3043230 2994183 2941106 
1772.838 2897874 2874659 2874493 2892537 2921024 2952681 2984008 3015403 
1776.695 3049203 3087043 3127790 3167006 3199082 3219310 3227088 3225653 
1780.553 3221547 3221480 3228123 3240474 3254261 3265011 3270052 3270119 
1784.410 3268349 3268817 3274025 3283873 3296860 3311150 3326175 3343203 
1788.268 3363472 3387247 3411658 3430995 3438041 3426219 3393425 3342736 
1792.125 3282271 3221447 3167607 3123051 3086443 3054608 3025079 2997653 
1795.982 2973098 2952681 2935568 2919556 2901277 2877995 2849144 2816961 
1799.840 2785513 2759036 2739663 2727126 2719657 2715389 2713689 2715923 
1803.697 2723925 2738496 2758569 2781211 2802387 2818928 2830334 2838005 
1807.555 2844808 2853080 2863252 2874226 2883531 2889836 2893805 2898041 
1811.412 2905913 2919523 2938504 2960187 2980872 2998287 3012166 3024945 
1815.270 3040894 3063651 3095052 3134565 3179589 3227555 3276361 3325306 
1819.127 3374124 3422178 3467933 3508750 3542153 3567108 3584046 3594871 
1822.984 3601552 3605528 3607566 3608101 3608301 3611041 3619527 3636801 
1826.842 3662897 3694977 3726724 3751489 3764590 3766061 3761649 3760212 
1830.699 3770406 3796744 3837792 3888238 3941766 3994565 4046132 4099211 
1834.557 4157750 4224627 4299814 4380904 4464353 4548521 4634413 4726116 
1838.414 4828628 4945943 5079146 5226743 5385025 5550345 5720528 5893936 
1842.271 6070067 6248085 6426646 6604474 6781163 6958159 7137586 7320388 
1846.129 7504482 7684269 7851006 7994622 8107326 8184639 8226510 8236268 
1849.986 8218202 8175524 8108609 8016087 7896927 7751995 7585633 7404505 
1853.844 7215266 7023415 6831447 6639967 6449312 6260959 6078366 5905691 
1857.701 5745474 5597398 5457594 5321189 5183921 5044920 4906667 4773852 
1861.559 4651024 4539781 4438677 4344758 4255811 4172971 4100048 4042152 
1865.416 4003058 3981690 3973063 3968415 3959822 3943471 3920902 3897966 
1869.273 3881986 3877306 3883892 3897264 3912343 3924847 3933574 3938622 
1873.131 3940629 3938589 3929729 3911106 3880314 3838159 3788455 3736082 
1876.988 3685353 3637136 3589492 3538212 3480091 3414297 3343470 3272289 
1880.846 3205224 3143476 3086209 3029950 2972264 2913051 2855648 2804354 
1884.703 2762971 2731427 2706487 2682582 2654511 2620675 2582842 2546046 
1888.561 2514851 2492223 2478460 2471362 2468796 2470696 2479226 2496622 
1892.418 2524149 2559377 2597109 2631076 2656878 2673647 2685183 2696985 
1896.275 2714089 2738062 2766939 2796118 2822297 2844608 2865020 2887467 
1900.133 2914786 2946777 2980905 3012567 3038759 3059547 3077900 3098056 
1903.990 3122451 3150685 3178521 3200250 3211366 3210999 3201686 3188468 
1907.848 3176051 3166873 3160331 3154457 3147581 3139571 3132296 3127724 
1911.705 3126489 3127290 3127090 3123485 3116310 3107967 3102060 3100892 
1915.563 3103128 3103462 3093551 3067222 3023110 2966893 2909249 2860617 
1919.420 2826198 2803654 2785880 2763071 2728793 2683082 2631776 2583876 
1923.277 2545912 2520183 2502854 2487857 2469763 2448236 2426478 2410518 
1927.135 2403555 2405021 2409685 2410852 2403921 2389128 2371538 2358245 
1930.992 2354447 2360677 2372171 2381599 2383598 2375969 2361476 2344453 
1934.850 2328396 2314139 2299449 2281095 2259046 2236931 2221178 2218014 
1938.707 2228937 2249387 2270337 2281762 2277365 2257780 2230203 2204592 
1942.564 2188974 2185411 2190539 2198765 2206890 2215849 2230503 2257047 
1946.422 2297550 2348417 2401223 2446437 2478827 2499321 2514251 2531614 
1950.279 2556811 2589009 2622342 2648711 2664246 2669713 2671880 2678048 
1954.137 2691551 2709755 2724358 2726059 2708788 2674014 2630509 2589475 
1957.994 2560444 2546512 2543679 2544146 2541480 2533448 2522783 2515284 
1961.852 2514518 2520217 2528782 2535481 2539680 2543446 2551512 2567243 
1965.709 2588275 2607209 2613442 2599175 2565210 2520283 2479260 2453701 
1969.566 2448403 2457267 2467863 2466630 2447370 2414217 2380533 2360877 
1973.424 2366440 2399290 2454634 2524383 2604175 2695185 2802220 2928196 
1977.281 3068523 3209363 3330816 3417202 3459583 3461220 3432130 3385310 
1981.139 3330081 3268716 3199750 3120515 3033320 2945743 2869089 2813492 
1984.996 2783912 2777810 2786714 2802320 2819362 2837771 2860817 2890769 
1988.854 2925060 2955917 2974299 2973699 2955717 2929964 2911617 2914252 
1992.711 2944141 2997853 3064252 3131628 3191806 3243312 3290517 3337961 
1996.568 3387214 3434000 3470371 3489911 3490178 3475582 3454440 3434735 
2000.426 3419440 3405580 3384609 3348679 3295057 3228390 3158562 3097355 
2004.283 3052673 3026046 3013501 3009064 3009064 3014302 3028048 3052306 
2008.141 3083773 3114007 3131495 3128758 3104463 3066521 3027348 3000289 
2011.998 2992182 3002424 3024178 3049737 3074263 3098423 3126722 3163835 
2015.855 3210164 3261305 3309046 3347043 3373389 3392757 3412694 3440246 
2019.713 3477987 3523614 3570816 3615084 3654410 3691368 3729498 3769737 
2023.570 3809011 3839664 3855442 3853503 3838260 3819407 3807507 3809345 
2027.428 3823284 3840600 3850561 3847018 3830805 3811652 3801156 3809379 
2031.285 3838761 3884192 3936015 3987341 4036166 4086903 4146276 4217902 
2035.143 4299579 4383481 4460235 4523275 4572997 4615525 4658994 4708799 
2039.000 4764103 4818376 4863541 4893698 4909549 4917357 4925702 4940849 
2042.857 4963739 4988642 5007981 5015590 5010193 4996283 4981703 4974632 
2046.715 4979760 4998898 5030338 5072006 5121589 5175404 5229426 5275942 
2050.572 5306095 5313877 5298414 5265948 5229560 5204879 5203873 5230298 
2054.430 5278122 5333667 5382240 5413071 5424445 5422063 5416225 5415890 
2058.287 5425351 5442797 5463734 5482994 5499000 5512557 5527088 5543532 
2062.145 5560077 5571522 5572495 5560279 5537122 5508698 5482021 5462392 
2066.002 5450581 5443636 5436725 5426760 5414279 5402671 5396263 5397673 
2069.859 5405389 5415017 5420821 5418875 5409112 5393815 5377510 5362381 
2073.717 5348359 5332694 5313407 5289660 5264807 5243444 5230935 5229527 
2077.574 5236770 5247267 5255081 5256322 5250721 5241633 5233149 5228219 
2081.432 5227045 5227582 5227448 5225838 5225167 5229393 5241767 5262795 
2085.289 5288821 5313977 5331285 5336853 5330212 5314346 5293383 5269805 
2089.146 5243846 5214470 5180266 5142712 5106000 5076766 5060709 5060005 
2093.004 5072810 5093092 5114616 5132821 5147171 5160785 5177483 5199614 
2096.861 5226475 5254478 5279699 5299990 5316795 5333868 5354867 5382375 
2100.719 5414816 5449038 5480881 5508698 5533162 5557527 5585148 5617235 
2104.576 5652145 5686956 5718749 5747757 5776666 5811286 5856119 5912711 
2108.434 5978415 6047925 6115430 6178173 6236555 6294004 6353881 6417365 
2112.291 6481699 6541030 6589470 6623516 6643500 6653829 6660390 6668600 
2116.148 6681621 6699590 6721731 6747408 6777225 6812969 6855985 6906278 
2120.006 6961257 7017758 7072818 7125932 7178984 7235345 7297408 7364804 
2123.863 7433862 7498549 7553670 7596558 7628862 7654895 7680290 7708519 
2127.721 7740156 7772268 7800807 7822465 7836230 7843011 7845743 7846789 
2131.578 7848172 7851715 7859610 7875535 7903608 7946970 8005388 8073806 
2135.436 8143989 8206722 8255382 8288647 8310565 8327892 8346806 8369877 
2139.293 8395212 8418149 8434872 8443521 8446326 8446291 8445346 8441494 
2143.150 8429670 8402812 8357852 8295941 8224348 8151146 8084979 8027123 
2147.008 7974474 7920142 7857855 7786605 7710003 7634932 7566482 7504887 
2150.865 7444547 7376094 7291578 7187338 7066756 6937117 6805497 6674723 
2154.723 6544159 6411110 6277229 6152328 6053805 6003745 6019770 6104677 
2158.580 6245093 6415616 6587855 6740072 6864670 6964051 7045102 7113570 
2162.438 7167632 7201453 7209135 7187406 7140045 7074199 6998935 6918802 
2166.295 6835452 6745624 6647874 6543486 6438652 6342517 6261531 6198137 
2170.152 6147892 6103064 6055014 6000419 5941531 5886547 5844532 5821864 
2174.010 5819447 5832610 5853634 5873549 5886379 5886983 5871870 5838588 
2177.867 5785531 5713881 5629520 5542492 5465580 5409079 5377947 5368923 
2181.725 5371908 5373451 5364025 5341449 5310992 5282818 5266820 5267591 
2185.582 5283857 5309684 5337793 5364125 5388749 5414178 5442462 5473532 
2189.439 5503665 5527759 5541519 5544337 5539001 5530209 5521551 5514437 
2193.297 5506551 5495611 5481015 5466922 5459708 5467023 5493027 5536484 
2197.154 5590014 5643551 5687527 5717943 5734931 5742553 5745440 5746078 
2201.012 5743493 5735368 5719017 5694577 5665035 5635965 5610824 5592230 
2204.869 5579308 5569843 5561822 5555378 5551419 5550613 5551989 5551351 
2208.727 5542995 5522994 5490981 5452930 5418272 5397639 5398679 5423271 
2212.584 5466284 5519202 5572763 5620021 5657717 5685412 5703272 5711531 
2216.441 5709147 5696490 5676046 5653017 5634958 5628077 5635394 5654763 
2220.299 5679906 5703708 5720092 5728116 5730533 5732077 5736711 5744970 
2224.156 5754271 5760684 5760549 5753666 5742351 5730802 5722240 5717506 
2228.014 5714753 5711295 5705286 5697061 5688836 5683633 5682726 5684942 
2231.871 5687057 5684741 5676818 5664028 5650265 5639591 5635126 5636770 
2235.729 5642477 5649359 5656374 5664901 5678698 5700855 5732883 5771965 
2239.586 5812462 5848126 5874355 5890644 5900082 5908244 5920336 5939179 
2243.443 5965515 5997462 6033881 6073729 6117110 6163553 6211346 6256925 
2247.301 6295416 6322748 6337272 6340769 6337440 6332397 6329203 6329304 
2251.158 6331691 6335087 6338987 6345442 6357748 6378763 6409093 6445613 
2255.016 6482405 6512709 6531309 6536287 6528955 6512642 6490981 6465993 
2258.873 6438282 6407412 6374022 6339861 6307989 6282205 6265362 6258236 
2262.730 6260052 6269430 6285095 6307014 6335826 6371365 6411783 6453314 
2266.588 6490981 6520007 6537801 6544696 6543452 6537969 6531410 6525389 
2270.445 6519772 6513550 6506789 6500163 6495556 6495556 6501038 6511532 
2274.303 6525759 6541569 6557748 6574130 6591555 6610462 6630581 6650397 
2278.160 6667422 6680276 6688889 6695215 6702248 6712814 6728731 6749056 
2282.018 6771807 6793649 6812194 6826701 6837203 6845113 6851205 6856052 
2285.875 6859452 6861237 6861640 6861102 6860361 6859789 6858947 6857163 
2289.732 6853326 6847907 6842521 6839694 6842252 6852586 6870258 6894192 
2293.590 6921495 6949641 6977048 7003379 7029039 7054666 7079991 7104140 
2297.447 7125561 7143076 7156449 7166015 7172550 7176053 7175986 7170563 
2301.305 7158773 7140247 7116399 7090095 7064129 7040791 7020216 7000685 
2305.162 6979977 6956442 6930148 6903215 6879179 6861405 6851643 6849758 
2309.020 6853292 6859890 6867060 6873456 6879482 6885171 6890557 6895236 
2312.877 6898064 6898333 6895876 6891533 6886652 6882006 6877294 6871133 
2316.734 6861169 6845921 6824513 6798361 6769754 6741687 6716751 6696763 
2320.592 6682463 6673815 6669878 6669172 6668297 6662913 6647907 6618301 
2324.449 6571641 6508505 6433372 6353141 6275683 6207481 6151555 6107735 
2328.307 6073024 6043758 6017519 5993902 5974720 5962391 5958259 5961954 
2332.164 5971024 5982513 5994237 6005257 6016377 6029412 6045842 6065867 
2336.021 6088917 6113380 6138248 6162948 6187886 6213329 6239614 6266001 
2339.879 6291920 6317234 6342820 6370088 6400922 6436264 6475611 6517182 
2343.736 6559430 6602254 6648042 6701912 6769047 6853865 6957082 7075041 
2347.594 7200746 7325106 7439289 7534959 7606539 7650478 7665923 7654086 
2351.451 7618948 7566920 7505392 7442558 7386036 7340439 7308157 7288782 
2355.309 7280324 7280560 7288377 7303709 7327600 7361164 7404606 7456749 
2359.166 7515540 7578485 7643227 7708890 7774899 7841290 7908130 7975114 
2363.023 8042245 8109960 8179170 8251160 8326372 8404299 8482882 8559722 
2366.881 8632316 8700157 8763815 8825690 8887745 8951295 9015532 9078932 
2370.738 9139500 9196454 9251046 9306491 9366888 9436265 9516627 9608893 
2374.596 9712394 9825986 9948931 10081371 10223860 10376542 10539291 
2377.971 10710932 10889844 11074846 11264890 11459441 11658095 11859427 
2381.346 12061365 12261078 12455291 12641404 12817836 12984269 13140931 
2384.721 13288184 13425407 13551220 13663359 13759521 13838018 13898226 
2388.097 13940445 13965663 13975414 13971171 13954406 13927068 13891316 
2391.472 13849477 13803950 13756785 13708838 13660726 13612210 13563151 
2394.847 13513825 13464983 13418128 13375173 13338237 13309605 13291430 
2398.222 13285964 13294538 13318283 13357097 13409755 13474313 13548999 
2401.598 13632279 13723919 13824507 13934971 14056039 14187478 14327897 
2404.973 14475588 14629258 14788639 14954697 15129396 15314873 15512072 
2408.348 15720833 15939835 16167099 16401226 16640987 16886220 17136210 
2411.723 17389518 17643524 17893952 18135746 18364266 18574888 18764680 
2415.099 18931366 19073708 19191782 19285506 19356312 19405962 19437076 
2418.474 19452322 19454194 19444526 19425018 19396744 19361198 19320354 
2421.849 19276638 19232616 19190086 19150610 19114632 19082744 19055808 
2425.224 19035868 19026348 19030814 19053524 19097320 19164080 19254160 
2428.600 19367018 19501322 19656088 19830054 20022478 20231822 20456932 
2431.975 20696440 20949330 21215346 21494820 21788412 22096950 22420814 
2435.350 22760178 23115042 23485306 23870972 24271524 24686650 25115336 
2438.725 25556042 26008104 26470916 26945224 27432932 27936418 28457114 
2442.101 28995580 29550996 30121148 30703750 31296928 31899758 32512036 
2445.476 33133790 33764144 34401788 35044148 35688716 36332768 36974852 
2448.851 37613152 38246388 38872900 39490304 40096452 40689392 41267776 
2452.226 41831272 42379320 42911380 43425236 43917740 44384196 44820220 
2455.602 45220608 45580924 45896968 46164276 46378316 46534440 46628204 
2458.977 46656056 46615476 46505232 46325264 46075916 45758592 45375696 
2462.352 44930736 44429672 43879836 43290540 42672832 42037020 41393828 
2465.727 40753260 40123776 39513676 38930776 38382316 37875044 37414984 
2469.103 37006708 36653872 36358348 36120812 35940880 35817228 35747572 
2472.478 35727968 35753112 35817264 35912844 36032964 36170868 36320556 
2475.853 36476604 36634404 36788980 36936180 37072420 37194736 37301452 
2479.228 37391472 37464284 37519188 37554840 37569400 37561380 37529624 
2482.604 37474864 37398836 37304988 37197084 37078736 36952884 36821836 
2485.979 36687112 36550128 36412248 36273832 36135612 35997072 35856920 
2489.354 35713108 35563516 35406180 35239480 35062648 34875400 34677648 
2492.729 34469368 34250392 34020528 33779360 33526194 33260010 32979798 
2496.104 32684188 32372002 32042916 31697258 31337060 30964812 30584102 
2499.480 30198256 29810302 29422232 29035822 28651524 28270430 27893240 
2502.855 27521108 27154936 26795980 26445456 26104854 25775806 25460150 
2506.230 25159606 24875026 24606516 24352752 24111638 23880216 23656332 
2509.605 23438582 23226602 23020768 22821564 22629120 22442690 22261990 
2512.981 22086492 21916744 21754202 21601054 21458998 21328958 21210892 
2516.356 21103430 21005142 20915708 20835468 20766366 20710342 20669476 
2519.731 20644282 20634102 20637334 20651614 20675348 20707214 20746486 
2523.106 20792366 20844124 20900480 20959450 21019436 21078596 21135886 
2526.482 21190050 21240466 21286086 21325964 21359132 21384506 21401282 
2529.857 21408836 21406122 21392720 21368356 21333482 21289494 21238656 
2533.232 21183824 21127990 21072892 21019192 20966508 20913656 20859872 
2536.607 20805574 20751944 20701410 20656792 20619822 20591540 20571840 
2539.983 20559578 20553152 20551136 20552420 20555790 20560448 20565484 
2543.358 20570174 20574656 20579242 20584870 20592756 20603076 20615270 
2546.733 20627882 20638862 20646194 20648662 20646230 20639834 20630906 
2550.108 20621072 20611380 20602868 20595918 20590846 20588136 20587684 
2553.484 20589664 20593660 20598696 20604152 20609120 20613498 20616972 
2556.859 20619510 20620342 20618398 20611830 20598696 20577366 20547384 
2560.234 20508304 20460996 20405810 20343444 20274384 20199226 20118808 
2563.609 20034552 19948578 19862552 19778138 19696098 19617088 19541318 
2566.985 19470100 19405372 19349280 19304350 19271754 19251560 19242244 
2570.360 19240998 19245466 19253778 19265208 19279964 19298806 19322536 
2573.735 19351360 19385172 19423528 19466218 19513142 19564298 19619446 
2577.110 19678102 19739196 19801510 19864216 19926828 19989794 20053532 
2580.486 20119050 20187078 20258068 20332680 20411922 20496564 20587650 
2583.861 20685392 20789098 20896758 21005908 21114040 21219484 21321928 
2587.236 21422412 21522430 21623622 21726614 21830882 21935736 22039776 
2590.611 22142484 22244064 22344864 22445620 22546400 22646888 22746210 
2593.987 22843740 22939094 23032370 23123988 23214508 23303996 23392876 
2597.362 23480724 23567960 23655564 23744410 23836248 23931994 24032208 
2600.737 24136998 24246262 24360216 24479702 24605674 24739330 24881342 
2604.112 25031438 25188504 25351176 25518232 25689006 25863752 26043142 
2607.488 26227886 26418166 26613568 26813038 27015212 27218922 27422874 
2610.863 27626000 27826856 28023422 28213324 28393936 28562800 28718316 
2614.238 28859690 28986868 29100760 29202528 29293262 29374156 29446130 
2617.613 29510104 29566778 29616792 29660816 29699308 29733156 29763246 
2620.989 29790924 29817292 29843342 29869500 29895552 29920614 29944042 
2624.364 29965980 29986678 30008016 30032054 30060744 30095614 30137058 
2627.739 30184686 30237470 30294348 30354430 30417398 30483076 30551396 
2631.114 30621860 30694076 30767088 30840504 30913862 30986946 31059900 
2634.490 31132298 31204136 31274956 31344720 31413638 31482636 31552718 
2637.865 31624946 31700290 31778854 31860496 31944514 32030254 32117370 
2641.240 32205894 32296364 32389138 32484822 32583422 32684938 32789014 
2644.615 32895296 33003784 33114444 33227246 33342686 33461268 33583644 
2647.990 33710032 33840716 33975632 34114100 34255484 34398920 34543768 
2651.366 34689884 34837812 34988120 35142076 35300612 35464492 35634152 
2654.741 35809636 35990772 36177420 36369156 36565808 36766872 36971932 
2658.116 37180620 37393060 37609180 37829600 38054836 38284820 38519088 
2661.491 38756528 38995836 39235492 39474376 39711756 39947812 40182800 
2664.867 40417332 40651844 40886628 41122016 41358148 41595504 41834340 
2668.242 42075276 42318612 42564752 42813736 43065940 43321068 43579468 
2671.617 43840984 44105224 44372012 44640324 44909720 45179540 45449380 
2674.992 45718800 45987172 46253568 46516628 46775124 47028160 47275988 
2678.368 47519888 47762008 48005368 48253236 48508060 48771860 49046096 
2681.743 49331972 49630588 49943320 50271452 50616324 50978868 51359244 
2685.118 51757388 52173044 52605368 53053996 53517668 53995380 54485300 
2688.493 54985812 55494884 56011760 56535888 57067640 57608140 58158520 
2691.869 58719536 59292064 59876184 60472140 61080240 61700804 62334108 
2695.244 62979796 63637412 64305828 64983928 65670452 66364780 67066520 
2698.619 67775592 68491568 69214016 69942136 70674792 71411232 72150600 
2701.994 72891704 73633680 74374128 75110728 75840168 76559536 77265568 
2705.370 77955704 78626688 79275280 79897512 80488632 81043768 81558704 
2708.745 82030080 82456528 82837840 83174784 83469024 83722040 83935280 
2712.120 84110176 84247928 84349800 84416160 84447064 84441232 84396720 
2715.495 84311504 84183336 84011104 83794808 83535608 83235504 82897512 
2718.871 82525320 82123544 81697736 81254456 80800440 80343128 79889312 
2722.246 79444728 79015104 78605000 78219056 77861392 77535952 77245776 
2725.621 76993432 76779888 76605864 76471496 76376632 76321600 76306752 
2728.996 76331840 76395952 76496944 76631832 76797128 76989864 77207504 
2732.372 77448184 77710464 77992616 78292096 78605560 78929344 79259968 
2735.747 79594784 79931928 80270296 80609320 80947696 81283576 81614560 
2739.122 81938192 82252376 82555808 82847912 83129088 83400168 83662536 
2742.497 83918400 84170544 84423160 84679992 84945280 85222136 85512192 
2745.873 85815648 86131200 86456920 86789928 87127568 87466400 87802376 
2749.248 88130856 88447032 88745848 89023712 89278800 89511200 89722488 
2752.623 89915304 90092920 90257992 90412856 90559280 90698560 90831112 
2755.998 90956528 91073256 91178160 91267240 91336256 91381120 91398704 
2759.374 91386472 91342960 91266472 91155488 91008368 90823688 90601120 
2762.749 90340968 90044968 89715608 89356008 88969256 88558792 88128584 
2766.124 87683312 87228256 86770264 86315432 85869792 85438776 85026272 
2769.499 84635216 84268328 83927520 83614856 83331800 83078856 82855768 
2772.875 82661008 82492464 82347088 82222104 82114616 82021680 81939960 
2776.250 81865416 81793048 81717368 81632472 81531920 81409456 81259288 
2779.625 81075512 80854008 80591816 80288472 79946752 79571584 79170616 
2783.000 78752144 78324280 77894136 77466872 77045840 76633408 76230128 
2786.375 75836024 75450208 75070624 74694336 74317352 73936368 73548504 
2789.751 73152352 72748096 72337808 71924496 71510952 71100384 70695384 
2793.126 70298008 69910568 69535456 69175272 68832280 68508480 68205368 
2796.501 67923528 67663448 67425072 67208456 67013740 66840844 66689528 
2799.876 66558808 66447244 66352696 66273296 66206528 66150264 66102384 
2803.252 66060528 66022532 65986192 65950172 65913184 65875352 65837144 
2806.627 65799200 65762348 65726496 65691224 65654956 65615648 65570824 
2810.002 65518036 65454504 65377928 65286308 65177880 65052004 64908700 
2813.377 64748480 64572864 64383632 64183584 63975060 63761652 63547000 
2816.753 63336096 63135036 62949800 62787624 62655812 62560596 62507944 
2820.128 62502280 62546132 62640892 62785512 62978184 63215084 63491696 
2823.503 63802636 64141868 64503164 64880036 65264976 65650828 66029856 
2826.878 66394000 66735924 67048736 67326408 67564560 67759680 67910392 
2830.254 68016448 68079576 68103416 68092176 68051744 67987888 67906208 
2833.629 67812200 67710568 67605760 67502320 67404328 67316104 67241640 
2837.004 67184504 67147688 67134344 67147960 67193208 67276688 67405800 
2840.379 67590000 67839544 68164080 68574288 69081024 69695744 70432704 
2843.755 71308568 72341168 73549752 74950632 76552224 78350912 80324592 
2847.130 82430928 84600184 86742224 88751048 90506544 91898320 92831864 
2850.505 93240024 93095152 92408552 91230000 89633648 87714856 85578608 
2853.880 83321440 81036536 78802712 76678600 74708544 72918896 71319736 
2857.256 69908896 68673632 67595376 66650780 65816088 65068556 64386904 
2860.631 63752980 63151816 62570928 62001404 61437088 60874384 60312332 
2864.006 59751952 59196284 58649864 58119236 57612644 57138948 56708056 
2867.381 56329416 56010140 55755620 55567332 55444060 55380936 55370356 
2870.757 55402956 55467028 55550428 55640996 55727252 55800300 55854712 
2874.132 55889152 55905812 55909916 55908260 55906904 55911160 55924240 
2877.507 55948208 55983640 56031060 56090584 56162228 56245832 56340284 
2880.882 56444752 56557928 56679212 56808652 56946924 57094808 57252720 
2884.258 57420676 57597660 57782172 57973356 58169924 58371808 58578948 
2887.633 58791116 59007984 59228676 59452600 59679756 59911328 60149916 
2891.008 60399292 60663516 60946624 61252120 61583188 61942740 62334072 
2894.383 62760480 63225856 63733140 64283384 64874844 65501900 66154860 
2897.759 66818424 67475464 68105624 68688456 69207448 69650456 70013184 
2901.134 70299216 70519880 70692768 70837216 70974696 71124416 71302664 
2904.509 71523808 71799312 72139376 72553120 73049072 73634896 74318024 
2907.884 75105448 76003944 77021472 78165576 79443928 80862624 82424240 
2911.260 84125304 85954920 87893928 89912248 91969480 94019064 96004248 
2914.635 97866072 99549104 101002232 102187600 103084448 103689192 104014544 
2918.010 104085280 103934480 103594424 103092928 102450552 101677024 
2920.903 100773224 99733416 98550296 97218848 95741832 94131560 92412240 
2924.278 90618344 88787592 86961696 85178064 83465816 81846456 80332040 
2927.654 78926328 77627576 76429960 75326640 74309528 73371328 72506056 
2931.029 71708504 70975936 70307080 69702472 69163616 68692920 68292216 
2934.404 67962272 67702440 67509720 67379176 67303344 67272360 67275096 
2937.779 67298624 67330152 67358480 67374960 67374576 67356616 67324080 
2941.155 67282880 67239512 67200672 67170584 67151320 67140688 67133224 
2944.530 67119616 67087784 67024916 66919340 66762664 66552900 66295332 
2947.905 66003084 65694116 65390564 65114244 64882228 64706676 64591780 
2951.280 64534992 64527848 64558252 64613192 64678564 64742556 64795368 
2954.656 64829216 64838448 64819412 64769476 64687604 64573096 64427292 
2958.031 64252264 64052156 63832456 63599052 63358484 63116832 62878332 
2961.406 62646592 62423964 62211924 62011760 61825132 61653636 61498888 
2964.781 61362132 61244340 61146068 61067312 61007784 60966680 60942544 
2968.156 60933432 60936104 60947272 60963324 60981548 61000424 61019756 
2971.532 61040808 61064984 61094008 61128756 61169492 61216336 61268796 
2974.907 61326256 61387508 61449532 61507324 61552260 61573604 61558676 
2978.282 61494000 61369112 61176852 60915556 60588848 60206280 59781420 
2981.657 59329288 58866540 58408536 57967220 57551204 57165028 56808836 
2985.033 56479772 56172256 55880936 55601040 55329484 55065736 54810152 
2988.408 54562388 54320020 54075420 53816292 53526136 53185428 52777368 
2991.783 52290380 51721776 51079336 50380832 49651580 48917352 48202880 
2995.158 47525472 46893412 46305688 45754988 45230132 44719464 44214128 
2998.534 43709084 43203056 42697472 42194956 41698488 41210064 40730844 
3001.909 40261460 39802388 39354032 38917260 38492188 38079536 37678736 
3005.284 37289644 36911648 36544540 36188296 35843604 35511124 35191584 
3008.659 34885488 34592636 34312640 34043964 33784876 33533748 33288412 
3012.035 33047474 32809884 32575172 32343660 32115872 31892520 31674340 
3015.410 31461832 31255654 31056340 30864942 30682306 30509484 30346754 
3018.785 30193744 30048706 29909432 29772580 29635486 29495812 29352284 
3022.160 29205080 29055058 28904062 28754072 28607780 28467728 28337024 
3025.536 28219016 28116736 28032858 27968998 27924686 27897832 27883772 
3028.911 27876316 27867590 27849218 27813220 27752712 27662902 27541830 
3032.286 27390404 27212044 27012002 26796720 26572492 26345002 26118930 
3035.661 25897690 25683312 25477332 25280544 25093148 24915098 24745750 
3039.037 24584462 24430068 24281616 24138328 23999606 23865268 23735486 
3042.412 23610360 23489922 23374204 23263062 23155964 23052460 22952016 
3045.787 22854182 22758920 22666436 22577496 22492936 22413870 22340644 
3049.162 22272908 22209470 22148204 22086386 22021442 21951490 21875308 
3052.538 21793080 21705992 21615542 21523684 21432366 21343262 21257448 
3055.913 21175614 21097832 21023992 20953642 20886468 20822258 20761432 
3059.288 20704712 20653108 20607176 20567082 20532412 20502086 20475132 
3062.663 20450958 20429634 20412200 20399942 20394036 20395008 20402232 
3066.039 20414110 20428696 20443664 20457106 20467388 20473152 20473430 
3069.414 20467006 20452904 20430224 20398724 20358826 20311812 20259976 
3072.789 20205580 20151606 20100414 20054332 20014532 19981466 19954754 
3076.164 19932724 19913194 19893214 19870598 19843580 19811602 19774808 
3079.540 19734342 19691070 19645896 19599064 19550606 19500664 19449688 
3082.915 19398338 19347894 19299326 19253156 19209758 19169032 19131252 
3086.290 19096938 19067234 19043276 19025864 19014958 19009420 19007240 
3089.665 19006304 19004954 19002498 18999486 18996888 18996162 18998066 
3093.041 19002740 19009558 19017692 19026244 19034864 19043518 19052728 
3096.416 19062976 19074918 19088908 19105424 19124604 19146522 19170902 
3099.791 19197290 19224926 19252982 19281106 19308852 19336394 19364108 
3103.166 19392760 19422834 19454644 19488258 19523746 19560692 19598612 
3106.542 19636814 19673978 19708718 19739300 19764960 19785454 19801996 
3109.917 19816840 19833072 19853256 19879686 19913160 19953540 19999474 
3113.292 20049264 20100866 20152266 20201622 20247514 20288758 20324484 
3116.667 20355248 20381744 20405462 20428106 20450682 20473430 20496008 
3120.042 20517544 20537692 20556034 20573334 20590986 20609918 20630732 
3123.418 20653212 20676460 20699430 20721360 20742246 20762544 20783468 
3126.793 20805852 20830010 20855424 20881496 20907016 20931458 20954580 
3130.168 20976940 20999406 21023226 21049344 21078908 21112404 21150182 
3133.543 21192140 21237334 21284972 21333830 21382834 21431324 21478772 
3136.919 21525078 21569960 21613000 21653852 21691956 21727380 21760962 
3140.294 21794196 21829142 21867330 21909878 21956508 22006002 22056720 
3143.669 22107094 22156674 22206296 22257038 22310366 22366982 22426884 
3147.044 22489168 22552368 22615086 22676978 22737866 22798482 22859422 
3150.420 22920894 22982792 23044808 23106304 23167112 23227266 23287076 
3153.795 23346826 23407142 23468344 23530776 23594932 23661336 23729992 
3157.170 23800932 23873284 23946102 24018026 24088312 24156614 24223490 
3160.545 24290376 24358568 24429716 24504698 24583970 24667218 24754026 
3163.921 24843378 24934294 25025682 25116634 25206518 25295014 25382368 
3167.296 25469178 25555762 25642150 25727640 25810900 25890200 25964060 
3170.671 26031954 26094160 26151972 26207190 26261324 26314760 26367534 
3174.046 26418622 26466586 26510782 26550584 26586406 26618464 26647810 
3177.422 26674972 26701046 26727192 26754994 26785760 26820650 26860266 
3180.797 26904120 26951358 27000472 27050402 27100514 27151092 27202802 
3184.172 27256390 27312312 27370466 27430462 27491348 27552738 27614066 
3187.547 27675120 27735688 27795664 27854518 27911932 27968326 28024412 
3190.923 28081528 28141270 28204908 28272906 28345122 28420146 28496280 
3194.298 28572180 28646640 28719414 28790538 28860680 28930624 29000860 
3197.673 29071320 29142110 29212948 29283194 29352850 29421950 29491094 
3201.048 29560996 29632790 29707434 29785354 29866162 29948834 30031910 
3204.424 30114010 30193886 30271290 30346044 30419104 30490646 30561066 
3207.799 30630392 30698486 30765418 30831540 30897602 30964206 31031642 
3211.174 31099728 31167718 31235042 31301272 31366870 31432800 31500198 
3214.549 31570104 31642694 31717326 31792826 31868060 31942446 32015630 
3217.925 32088154 32160864 32234192 32308214 32382712 32457222 32531426 
3221.300 32605138 32678474 32751284 32823392 32894402 32964174 33033028 
3224.675 33101644 33171556 33243842 33319288 33397608 33477768 33557944 
3228.050 33636380 33711788 33783840 33852716 33918916 33983048 34045256 
3231.426 34105716 34164356 34221568 34277856 34333796 34389596 34444972 
3234.801 34499464 34552488 34604156 34655108 34706792 34760628 34817528 
3238.176 34877444 34939888 35003312 35066596 35129608 35192984 35257700 
3241.551 35324548 35393564 35463700 35533132 35599912 35662928 35722172 
3244.927 35778692 35834072 35889740 35946316 36004020 36062120 36120668 
3248.302 36179868 36240480 36303732 36370128 36439920 36512752 36587324 
3251.677 36663068 36739576 36816820 36895488 36975648 37057444 37140052 
3255.052 37222384 37303436 37381972 37457456 37529772 37598556 37664248 
3258.427 37727164 37787920 37847136 37905952 37965076 38025612 38087748 
3261.803 38151780 38217552 38285220 38354556 38426008 38499392 38574488 
3265.178 38650684 38727220 38803768 38880656 38959300 39040672 39126596 
3268.553 39217248 39311840 39408848 39505764 39600672 39692840 39782816 
3271.928 39871936 39962416 40055896 40152924 40253388 40356388 40460680 
3275.304 40565328 40670108 40774732 40879788 40985404 41092220 41201284 
3278.679 41313396 41429696 41551420 41679492 41813580 41953624 42098272 
3282.054 42246700 42398060 42551596 42707048 42864092 43022440 43181756 
3285.429 43342120 43503900 43668272 43836144 44008704 44186068 44367756 
3288.805 44553156 44740988 44930844 45122884 45318316 45518364 45723916 
3292.180 45935160 46152336 46374588 46601864 46834724 47073800 47320212 
3295.555 47574452 47836020 48103412 48374704 48647800 48921768 49196096 
3298.930 49471676 49749620 50031168 50317136 50608432 50905544 51209276 
3302.306 51520908 51841456 52172220 52513968 52866540 53229436 53601740 
3305.681 53982208 54369324 54762304 55159776 55560968 55965812 56374384 
3309.056 56787576 57206568 57632544 58065568 58505732 58952228 59404652 
3312.431 59863064 60328968 60804284 61291380 61791712 62304968 62829508 
3315.807 63362436 63900508 64441436 64984232 65528400 66075532 66626480 
3319.182 67182032 67742872 68309432 68881864 69460448 70045064 70634944 
3322.557 71228216 71822448 72415152 73005016 73591320 74175080 74757464 
3325.932 75339480 75920552 76499504 77073544 77640728 78199144 78748296 
3329.308 79287920 79817352 80335552 80839800 81327088 81795008 82241568 
3332.683 82666304 83069064 83449952 83807624 84140384 84446384 84723968 
3336.058 84973680 85197696 85398352 85578120 85737368 85874472 85986104 
3339.433 86067976 86116408 86129584 86107072 86049672 85958144 85833216 
3342.809 85674320 85480360 85250352 84983072 84677896 84334112 83951080 
3346.184 83528504 83066088 82564872 82026792 81455136 80853056 80224336 
3349.559 79571616 78896560 78200768 77485640 76753200 76006080 75247632 
3352.934 74480552 73707288 72929008 72146728 71360968 70573712 69787320 
3356.310 69005008 68230176 67465632 66713168 65973932 65248108 64536108 
3359.685 63838444 63155612 62488468 61837208 61201344 60580044 59972116 
3363.060 59376276 58792220 58219968 57660468 57114424 56582800 56066496 
3366.435 55566052 55082208 54615100 54164932 53730864 53311656 52905276 
3369.811 52509556 52122380 51742532 51369312 51002752 50642792 50289532 
3373.186 49942056 49599464 49260300 48923772 48588800 48255272 47923516 
3376.561 47593160 47264016 46935676 46607660 46279704 45951772 45624056 
3379.936 45296472 44968476 44639112 44307244 43971708 43631632 43286988 
3383.312 42938484 42587044 42233956 41880348 41527428 41176072 40827292 
3386.687 40481960 40140420 39803076 39469368 39138380 38808660 38479476 
3390.062 38149788 37820164 37491588 37165388 36843436 36527204 36217576 
3393.437 35915004 35619008 35328644 35042212 34758080 34474172 34189268 
3396.813 33902688 33615220 33328232 33043862 32764252 32490536 32223132 
3400.188 31961202 31702820 31447050 31192494 30939158 30687248 30437122 
3403.563 30188770 29941450 29694412 29446558 29197710 28948932 28702034 
3406.938 28459308 28222834 27993806 27772068 27556588 27345128 27135748 
3410.313 26927102 26718278 26509446 26301312 26094650 25890866 25690518 
3413.689 25494338 25302494 25115018 24931662 24752344 24576746 24404832 
3417.064 24236522 24071500 23908922 23748222 23588110 23427810 23267116 
3420.439 23106690 22948280 22794118 22646014 22505220 22371030 22242042 
3423.814 22115428 21988572 21859838 21728632 21595764 21463036 21332196 
3427.190 21204872 21081448 20961328 20843498 20726224 20607870 20487220 
3430.565 20363686 20237550 20109888 19982542 19857972 19738330 19625650 
3433.940 19520628 19422384 19329256 19238676 19148012 19055878 18961964 
3437.315 18867204 18773434 18682520 18595500 18512508 18432434 18353206 
3440.691 18272954 18189746 18102272 18010464 17914668 17815890 17715134 
3444.066 17613676 17511690 17409624 17307134 17204118 17100780 16998120 
3447.441 16897484 16800592 16708884 16623016 16542740 16466470 16392486 
3450.816 16318411 16242903 16164932 16083812 15999924 15912957 15823156 
3454.192 15730282 15634885 15537792 15440515 15344942 15252410 15163294 
3457.567 15077044 14991874 14906069 14817985 14726901 14633370 14538454 
3460.942 14443456 14349505 14257528 14167520 14079723 13994645 13912185 
3464.317 13833264 13757537 13684320 13612312 13539940 13466076 13390072 
3467.693 13312441 13233867 13155069 13076286 12997277 12917396 12835925 
3471.068 12752899 12668968 12585395 12503475 12423717 12346430 12270587 
3474.443 12194520 12117579 12038779 11958562 11877679 11797935 11720384 
3477.818 11646046 11575226 11507241 11440968 11374739 11306786 11235783 
3481.194 11161868 11085688 11009590 10936324 10867862 10805627 10748971 
3484.569 10695752 10643151 10588146 10529107 10466309 10401350 10336432 
3487.944 10273594 10214361 10158122 10103890 10050513 9997108 9943778 
3491.319 9891335 9840527 9791892 9745873 9701653 9659268 9618344 9579456 
3495.177 9542977 9509243 9478120 9448150 9418318 9387541 9355105 9321894 
3499.034 9288482 9256124 9225323 9195472 9165590 9134999 9103395 9071455 
3502.892 9040972 9014077 8992495 8977341 8968613 8965738 8967193 8971929 
3506.749 8978017 8984478 8989586 8992224 8992157 8989789 8987015 8986474 
3510.606 8990837 9001561 9018881 9040972 9064722 9087255 9106136 9121126 
3514.464 9132732 9143323 9154490 9167620 9183323 9200921 9219129 9237744 
3518.321 9255650 9272810 9288753 9302531 9312653 9318035 9317155 9309301 
3522.179 9294542 9273284 9245800 9212597 9173373 9128197 9077003 9020674 
3526.036 8959819 8896030 8830662 8764390 8697520 8629478 8559553 8487172 
3529.894 8412305 8335018 8256226 8176503 8096220 8015715 7934686 7852052 
3533.751 7767343 7679379 7588027 7493088 7395843 7297745 7201319 7108485 
3537.608 7021092 6939810 6864333 6793312 6724928 6657597 6590143 6522194 
3541.466 6454121 6387001 6321202 6257228 6194440 6131392 6067144 6000083 
3545.323 5930110 5857764 5785262 5714989 5649325 5590484 5538061 5490947 
3549.181 5446052 5399887 5349432 5292578 5229326 5161355 5091986 5024372 
3553.038 4961494 4904925 4854562 4809464 4768458 4730203 4694195 4659999 
3556.896 4626710 4593390 4558733 4520965 4478915 4432853 4383581 4332810 
3560.753 4283082 4236070 4193010 4154271 4119482 4087337 4056768 4024963 
3564.610 3989381 3946814 3893721 3828499 3751689 3666707 3580004 3498261 
3568.468 3427254 3369616 3324605 3288480 3256531 3224484 3189536 3150719 
3572.325 3108835 3065353 3021943 2979437 2937870 2896607 2855014 2813059 
3576.183 2771107 2730360 2692084 2656778 2624809 2595909 2569410 2544313 
3580.040 2519850 2495356 2470363 2445138 2420181 2396325 2374902 2356479 
3583.897 2340955 2326997 2311807 2291388 2261710 2220012 2165830 2102032 
3587.755 2033983 1968707 1912060 1867667 1835623 1814394 1799921 1788076 
3591.612 1775267 1758566 1735844 1706836 1672076 1633162 1592621 1553880 
3595.470 1519797 1493098 1474978 1465004 1461347 1461380 1461547 1459186 
3599.327 1452737 1442065 1428003 1412479 1397021 1383426 1372557 1364945 
3603.185 1360790 1360425 1363649 1370297 1378872 1387016 1390706 1385919 
3607.042 1369000 1338754 1296679 1247298 1196925 1152073 1116095 1089786 
3610.899 1070719 1055009 1038535 1019769 998514 977426 959527 947373 940898 
3615.239 938441 936316 929940 916426 893782 861942 823066 780510 737858 
3619.579 698596 665244 638962 619982 607838 600970 598382 598481 601102 
3623.918 606278 615403 628908 647358 668994 689801 703408 702280 680144 
3628.258 635379 573497 505886 446578 406247 387741 387907 399614 415036 
3632.597 427705 434306 435068 432216 429695 430392 435234 443228 451487 
3636.937 456827 457722 453775 446014 436694 427540 419513 412350 405285 
3641.277 397492 388968 381042 375372 373680 377494 386514 399747 414737 
3645.616 428966 439546 444156 440110 426246 401306 365290 320027 269728 
3649.956 220330 179259 153139 145449 156420 182739 219004 258356 294595 
3654.295 322116 337568 340055 331665 317540 304243 297413 300629 314390 
3658.635 336241 361377 384922 401869 409331 406844 396563 382502 369469 
3662.975 361178 360150 366915 381241 402798 431918 469829 517497 575588 
3667.314 643342 720367 808261 913471 1048731 1233375 1488543 1828668 2260378 
3671.654 2781111 3383874 4060079 4799078 5582866 6371130 7093160 7653749 
3675.511 7948691 7912213 7541667 6894058 6056022 5116024 4155743 3239005 
3679.369 2418648 1733881 1202008 819050 560857 395170 287566 211612 153006 
3683.708 106075 69951 45130 29424 17395 3114 -19051 -51520 -92964 -139703 
3688.530 -186603 -230220 -268700 -302077 -329724 -350880 -363593 -367069 
3692.387 -360812 -347569 -329823 -311348 -294958 -282110 -273170 -267839 
3696.245 -265653 -266117 -269230 -274826 -282442 -291746 -302607 -315652 
3700.102 -331876 -352568 -377630 -405536 -432084 -452441 -462503 -459855 
3703.960 -444894 -420697 -391534 -361077 -332604 -307110 -284461 -263998 
3707.817 -245387 -229028 -216245 -209058 -208992 -217139 -233598 -256712 
3711.675 -284660 -314361 -342537 -365778 -381536 -388124 -385442 -374783 
3715.532 -358263 -338928 -319427 -301944 -287508 -276846 -270157 -267673 
3719.389 -270256 -278336 -291945 -309957 -329757 -347834 -361010 -367797 
3723.247 -368261 -364983 -361838 -362004 -368095 -380245 -396532 -413580 
3727.104 -427053 -432813 -428509 -413150 -387958 -355581 -320751 -288269 
3730.962 -262772 -247672 -243268 -247540 -256779 -267210 -277839 -289561 
3734.819 -305355 -327373 -355647 -386568 -413911 -432117 -437612 -429767 
3738.677 -410932 -383522 -350416 -313070 -272872 -231346 -192598 -162525 
3742.534 -149806 -162326 -204355 -270256 -345450 -408449 -443008 -445060 
3746.391 -420962 -382364 -341676 -308401 -287442 -279130 -280356 -286216 
3750.249 -293335 -300521 -308136 -316314 -323301 -325784 -320155 -304891 
3754.106 -281150 -253037 -225816 -203362 -188160 -180278 -178125 -179085 
3757.964 -182198 -187332 -195546 -206872 -219523 -229558 -232869 -226014 
3761.821 -209058 -185312 -160107 -139538 -128077 -126255 -131621 -139438 
3765.678 -144208 -142850 -135629 -125526 -116781 -113535 -117510 -128673 
3769.536 -144506 -161332 -175574 -184749 -187994 -185974 -179913 -171799 
3773.393 -163154 -155503 -149176 -144109 -139339 -133807 -126917 -119365 
3777.251 -113005 -110355 -113767 -124135 -139770 -156960 -171236 -178886 
3781.108 -178688 -172329 -162889 -154310 -149276 -148779 -152025 -157159 
3784.966 -161697 -164280 -164545 -162690 -159014 -154211 -147885 -140068 
3788.823 -131124 -122214 -114595 -109494 -107009 -106280 -105850 -104359 
3792.680 -100881 -97071 -94819 -96641 -104359 -117609 -133344 -147322 
3796.538 -154609 -152124 -140035 -121916 -103167 -90744 -91175 -107937 
3800.395 -141094 -185577 -231512 -266580 -281481 -272177 -241645 -198195 
3804.253 -151363 -112077 -88558 -85212 -101444 -130793 -162425 -185047 
3808.110 -192134 -182298 -159312 -129369 -97635 -68118 -41581 -17129 6693 
3812.450 30053 51228 66173 69885 57623 27734 -16765 -66362 -109129 -134437 
3817.271 -136590 -116516 -81170 -40587 -5069 15573 15341 -5732 -41316 -79911 
3822.093 -110057 -124168 -121021 -104160 -80143 -55794 -35617 -22265 -15108 
3826.433 -11696 -8681 -3611 4406 14049 22863 28330 28429 22299 11265 -1921 
3831.737 -13783 -20443 -18620 -6792 14612 43573 75485 105412 127949 139185 
3836.559 137892 125629 106903 87184 71575 61699 56928 54144 50002 41386 
3841.380 27999 10106 -9675 -28891 -44662 -55297 -59471 -57318 -49698 -38102 
3846.202 -24452 -11199 66 8780 15705 23293 34626 51891 75717 103224 127684 
3851.506 140842 133086 98750 40094 -30846 -96806 -141889 -158451 -148878 
3855.846 -121187 -84649 -47279 -13651 14115 35951 53349 68095 80987 92553 
3860.667 102429 109256 111808 108428 97590 78799 52984 22796 -6825 -29753 
3865.489 -41150 -37738 -21006 4539 31180 51592 59347 51758 31544 6527 -13419 
3870.793 -20443 -12425 7057 31047 50532 58518 52686 34493 10337 -11795 
3875.615 -25015 -26042 -15572 1822 20245 33532 37277 29655 12491 -9045 
3880.437 -28726 -40024 -38268 -22895 4075 37774 72403 101435 120028 125099 
3885.259 117906 103489 89172 82014 86720 103025 127054 153271 174784 185689 
3890.080 183535 168187 143991 116647 92188 74557 65378 63887 68128 77242 
3894.902 90167 106340 125695 147173 169115 189269 205247 215457 219667 
3899.242 219402 216750 214695 214927 217380 220994 222883 220132 210783 
3903.581 194109 171171 144985 119696 98816 85394 80920 84864 95767 111311 
3908.403 128645 145217 159271 170044 177966 184032 189800 197258 207203 
3912.743 220330 236343 253847 271021 285510 295523 299767 298242 292440 
3917.082 284449 277287 273276 273607 278249 286670 297513 309748 322116 
3921.422 333721 343304 349638 351130 346322 334948 318103 297479 276591 
3925.761 258389 244730 236309 232398 231701 232895 235116 238464 242841 
3930.101 248410 254179 259185 262335 262434 259981 256334 252853 251129 
3934.441 251692 254079 257229 260246 262898 265219 268302 272546 278083 
3938.780 284018 288826 290417 287765 280305 268435 253947 238365 223513 
3943.120 210684 201004 194805 192518 193711 197656 203324 209026 213535 
3947.459 216386 217712 218573 220695 225171 232431 241647 251460 260279 
3951.799 266976 271353 273541 274668 275165 275464 275298 274469 272778 
3956.139 270789 269098 268601 269728 272679 276624 281133 285576 289787 
3960.478 293534 297115 300464 303116 305238 306432 307360 309018 312334 
3964.818 318103 326559 337104 348444 359421 369236 377328 384425 390991 
3969.157 397757 404489 410890 416164 419812 421835 422001 420939 419182 
3973.497 416694 414140 411719 410194 410393 413311 419347 428800 441105 
3977.837 455102 469630 483827 496764 508142 517862 525293 529738 530866 
3982.176 528079 521445 511891 500214 487741 475170 463328 452415 443095 
3986.516 435865 431420 430326 432879 438253 445715 453576 460641 466313 
3990.855 470360 472848 474440 475203 474440 472052 467640 461106 453278 
3995.195 445483 438319 432813 429463 427739 427540 428236 428899 429331 
3999.535 428535 426346 422299 
##END=
