
##TITLE=Z240_3_b
##JCAMP-DX=5.01  $$ Nicolet v. 1
##DATATYPE=INFRARED SPECTRUM
##ORIGIN=UniL
##OWNER=Nicolet
##LONGDATE=2011/09/09
##TIME=11:53:56
##SPECTROMETER/DATA SYSTEM=Nicolet iS5
##DATA PROCESSING=
Ratio against background
%Transmittance->Absorbance
Truncated
ElementMultiply or ElementDivide
##COMMENTS=
Number of sample scans: 32
Collection length: 51.19 sec
Sample gain: 2.0
Background collected on: Ven Sep 09 11:46:17 2011 (GMT+02:00);
Number of background scans: 32
Background gain: 2.0
Sample spacing:  1.000
Number of scan points: 12415
Resolution points: 8192
Number of FFT points: 65536
Apodization: N-B fort;
Phase correction: Mertz;
Laser frequency: 15798.0 cm-1
Number of rejected sample scans: 0
Number of rejected background scans: 0
Bench serial number: ASB1000141;
##RESOLUTION=4.000
##XUNITS=1/CM
##YUNITS=ABSORBANCE
##FIRSTX=649.893372
##LASTX=4000.122314
##FIRSTY=0.081853
##MAXX=4000.122314
##MINX=649.893372
##MAXY=0.280318
##MINY=-0.000956
##XFACTOR=1.000000
##YFACTOR=1.000000E-009
##NPOINTS=6950
##DELTAX=0.482117
##ZPD=6100
##XYDATA=(X++(Y..Y))
649.893 81852736 81939440 81902904 81742976 81478560 81141248 80776744 
653.268 80440168 80193048 80100280 80209392 80542352 81086008 81796568 
656.643 82614840 83485728 84378216 85287408 86227928 87218728 88272128 
660.018 89390520 90570664 91815584 93142088 94574344 96136400 97833032 
663.393 99644704 101528264 103434912 105323920 107159928 108910824 110523600 
666.767 111898680 112900168 113393832 113319592 112729944 111751184 
669.660 110507440 109072216 107468888 105696648 103758696 101684224 99529984 
673.035 97361744 95241816 93205232 91257792 89388688 87587752 85858936 
676.410 84223720 82713440 81355664 80166152 79141552 78263256 77502360 
679.785 76827424 76206160 75607440 75002808 74366264 73678080 72929520 
683.159 72125960 71288144 70445320 69632640 68880536 68207576 67621512 
686.534 67117408 66682456 66297456 65941296 65593140 65233632 64848608 
689.909 64428792 63972100 63483028 62970220 62444584 61914848 61385296 
693.284 60856240 60325084 59789104 59248312 58707624 58176512 57667996 
696.659 57195720 56771828 56404268 56095676 55842616 55636892 55468084 
700.034 55325756 55202856 55097484 55012364 54953476 54928016 54942532 
703.408 55001196 55105948 55256436 55450276 55681752 55941236 56215060 
706.783 56486112 56736752 56955008 57136532 57288636 57429828 57591340 
710.158 57813248 58140980 58626768 59318688 60254124 61447968 62878028 
713.533 64475760 66119164 67658064 68928224 69784944 70145176 69997336 
716.908 69411104 68515120 67486728 66518956 65785328 65443104 65609596 
720.282 66349648 67670568 69500848 71688192 73982408 76078552 77662912 
723.657 78452240 78282216 77137176 75164736 72627840 69853440 67161224 
727.032 64777904 62831960 61348736 60280048 59541216 59044308 58721964 
730.407 58524652 58418012 58375372 58369880 58378708 58387880 58395424 
733.782 58411340 58451256 58528860 58648196 58802500 58977504 59158732 
737.156 59335972 59504656 59664668 59814160 59948152 60059080 60141312 
740.531 60197904 60242136 60297368 60389048 60534908 60739536 60991312 
743.906 61267956 61541264 61787316 61991276 62147228 62256396 62324088 
747.281 62358168 62368608 62368608 62375840 62407396 62476800 62587916 
750.656 62733376 62895416 63052080 63185460 63286072 63356496 63408220 
754.031 63458136 63523300 63616508 63748448 63925804 64152508 64428256 
757.405 64746828 65095500 65455548 65808108 66138960 66443152 66726232 
760.780 67000524 67278968 67568896 67869760 68175592 68482416 68794808 
764.155 69132224 69527520 70027616 70687080 71558656 72692272 74119944 
767.530 75843480 77816560 79934600 82042520 83943560 85461240 86492984 
770.905 87060472 87327744 87575144 88133336 89248160 91000400 93226176 
774.279 95547280 97414024 98252144 97659608 95487544 91912160 87346416 
777.654 82357064 77492736 73153528 69581736 66828900 64813176 63375548 
781.029 62348872 61597924 61026352 60583016 60243312 59995472 59834924 
784.404 59762296 59785908 59921104 60187668 60605112 61185548 61934944 
787.779 62854512 63946456 65218768 66686900 68371480 70296960 72487736 
791.154 74968280 77769912 80931568 84499792 88524904 93044128 98064280 
794.528 103541008 109372136 115388552 121352184 126996416 132029744 
797.421 136172288 139216720 141050128 141698624 141325072 140227200 
800.314 138783200 137359184 136280976 135741456 135762864 136183776 
803.206 136684000 136862496 136289280 134644784 131793248 127818688 
806.099 123005280 117762848 112538112 107670080 103347680 99577648 96218928 
809.474 93041624 89809312 86365392 82653392 78728872 74716648 70775864 
812.849 67048228 63626440 60558064 57845992 55467216 53387072 51571796 
816.224 49992800 48625376 47449956 46450324 45613788 44932684 44403320 
819.598 44023592 43790368 43697688 43735360 43892740 44161488 44539424 
822.973 45032536 45654564 46423184 47354908 48461456 49744048 51189928 
826.348 52767344 54424416 56090660 57674204 59079764 60222188 61041340 
829.723 61524848 61714820 61711764 61652036 61697976 62014892 62733560 
833.098 63940240 65648868 67790816 70199384 72615664 74734872 76213072 
836.473 76748728 76151872 74371648 71525208 67859688 63720896 59460544 
839.847 55378416 51704904 48561936 45983560 43938528 42359924 41167840 
843.222 40284796 39648476 39206080 38913344 38736312 38647172 38626384 
846.597 38662492 38748592 38878956 39046764 39242712 39457576 39686052 
849.972 39928740 40192360 40487084 40822960 41205180 41634048 42106820 
853.347 42621696 43181464 43794656 44473384 45230280 46075068 47013240 
856.721 48048040 49184444 50431628 51806216 53331436 55033428 56943640 
860.096 59096012 61526068 64272432 67366064 70817680 74595616 78609016 
863.471 82697120 86615160 90077784 92785712 94462392 94926048 94106296 
866.846 92066784 88985032 85134808 80842792 76415304 72133856 68214248 
870.221 64788400 61927608 59643264 57906528 56661204 55837528 55363284 
873.596 55160492 55154924 55277172 55459536 55647812 55803504 55908032 
876.970 55965392 55999732 56049720 56154800 56347792 56644708 57039452 
880.345 57502824 57988236 58444512 58821508 59083980 59218960 59236236 
883.720 59165416 59045752 58919592 58819724 58766232 58767788 58826132 
887.095 58942856 59126840 59395120 59770812 60278332 60933280 61738076 
890.470 62678708 63728228 64850800 66007444 67165632 68296944 69379896 
893.844 70398912 71340736 72193872 72948528 73593208 74115032 74498368 
897.219 74723776 74771792 74627880 74287312 73761280 73077144 72278712 
900.594 71415760 70540072 69699400 68929512 68257320 67701392 67273248 
903.969 66981500 66832996 66832492 66983700 67289376 67752048 68375280 
907.344 69164240 70125384 71265544 72590056 74102096 75802920 77692952 
910.719 79772680 82043768 84507240 87160936 89996904 93002136 96160008 
914.093 99457736 102893048 106480592 110253848 114257888 118545864 123165136 
917.468 128143328 133478672 139124688 144985744 150892752 156609824 
920.361 161851744 166281920 169589632 171545984 172058720 171225712 
923.254 169340976 166890304 164441504 162602976 161943344 162866896 
926.146 165598480 170121296 176185856 183294816 190749648 197783056 
929.039 203563152 207355232 208638912 207114480 202757008 195774848 
931.932 186572448 175674592 163660192 151153200 138721232 126853512 
934.824 115958576 106302712 98041776 91235968 85864464 81863736 79149664 
938.199 77637360 77236952 77841416 79315920 81460016 84002776 86633560 
941.574 88993408 90747848 91645448 91535520 90408160 88378968 85670576 
944.949 82551440 79288128 76121944 73219920 70680920 68543208 66797360 
948.324 65406776 64323268 63502088 62903232 62493404 62246336 62137252 
951.698 62142296 62240144 62410880 62637940 62909856 63217656 63555092 
955.073 63917092 64299180 64697712 65111512 65541424 65990472 66462724 
958.448 66960348 67483512 68028968 68591824 69167112 69752040 70346672 
961.823 70952720 71573656 72211640 72867568 73541312 74232824 74942408 
965.198 75671568 76421240 77190880 77977192 78775304 79579576 80386944 
968.573 81197568 82015712 82847624 83699216 84573616 85470880 86388960 
971.947 87325800 88281056 89256584 90254848 91277424 92322400 93385312 
975.322 94460048 95542944 96633968 97737992 98862968 100017688 101209120 
978.697 102441024 103715488 105034536 106401336 107820912 109297688 
981.590 110834016 112427744 114073224 115762848 117489384 119247224 
984.482 121030872 122830616 124629992 126400944 128106296 129706872 
987.375 131165400 132455616 133566480 134501376 135276240 135914768 
990.268 136448848 136914768 137351744 137803200 138309456 138903232 
993.160 139607744 140431792 141373568 142423712 143572576 144812656 
996.053 146140000 147552544 149046592 150614720 152246832 153932832 
998.946 155666032 157445472 159273680 161152304 163076960 165033216 
1001.839 166998304 168947040 170855984 172711520 174511376 176263120 
1004.731 177980240 179679408 181380832 183106720 184883984 186743760 
1007.624 188713568 190814160 193052160 195418800 197891760 200442400 
1010.517 203044752 205677344 208324304 210971392 213599328 216182624 
1013.409 218693936 221108816 223415104 225614336 227718944 229741216 
1016.302 231683696 233532064 235257216 236821984 238191936 239347088 
1019.195 240285424 241023968 241593936 242042000 242429296 242825568 
1022.087 243315392 243986352 244913488 246155776 247741136 249666848 
1024.980 251904096 254409648 257136672 260034208 263049280 266118144 
1027.873 269152320 272046176 274678048 276919584 278661824 279816128 
1030.766 280317728 280127648 279223200 277600672 275279040 272307360 
1033.659 268767008 264757488 260392128 255773248 250976048 246051936 
1036.552 241027696 235917584 230736016 225503632 220249616 215013200 
1039.446 209839008 204777440 199887424 195225312 190840896 186760880 
1042.339 182971680 179407136 175944288 172429424 168688528 164569296 
1045.232 159981888 154906560 149405904 143602336 137665888 131775912 
1048.125 126090944 120747472 115835992 111403792 107462608 103994176 
1051.018 100960552 98311984 95998248 93972288 92192672 90627696 89251416 
1054.393 88040232 86971976 86020832 85157104 84351176 83572072 82792616 
1057.768 81992216 81156224 80277312 79355976 78401384 77431304 76471456 
1061.144 75556496 74724008 74011016 73452272 73073848 72892328 72915376 
1064.519 73140856 73557448 74142696 74865120 75679656 76529384 77355008 
1067.894 78095096 78697448 79129032 79375824 79443968 79354424 79138096 
1071.269 78827504 78451080 78033152 77590376 77134168 76672512 76211656 
1074.645 75758896 75324584 74921976 74566976 74276112 74061816 73929728 
1078.020 73875640 73886280 73940888 74015920 74091296 74150952 74185224 
1081.395 74188920 74159088 74093488 73991960 73859576 73710944 73572440 
1084.770 73485552 73501760 73677608 74073176 74740184 75719848 77038336 
1088.146 78699920 80683168 82933240 85366536 87865088 90286296 92491896 
1091.521 94351584 95771816 96709888 97173968 97218600 96926496 96401000 
1094.896 95742904 95038664 94362784 93770016 93300064 92983416 92838640 
1098.271 92872160 93071752 93402072 93797480 94157360 94363192 94279456 
1101.646 93775400 92756624 91172280 89033512 86407192 83412088 80196440 
1105.022 76908056 73692952 70669760 67921128 65502280 63437784 61729256 
1108.397 60363728 59319300 58569280 58082648 57827292 57768284 57865148 
1111.772 58076284 58354796 58650052 58914964 59104668 59183416 59130332 
1115.147 58938568 58616416 58182424 57663496 57088424 56483732 55873552 
1118.523 55277512 54710208 54183588 53706228 53284496 52923128 52625004 
1121.898 52391636 52221804 52110276 52045240 52006064 51964792 51886676 
1125.273 51734956 51481064 51108180 50617924 50030088 49381012 48715664 
1128.648 48077572 47505880 47026720 46651776 46379716 46198948 46090284 
1132.024 46028940 45989564 45948088 45884376 45786536 45652360 45490108 
1135.399 45315780 45150528 45016288 44930036 44902700 44937024 45028268 
1138.774 45164868 45329976 45503908 45663732 45786280 45852004 45844128 
1142.149 45753292 45576324 45316516 44981520 44581500 44128660 43635588 
1145.525 43115664 42583536 42052752 41535924 41042360 40576240 40136752 
1148.900 39718908 39316376 38923200 38536320 38156192 37786116 37430692 
1152.275 37093856 36779424 36489828 36227804 35996352 35799092 35638580 
1155.650 35516520 35432496 35384252 35368936 35384252 35429436 35505088 
1159.026 35612068 35751028 35920620 36118220 36340332 36583396 36844736 
1162.401 37121540 37410068 37704936 37997840 38278632 38537408 38764388 
1165.776 38952484 39096540 39192592 39237196 39227656 39162204 39041616 
1169.151 38870584 38658576 38418188 38164440 37913188 37677836 37470424 
1172.527 37301344 37179036 37111648 37106524 37169216 37303836 37512648 
1175.902 37797284 38160280 38606720 39144472 39784412 40538700 41418868 
1179.277 42436200 43600052 44919860 46406040 48069248 49920904 51971664 
1182.652 54229760 56701148 59388584 62291504 65402388 68702152 72157136 
1186.028 75708920 79273448 82749560 86013440 88937576 91405616 93311776 
1189.403 94579912 95167880 95068976 94314608 92969216 91128384 88899760 
1192.778 86398576 83740120 81021000 78323328 75708880 73214304 70858240 
1196.153 68641920 66555800 64584508 62712544 60928480 59225832 57604284 
1199.529 56066796 54618856 53264944 52007520 50846688 49780572 48806672 
1202.904 47923224 47130564 46430556 45825716 45316996 44902004 44573316 
1206.279 44320232 44128844 43984908 43877196 43796232 43735288 43689520 
1209.654 43653724 43623388 43595476 43569828 43551188 43548880 43576900 
1213.030 43650684 43785088 43993084 44283688 44662944 45134096 45698332 
1216.405 46354792 47100168 47929624 48837148 49817212 50866392 51984028 
1219.780 53172508 54435120 55775476 57196552 58700948 60292536 61978052 
1223.155 63767292 65672532 67705848 69874648 72180024 74613952 77158744 
1226.531 79785696 82458248 85129648 87741664 90232704 92535560 94583872 
1229.906 96322984 97710320 98721536 99353840 99628328 99592904 99319104 
1233.281 98909816 98489648 98190664 98156440 98518544 99386368 100851248 
1236.656 102974312 105791584 109317800 113548176 118458984 124000952 
1239.549 130103288 136663264 143543456 150591344 157630256 164470096 
1242.442 170929168 176819264 181960384 186199360 189405792 191493488 
1245.335 192426480 192217648 190922624 188627552 185448944 181518848 
1248.229 176977552 171973456 166635744 161063184 155314208 149397824 
1251.122 143284560 136922992 130270656 123312824 116083136 108662024 
1254.015 101176576 93783832 86637088 79885248 73646048 67990368 62950456 
1257.390 58515744 54645608 51276944 48338404 45759956 43472476 41417664 
1260.765 39548152 37825012 36222184 34722332 33314564 31992588 30751262 
1264.140 29585222 28489346 27458910 26491448 25587040 24746906 23972398 
1267.516 23262816 22614494 22021826 21479434 20983652 20534322 20134182 
1270.891 19788332 19501358 19277262 19119308 19030224 19013990 19075232 
1274.266 19217516 19441096 19740930 20105758 20518136 20955486 21394250 
1277.641 21808202 22171112 22459506 22652506 22736538 22708676 22577948 
1281.017 22364016 22092036 21788656 21473236 21154740 20832932 20501148 
1284.392 20152994 19787362 19410880 19037252 18683938 18365752 18093706 
1287.767 17873406 17705952 17591316 17529216 17519382 17560644 17649426 
1291.142 17779748 17944226 18136334 18352098 18589344 18846788 19121074 
1294.518 19404956 19687568 19957910 20207280 20433872 20643276 20847880 
1297.893 21062666 21303276 21583818 21915732 22308796 22770582 23303578 
1301.268 23901674 24545612 25203182 25827708 26366056 26769760 26998392 
1304.643 27029492 26859986 26504268 25990230 25353282 24635762 23878954 
1308.019 23122486 22402672 21746748 21172412 20686850 20288028 19968110 
1311.394 19717732 19530574 19402842 19333066 19319592 19357802 19440506 
1314.769 19559792 19708752 19884404 20086222 20314554 20567186 20837554 
1318.144 21114770 21387012 21645772 21888134 22117972 22342738 22570340 
1321.520 22804838 23045470 23288126 23528186 23763238 23994948 24228570 
1324.895 24472658 24737366 25034072 25376222 25778868 26255268 26814554 
1328.270 27454884 28160714 28900980 29635486 30323764 30931578 31441204 
1331.645 31852264 32179952 32447082 32678578 32896652 33116806 33350806 
1335.021 33607848 33895664 34221676 34591956 35010280 35479268 36001964 
1338.396 36582528 37228196 37946524 38742288 39614940 40556668 41554044 
1341.771 42589860 43646688 44706940 45750348 46755268 47695772 48544148 
1345.146 49276704 49877048 50338344 50663120 50857192 50923616 50857452 
1348.521 50642308 50254112 49669372 48871520 47860808 46656796 45299820 
1351.897 43844868 42352364 40887500 39508776 38265532 37198888 36334788 
1355.272 35683824 35239084 34978532 34867968 34867932 34944484 35070588 
1358.647 35229240 35412504 35616924 35841772 36089344 36368040 36694972 
1362.022 37094940 37599316 38234268 39011204 39922640 40941640 42028660 
1365.398 43134404 44209068 45201968 46058304 46726192 47156380 47308500 
1368.773 47160776 46711808 45982052 45006844 43833544 42515200 41102964 
1372.148 39653704 38228224 36888848 35703144 34729940 34007268 33546024 
1375.523 33328302 33319250 33479630 33782408 34219992 34805892 35570316 
1378.899 36555784 37814744 39402096 41375460 43784684 46650632 49939232 
1382.274 53530972 57225808 60730924 63704208 65824224 66800960 66444272 
1385.649 64701056 61689384 57705120 53165352 48554968 44281084 40602836 
1389.024 37627680 35328824 33606880 32333486 31391516 30683302 30132762 
1392.400 29689020 29317222 28997636 28724336 28500490 28333700 28229908 
1395.775 28189494 28206500 28272022 28376744 28512980 28676442 28864434 
1399.150 29075288 29308078 29561848 29836066 30130452 30444620 30777830 
1402.525 31128808 31496636 31882216 32288942 32722700 33189152 33692164 
1405.901 34231284 34802664 35400932 36022736 36668256 37341280 38046984 
1409.276 38789060 39567788 40380712 41224052 42094368 42987904 43896628 
1412.651 44801924 45672528 46465848 47135028 47645996 47987644 48179520 
1416.026 48267192 48316596 48402260 48590392 48935376 49467260 50184744 
1419.402 51056452 52028808 53042764 54043260 54990516 55865452 56669888 
1422.777 57432624 58206252 59062412 60067568 61264444 62657924 64217464 
1426.152 65892240 67627472 69384208 71136520 72869528 74573664 76237280 
1429.527 77848632 79400688 80901552 82378088 83869280 85421344 87072784 
1432.903 88848616 90763896 92833504 95086296 97572616 100361720 103520736 
1436.278 107086488 111028824 115257056 119653408 124107736 128530248 
1439.171 132832096 136913088 140623344 143765856 146138416 147540496 
1442.064 147824944 146924432 144849008 141686144 137579552 132730080 
1444.957 127363712 121702456 115972560 110373240 105080792 100260496 
1447.850 96039584 92491240 89614760 87340344 85552984 84132056 82996176 
1451.225 82116976 81518968 81251336 81357944 81846136 82682936 83798104 
1454.601 85106832 86534760 88017672 89517592 91021728 92547248 94126944 
1457.976 95794912 97591616 99547192 101685440 104022424 106559864 109278760 
1461.351 112128448 115034824 117882712 120513048 122753416 124427400 
1464.244 125415344 125703216 125401008 124706464 123824872 122931704 
1467.137 122135608 121485048 120994272 120652272 120428656 120262672 
1470.030 120056040 119670560 118931216 117681592 115841016 113461304 
1472.923 110721856 107865344 105109360 102582920 100343312 98410384 96800184 
1476.299 95546992 94691776 94256848 94231448 94565080 95186080 96016808 
1479.674 96999984 98111496 99358552 100772800 102393288 104257664 106393760 
1483.049 108826440 111588568 114725792 118293096 122336472 126867784 
1485.942 131828744 137057120 142298944 147186112 151271536 154104720 
1488.835 155258208 154434912 151558992 146817200 140636640 133554416 
1491.728 126109240 118700344 111549240 104755480 98320584 92218360 86456192 
1495.104 81088768 76226776 72010256 68555504 65915576 64066024 62933444 
1498.479 62422548 62445236 62935284 63838288 65104240 66682568 68511664 
1501.854 70521520 72641120 74779624 76829832 78659016 80072872 80821960 
1505.229 80617024 79195592 76465368 72613664 68080856 63352160 58770520 
1508.604 54476324 50467576 46694980 43124192 39751692 36613028 33758484 
1511.980 31224538 29026470 27150668 25564862 24230252 23110604 22175120 
1515.355 21393904 20738632 20185550 19718252 19334036 19040610 18846926 
1518.730 18753334 18746656 18798552 18878244 18963832 19057990 19188772 
1522.105 19396224 19708580 20126756 20629966 21187650 21776532 22387040 
1525.481 23028140 23720366 24486504 25338426 26272024 27272478 28323370 
1528.856 29414646 30545958 31726454 32969360 34286568 35687208 37175240 
1532.231 38748376 40399040 42110836 43859896 45616288 47351620 49041124 
1535.606 50666736 52207868 53642420 54948964 56100012 57071040 57841828 
1538.982 58400008 58737780 58851100 58747340 58447048 57985624 57405060 
1542.357 56737128 55992192 55156316 54204160 53116824 51903364 50605936 
1545.732 49289508 48014064 46806676 45657180 44525256 43364892 42147996 
1549.107 40886012 39627244 38442408 37387464 36480892 35702964 35011068 
1552.483 34364816 33743944 33157538 32635714 32209604 31889096 31653672 
1555.858 31452392 31219944 30878426 30348424 29565608 28508344 27235714 
1559.233 25887560 24625278 23553198 22692792 22008302 21442462 20939108 
1562.608 20449534 19939490 19393558 18819314 18244550 17707472 17242278 
1565.984 16862590 16558917 16303720 16065383 15818551 15553796 15280037 
1569.359 15019965 14798135 14628915 14513786 14444620 14411635 14407011 
1572.734 14425335 14460652 14502686 14536878 14548253 14528313 14484460 
1576.109 14441229 14432529 14482268 14595538 14759397 14954251 15162711 
1579.485 15376729 15598889 15839238 16109876 16419670 16770491 17158028 
1582.860 17574342 18009634 18452624 18889698 19301370 19663056 19950000 
1586.235 20141158 20228282 20219638 20142026 20034656 19943478 19914964 
1589.610 19985838 20183260 20523276 21009594 21631910 22360702 23148276 
1592.986 23924466 24605114 25110736 25372146 25350122 25042284 24483068 
1596.361 23735344 22872170 21970414 21093726 20289764 19595424 19035418 
1599.736 18625070 18371560 18273300 18321166 18501892 18802878 19213428 
1603.111 19724148 20324588 20998118 21718636 22453646 23161906 23799042 
1606.487 24324472 24699274 24892920 24886394 24671602 24253516 23648706 
1609.862 22887014 22008894 21063222 20105550 19185168 18338274 17584070 
1613.237 16921702 16336437 15806386 15310138 14832522 14368342 13926315 
1616.612 13525549 13189600 12936852 12775214 12700457 12699468 12752251 
1619.988 12836231 12930469 13017557 13089705 13151313 13219384 13316234 
1623.363 13460334 13659633 13908524 14194154 14502583 14825801 15160790 
1626.738 15507127 15862813 16221061 16571654 16905098 17217218 17511414 
1630.113 17796732 18083170 18376018 18673492 18964974 19235630 19469926 
1633.489 19653906 19778830 19842644 19851244 19816458 19755390 19685384 
1636.864 19618406 19559964 19507560 19453430 19384964 19288796 19154938 
1640.239 18980586 18772362 18544422 18314254 18095088 17889980 17691906 
1643.614 17484680 17249174 16967628 16632035 16247271 15833706 15423280 
1646.990 15050218 14742807 14515807 14370055 14296289 14278928 14296768 
1650.365 14321869 14320705 14251193 14073288 13771628 13381530 12991063 
1653.740 12691212 12525914 12478478 12504089 12555790 12600948 12622847 
1657.115 12616060 12583246 12529904 12460884 12377589 12278734 12161636 
1660.490 12024472 11867260 11692233 11503227 11305596 11106287 10913219 
1663.866 10735148 10579318 10449136 10342675 10251678 10162870 10059194 
1667.241 9924420 9747194 9524822 9265872 8987082 8710196 8453454 8228502 
1671.098 8038903 7882047 7750950 7634662 7519551 7389979 7231808 7039343 
1674.956 6820104 6596333 6395810 6240488 6136903 6076720 6042583 6016813 
1678.813 5988191 5954295 5921478 5899478 5895481 5907707 5924904 5928128 
1682.671 5898537 5826062 5720058 5608810 5529303 5506349 5540579 5616598 
1686.528 5713914 5817767 5920134 6019064 6115766 6212153 6308830 6406201 
1690.385 6505410 6609722 6722842 6847536 6982334 7120879 7250641 7357558 
1694.243 7429784 7464502 7472794 7478053 7505628 7566887 7654997 7747206 
1698.100 7816156 7834070 7783333 7665890 7508999 7358401 7252730 7206237 
1701.958 7205698 7225844 7239860 7227866 7178378 7087502 6960179 6808324 
1705.815 6647773 6492327 6350485 6224286 6109852 6001225 5891484 5776264 
1709.673 5654595 5529303 5405221 5288386 5182546 5088399 5003289 4922820 
1713.530 4842968 4761490 4678822 4596269 4513733 4428568 4336023 4232189 
1717.387 4118879 4006603 3911373 3847653 3822950 3834683 3873494 3926385 
1721.245 3981055 4029845 4070113 4103560 4135036 4169091 4208467 4253168 
1725.102 4301822 4352857 4405706 4459264 4511590 4558331 4593055 4609798 
1728.960 4605478 4581904 4545205 4502685 4458963 4411396 4348607 4253904 
1732.817 4111487 3916957 3686623 3454740 3261105 3129693 3060348 3036090 
1736.675 3033921 3034221 3023644 2996585 2954983 2905813 2857649 2817294 
1740.532 2788781 2772508 2768106 2774509 2791049 2816160 2847176 2880530 
1744.389 2912585 2941039 2965659 2987277 3007229 3025646 3040995 3050504 
1748.247 3051605 3042730 3024111 2997686 2966159 2931865 2897274 2864453 
1752.104 2836204 2814693 2800853 2793149 2786747 2773975 2746265 2697118 
1755.962 2625609 2537414 2444904 2361576 2296018 2249687 2216349 2186243 
1759.819 2148814 2098137 2033650 1961185 1889397 1826406 1776831 1740967 
1763.677 1716018 1698221 1684783 1672742 1659803 1643505 1621588 1593752 
1767.534 1562891 1534494 1515475 1509456 1515608 1527478 1535093 1528276 
1771.391 1501643 1458455 1410052 1371028 1352248 1356337 1377809 1408024 
1775.249 1438874 1467065 1493198 1520861 1552816 1589029 1625379 1655778 
1779.106 1675103 1681656 1678629 1672808 1671079 1676899 1689240 1703776 
1782.964 1715352 1720641 1720043 1717182 1716583 1721739 1732650 1747488 
1786.821 1763623 1779359 1794863 1811366 1829533 1847668 1861810 1866070 
1790.678 1854955 1826738 1784017 1734014 1684949 1642674 1608850 1581514 
1794.536 1556906 1532299 1507461 1483855 1462378 1443993 1426707 1408058 
1798.393 1385520 1358796 1329880 1302794 1281791 1269429 1265474 1267501 
1802.251 1272918 1280063 1289002 1300036 1313562 1328684 1342643 1352880 
1806.108 1358065 1358863 1358331 1360292 1367405 1379803 1395260 1410318 
1809.966 1421321 1427770 1431194 1434918 1442132 1453767 1468994 1485750 
1813.823 1502607 1519697 1539382 1564654 1598042 1639581 1686479 1734547 
1817.680 1779925 1820350 1856220 1889830 1923842 1959421 1996534 2033417 
1821.538 2067907 2098004 2122443 2140523 2152111 2157938 2159570 2160136 
1825.395 2164531 2176686 2199164 2230603 2265707 2296384 2314539 2315405 
1829.253 2300648 2278497 2260944 2259879 2281095 2322966 2378267 2438140 
1833.110 2495556 2547479 2595109 2642510 2693918 2752234 2817628 2889102 
1836.968 2966393 3050204 3143076 3248052 3366710 3498261 3639976 3787519 
1840.825 3937151 4086401 4234063 4380034 4524882 4669076 4814188 4962667 
1844.682 5117902 5283019 5458030 5639322 5819111 5987284 6132534 6246673 
1848.540 6325808 6370390 6384311 6372206 6337037 6278775 6195616 6086464 
1852.397 5952246 5798056 5631199 5458668 5285937 5114516 4943899 4772646 
1856.255 4601360 4432685 4271270 4120318 3980687 3849224 3721210 3592766 
1860.112 3462689 3334288 3212968 3104763 3012066 2933833 2865620 2802821 
1863.969 2742330 2684416 2631209 2585309 2546879 2513918 2482192 2449036 
1867.827 2414517 2383232 2362176 2357778 2371837 2400823 2437540 2473761 
1871.684 2503687 2524949 2537713 2543246 2541980 2533214 2515018 2486458 
1875.542 2448470 2403821 2356546 2309609 2263609 2216448 2165464 2108558 
1879.399 2046567 1982787 1921213 1864306 1811499 1758400 1700150 1633694 
1883.257 1560763 1487745 1423482 1376014 1348526 1338721 1339186 1340981 
1887.114 1337491 1325859 1306849 1283918 1260589 1239622 1222110 1209551 
1890.971 1204068 1208421 1225034 1254043 1292259 1333403 1370563 1399149 
1894.829 1418230 1431261 1443894 1461115 1484287 1511318 1538318 1561561 
1898.686 1580949 1599139 1620623 1648627 1683452 1722072 1758732 1788908 
1902.544 1810501 1824808 1835190 1844640 1853957 1861477 1864439 1861111 
1906.401 1852959 1842976 1835922 1834225 1837652 1842011 1842943 1836687 
1910.259 1822712 1804179 1785015 1768147 1753908 1740335 1724101 1704608 
1914.116 1683552 1664992 1652585 1647463 1647098 1645435 1636554 1617431 
1917.973 1590692 1562792 1540147 1525915 1517636 1508193 1489640 1457424 
1921.831 1412445 1362319 1317151 1284549 1267634 1262617 1263049 1261919 
1925.688 1256868 1249258 1243808 1243642 1248029 1252515 1251252 1239588 
1929.546 1217027 1188353 1160744 1140811 1131409 1131210 1135794 1141143 
1933.403 1145030 1148086 1152039 1157122 1161309 1161408 1153867 1138884 
1937.260 1120712 1106561 1102309 1110248 1126227 1141907 1148850 1142073 
1941.118 1122107 1095931 1071716 1054610 1044712 1036874 1024851 1006418 
1944.975 985064 968759 966467 983337 1018109 1063080 1109451 1151109 1188054 
1949.315 1226164 1271190 1326656 1388180 1446453 1489707 1510886 1509423 
1953.172 1492566 1470224 1450808 1437477 1427039 1413144 1390839 1359727 
1957.030 1324662 1291594 1265873 1247198 1230351 1209883 1182970 1152438 
1960.887 1126692 1114102 1118819 1138153 1163900 1185230 1196792 1198719 
1964.745 1196792 1197955 1207557 1222144 1235468 1238791 1228058 1205962 
1968.602 1180678 1160112 1149315 1147488 1149481 1150544 1151109 1156857 
1972.459 1177555 1219917 1282688 1356170 1427139 1484121 1525516 1560397 
1976.317 1604161 1669815 1759963 1862442 1954695 2016573 2034682 2009915 
1980.174 1954395 1883973 1812264 1744327 1678762 1611478 1542242 1476474 
1984.032 1424579 1396789 1397254 1421454 1458355 1494395 1520828 1536522 
1987.889 1548227 1564022 1590360 1625845 1663362 1692633 1706703 1705672 
1991.747 1695826 1687610 1690537 1707967 1738406 1776265 1815625 1853591 
1995.604 1888931 1921512 1949902 1969905 1976695 1967509 1943378 1911495 
1999.461 1880113 1857518 1847402 1847801 1851994 1853125 1848167 1838151 
2003.319 1827104 1819252 1815559 1812630 1805311 1789906 1768047 1746390 
2007.176 1733815 1736443 1752944 1776032 1794065 1798457 1787544 1766384 
2011.034 1744760 1732650 1732152 1741067 1751679 1758067 1759431 1761527 
2014.891 1772273 1798623 1841146 1894555 1949170 1998698 2043437 2091511 
2018.749 2153542 2236531 2338690 2450136 2554511 2636810 2690450 2716890 
2022.606 2725125 2725892 2724792 2722458 2715156 2699352 2675948 2651844 
2026.463 2635776 2635110 2649711 2671614 2688450 2689450 2670914 2637943 
2030.321 2602408 2577643 2572643 2590542 2628543 2682015 2747765 2825465 
2034.178 2915053 3015169 3119247 3217074 3298863 3358830 3397933 3423881 
2038.036 3446658 3474680 3510019 3549102 3585182 3612310 3628983 3638104 
2041.893 3644453 3651303 3657752 3658787 3648863 3624940 3590494 3554380 
2045.750 3528792 3524148 3546229 3593367 3658052 3731436 3803897 3866574 
2049.608 3913647 3940094 3943137 3922875 3884460 3838026 3796978 3774884 
2053.465 3779965 3812421 3863231 3917926 3963031 3989783 3998511 3996571 
2057.323 3995166 4000885 4016301 4036634 4054761 4064895 4066099 4061584 
2061.180 4057871 4060146 4069009 4081183 4091385 4095633 4093960 4090281 
2065.038 4089311 4094696 4106102 4118913 4127008 4126774 4118645 4106804 
2068.895 4098008 4095933 4100817 4108510 4112256 4106570 4090214 4065397 
2072.752 4037738 4012255 3991020 3972929 3955375 3935714 3914315 3894021 
2076.610 3879445 3874163 3879378 3893620 3913011 3934911 3957447 3980185 
2080.467 4003560 4026601 4046300 4058942 4061718 4054159 4039979 4024896 
2084.325 4015432 4015030 4023692 4037504 4050915 4059543 4061183 4056467 
2088.182 4047270 4034929 4019244 3999112 3972896 3941699 3908364 3878041 
2092.040 3855810 3844945 3845213 3854038 3868346 3885697 3905723 3929862 
2095.897 3958484 3990351 4021752 4047370 4063523 4070046 4070915 4072688 
2099.754 4081551 4101486 4131122 4166883 4203382 4236839 4266954 4296367 
2103.612 4328225 4364839 4405840 4449121 4492440 4535563 4579594 4627715 
2107.469 4681937 4741659 4802596 4859353 4907002 4944502 4975134 5004629 
2111.327 5039288 5082733 5133391 5185866 5233853 5272086 5298917 5316560 
2115.184 5328669 5339268 5351110 5364696 5380463 5399786 5425049 5460111 
2119.042 5507289 5565984 5632239 5699545 5761591 5814074 5857025 5893667 
2122.899 5928565 5965952 6007810 6053301 6101215 6149875 6198775 6248555 
2126.756 6298946 6347729 6391540 6425940 6448606 6459771 6463269 6465421 
2130.614 6471407 6484288 6503392 6525625 6548296 6570531 6594718 6624357 
2134.471 6661702 6705343 6750470 6789005 6815998 6830504 6838044 6847940 
2138.329 6869147 6905571 6954557 7007892 7054598 7085616 7097572 7092352 
2142.186 7075647 7052073 7025402 6995769 6963075 6927117 6889749 6854403 
2146.043 6823604 6797116 6771907 6742158 6703291 6654031 6597544 6538407 
2149.901 6482539 6430816 6380209 6325034 6259413 6180727 6091068 5995413 
2153.758 5898571 5802891 5707233 5610254 5513665 5427364 5366608 5350506 
2157.616 5394049 5498229 5648519 5819111 5981740 6114388 6208993 6268254 
2161.473 6301871 6319487 6325741 6321269 6305535 6278069 6243143 6206775 
2165.331 6173132 6143120 6112910 6075141 6023063 5954867 5873952 5787882 
2169.188 5705387 5632407 5569306 5512893 5458064 5400893 5342422 5285870 
2173.045 5235161 5193511 5160852 5134699 5112102 5091483 5073414 5058831 
2176.903 5047468 5035467 5015959 4982407 4931097 4864513 4790937 4722164 
2180.760 4669779 4641010 4634948 4646335 4666329 4687697 4706254 4721427 
2184.618 4733687 4743032 4748761 4748828 4742262 4730806 4717876 4707995 
2188.475 4703306 4703976 4705818 4705249 4698985 4687061 4672626 4660535 
2192.333 4653669 4652865 4656349 4661171 4666262 4673831 4686291 4708397 
2196.190 4739482 4775125 4807621 4827958 4831074 4817337 4793484 4768458 
2200.047 4750469 4743468 4745512 4751072 4753819 4749699 4738712 4723973 
2203.905 4709235 4696775 4686961 4677650 4666765 4654071 4640173 4627246 
2207.762 4616161 4606282 4595231 4581804 4565128 4548989 4538609 4539313 
2211.620 4554313 4582004 4617367 4653636 4685655 4711110 4731208 4749096 
2215.477 4766884 4784002 4798341 4806549 4806616 4800653 4793450 4789731 
2219.334 4794019 4806080 4822430 4837440 4845850 4845950 4839082 4828394 
2223.192 4817404 4807420 4797905 4787017 4773349 4757135 4740386 4725514 
2227.049 4713823 4703775 4692454 4676142 4653468 4625370 4596336 4570720 
2230.907 4551534 4538777 4529469 4519056 4504828 4486649 4468370 4454511 
2234.764 4450192 4457557 4476270 4503287 4535194 4569649 4605144 4640675 
2238.622 4674970 4705182 4727423 4738845 4738209 4726786 4708966 4689841 
2242.479 4673597 4663047 4659062 4661372 4670047 4686157 4710608 4743435 
2246.336 4782394 4823200 4859922 4887533 4903517 4908778 4907706 4904522 
2250.194 4903182 4904992 4909046 4913604 4918162 4923624 4932739 4948055 
2254.051 4970208 4997088 5024238 5045858 5057759 5058295 5048205 5030171 
2257.909 5006640 4979491 4949764 4917927 4885824 4856036 4832481 4818476 
2261.766 4815160 4821693 4835563 4853087 4873091 4895407 4921144 4951808 
2265.624 4986932 5023735 5057759 5084275 5100636 5106905 5105732 5100736 
2269.481 5095137 5090276 5085751 5080186 5072978 5064765 5057558 5054340 
2273.338 5056049 5062787 5072240 5081996 5090276 5097853 5106637 5119981 
2277.196 5140164 5167524 5199983 5233518 5263768 5287245 5302238 5309483 
2281.053 5311227 5310992 5312401 5319579 5334740 5359764 5393479 5433671 
2284.911 5475646 5513665 5543431 5561688 5568031 5564910 5555815 5544472 
2288.768 5533867 5525309 5519001 5515108 5513967 5516517 5523967 5537021 
2292.625 5555278 5577395 5601359 5625459 5648721 5671245 5693603 5715761 
2296.483 5737148 5756285 5771697 5782644 5789729 5795134 5801414 5810246 
2300.340 5821864 5835062 5847118 5855682 5859846 5859880 5857764 5855413 
2304.198 5854036 5854205 5855011 5855917 5856555 5858201 5862768 5872071 
2308.055 5887689 5909520 5936526 5967363 6000251 6034183 6068689 6102963 
2311.913 6136365 6167687 6195616 6219615 6239715 6257060 6272792 6288054 
2315.770 6303484 6318209 6331422 6342080 6350049 6355899 6360774 6365985 
2319.627 6372744 6381991 6394095 6409496 6428429 6449514 6470298 6486609 
2323.485 6493403 6485466 6460309 6418576 6364405 6304560 6246707 6197095 
2327.342 6159520 6134316 6119261 6111498 6108474 6109347 6114388 6124201 
2331.200 6138920 6157403 6177971 6198910 6219715 6241127 6264758 6292021 
2335.057 6323353 6357345 6392044 6425167 6455702 6484524 6513583 6544898 
2338.915 6579681 6617460 6656285 6693600 6726981 6755518 6778773 6797183 
2342.772 6810478 6818084 6819161 6813978 6804621 6795601 6792808 6802568 
2346.629 6829831 6876519 6942268 7024122 7117781 7218163 7320388 7420144 
2350.487 7513214 7596929 7669599 7731521 7784480 7831743 7876446 7921087 
2354.344 7966644 8012205 8057400 8100912 8143145 8185450 8229717 8277434 
2358.202 8329142 8383658 8439839 8495924 8551409 8606697 8663413 8722535 
2362.059 8784981 8850072 8916931 8983734 9048821 9110974 9168771 9221193 
2365.917 9266514 9304156 9333844 9356257 9373016 9385746 9395700 9402879 
2369.774 9406535 9405620 9399763 9390452 9380295 9372880 9371729 9379279 
2373.631 9396174 9421975 9455804 9497254 9546804 9605200 9673769 9752886 
2377.489 9841983 9939710 10044544 10155883 10273493 10397616 10528835 
2380.864 10666479 10808888 10953416 11097007 11236940 11371440 11499280 
2384.239 11619942 11732571 11835898 11928149 12007712 12073527 12125381 
2387.615 12164191 12191452 12208424 12215989 12214933 12205322 12187806 
2390.990 12163306 12132877 12097886 12059286 12017454 11972765 11925731 
2394.365 11877305 11829327 11784079 11743532 11709287 11682533 11663608 
2397.740 11652989 11651560 11660681 11681784 11715823 11763005 11822245 
2401.115 11892322 11971471 12058877 12154514 12258556 12371555 12492835 
2404.491 12621278 12755424 12894151 13037360 13186321 13343293 13510680 
2407.866 13689860 13881566 14084822 14298412 14521015 14751204 14987895 
2411.241 15229417 15472893 15714925 15950663 16176006 16387463 16582359 
2414.616 16759230 16916950 17054392 17169990 17262794 17332512 17379930 
2417.992 17407312 17418246 17416004 17403244 17381896 17352652 17315650 
2421.367 17271550 17221800 17168612 17114670 17062766 17015556 16975276 
2424.742 16943856 16923356 16916018 16923666 16948092 16990196 17050566 
2428.117 17129386 17227112 17344306 17481470 17638900 17815820 18010256 
2431.493 18219254 18440108 18670796 18910602 19160722 19423008 19699426 
2434.868 19990800 20297298 20617458 20949782 21292696 21645424 22008058 
2438.243 22380902 22764542 23159878 23568274 23991376 24430872 24888290 
2441.618 25363646 25855980 26362568 26880288 27406038 27938324 28477600 
2444.994 29025196 29582880 30151904 30731168 31318932 31911846 32506820 
2448.369 33101320 33693668 34282444 34866064 35442276 36008556 36562128 
2451.744 37101184 37624644 38132136 38623740 39098644 39554900 39989116 
2455.119 40397076 40773608 41113708 41411908 41662932 41860828 42000264 
2458.495 42076076 42084656 42024172 41894980 41699692 41441724 41125804 
2461.870 40756212 40337080 39872916 39367776 38826740 38255872 37662260 
2465.245 37053944 36440136 35830072 35233624 34660636 34120124 33620664 
2468.620 33168982 32770112 32426946 32140278 31909778 31733368 31608376 
2471.996 31531874 31499666 31507182 31549082 31619172 31711302 31819604 
2475.371 31938344 32062538 32188158 32311070 32427802 32535710 32632858 
2478.746 32717876 32789872 32847870 32890576 32916098 32922246 32906876 
2482.121 32869492 32810886 32732848 32639000 32532922 32417272 32294546 
2485.497 32166396 32033786 31898368 31761814 31626300 31493504 31364058 
2488.872 31237390 31111508 30983992 30851994 30713172 30566184 30410218 
2492.247 30244752 30069194 29882880 29684726 29474534 29251862 29016800 
2495.622 28769968 28511812 28242602 27962390 27671376 27369618 27058090 
2498.998 26738608 26413342 26084974 25756364 25429654 25106804 24788966 
2502.373 24476582 24169434 23867228 23568940 23274142 22983072 22696458 
2505.748 22416312 22145518 21886774 21642428 21413814 21200490 21001212 
2509.123 20813396 20634588 20462488 20295458 20132482 19973104 19817256 
2512.499 19665414 19517994 19375956 19240028 19111068 18989448 18875198 
2515.874 18768072 18668928 18578138 18497258 18428320 18372458 18330394 
2519.249 18301568 18284256 18276308 18276272 18283150 18296904 18317918 
2522.624 18346362 18381584 18422202 18466452 18512748 18560434 18609508 
2526.000 18660176 18712406 18765096 18815990 18862186 18900946 18930052 
2529.375 18948810 18957464 18956286 18945974 18926798 18898764 18862568 
2532.750 18819452 18771082 18719916 18667578 18615212 18562888 18510918 
2536.125 18459746 18411140 18367722 18332708 18307996 18294796 18291408 
2539.500 18295038 18302434 18310728 18318470 18325590 18332606 18340348 
2542.876 18348920 18358010 18366790 18374878 18382344 18389534 18396620 
2546.251 18403500 18409134 18412246 18412072 18408166 18401598 18394408 
2549.626 18387978 18383936 18382688 18383312 18384696 18386182 18387010 
2553.001 18387874 18388946 18391090 18394166 18398038 18402324 18406854 
2556.377 18411934 18417604 18423170 18427250 18427318 18419746 18401702 
2559.752 18371248 18327802 18272298 18206850 18133710 18055260 17973268 
2563.127 17889462 17805880 17724314 17646906 17574824 17508378 17446942 
2566.502 17389206 17334030 17281102 17231524 17187054 17149962 17121836 
2569.878 17103536 17094368 17093334 17099332 17111496 17129524 17153134 
2573.253 17181676 17214288 17249382 17285584 17322098 17359202 17397310 
2576.628 17437802 17481506 17528524 17578274 17630274 17683452 17737844 
2580.003 17794004 17852692 17914806 17981040 18051564 18125936 18204328 
2583.379 18286054 18370834 18458190 18547258 18637070 18727144 18817204 
2586.754 18907658 18999380 19093132 19189428 19287722 19386940 19485278 
2590.129 19582008 19676440 19769088 19860644 19951630 20041978 20130712 
2593.504 20216410 20297612 20374000 20446132 20515390 20583896 20653178 
2596.880 20724452 20798066 20874230 20952808 21034252 21119398 21208768 
2600.255 21303310 21402918 21507738 21617214 21731246 21849838 21973270 
2603.630 22102040 22236216 22375634 22520016 22668600 22821006 22977274 
2607.005 23137196 23300956 23468588 23639748 23814338 23992006 24172236 
2610.381 24354048 24536214 24716566 24892464 25061274 25220212 25367684 
2613.756 25502700 25625700 25737274 25838398 25930082 26012992 26087578 
2617.131 26154190 26213560 26266182 26312928 26353696 26389046 26419152 
2620.506 26444258 26465282 26483384 26499760 26515468 26530718 26545652 
2623.882 26559776 26573056 26585772 26599406 26615714 26636606 26663276 
2627.257 26696396 26735296 26779064 26826994 26878492 26933306 26992150 
2630.632 27054844 27120934 27189468 27259036 27328120 27395874 27461944 
2634.007 27526720 27591080 27656156 27722408 27790648 27861124 27933908 
2637.383 28009038 28085982 28164248 28242954 28321250 28398320 28474274 
2640.758 28549460 28624768 28701502 28780802 28863302 28949216 29038834 
2644.133 29131622 29227796 29326936 29428970 29533510 29639992 29747990 
2647.508 29857076 29967296 30079456 30194276 30312716 30435486 30562700 
2650.884 30693756 30827946 30964350 31102290 31241556 31382646 31526350 
2654.259 31673628 31826056 31984814 32150802 32324668 32506532 32695514 
2657.634 32890328 33089236 33290594 33493266 33696888 33901792 34108544 
2661.009 34317548 34529308 34743148 34958240 35173440 35388136 35601784 
2664.385 35814384 36025980 36237060 36447776 36658236 36868472 37079060 
2667.760 37290508 37503760 37719432 37938244 38160096 38384816 38612404 
2671.135 38842068 39074280 39308900 39546484 39786880 40029884 40274836 
2674.510 40520984 40767128 41012064 41255132 41494980 41730952 41962636 
2677.885 42190028 42413840 42635840 42858024 43083172 43314116 43553236 
2681.261 43802352 44063084 44336600 44623468 44924492 45239952 45570288 
2684.636 45915276 46274652 46647868 47034440 47433952 47846344 48271344 
2688.011 48708508 49157540 49617480 50087124 50565432 51051760 51545716 
2691.386 52047408 52557276 53075936 53604140 54142184 54690780 55250116 
2694.762 55820236 56401212 56992712 57594408 58206024 58826740 59455792 
2698.137 60092380 60735384 61383428 62035648 62690692 63347980 64007192 
2701.512 64668216 65331132 65995300 66659620 67322144 67980216 68630400 
2704.887 69269192 69892744 70497080 71078056 71631800 72153928 72641080 
2708.263 73090632 73500736 73870856 74201064 74492160 74744792 74960080 
2711.638 75139048 75282736 75392296 75468928 75512920 75524320 75501960 
2715.013 75444448 75350048 75217520 75046288 74836704 74589752 74307048 
2718.388 73990896 73644080 73269928 72872856 72458016 72031024 71598472 
2721.764 71166464 70741040 70328352 69933768 69562640 69219920 68909392 
2725.139 68634160 68395528 68194048 68028928 67899280 67803984 67742832 
2728.514 67715416 67721640 67761032 67832296 67933568 68062288 68215832 
2731.889 68391920 68588840 68805024 69039496 69290648 69556800 69835304 
2735.265 70123792 70419336 70719600 71022056 71324728 71625736 71923088 
2738.640 72215200 72500688 72778464 73047744 73308208 73559648 73802400 
2742.015 74037264 74266200 74491448 74716144 74943792 75177104 75418512 
2745.390 75669280 75929744 76199056 76476592 76760632 77049368 77340120 
2748.766 77629480 77913008 78186448 78445560 78687240 78909992 79113840 
2752.141 79300288 79471344 79629328 79776656 79915520 80047488 80174120 
2755.516 80296288 80414056 80526112 80630552 80723832 80802720 80864112 
2758.891 80904904 80922784 80915880 80881504 80817848 80722312 80592848 
2762.267 80428296 80228720 79995064 79729400 79434104 79111976 78766128 
2765.642 78400392 78019104 77627616 77231848 76837896 76451024 76076064 
2769.017 75716616 75375000 75053224 74752744 74474888 74220992 73992040 
2772.392 73788496 73610392 73456784 73325936 73215688 73122944 73044016 
2775.768 72975024 72911648 72849344 72783320 72709080 72621456 72515416 
2779.143 72385472 72226312 72033056 71802752 71534472 71229896 70893776 
2782.518 70532856 70154480 69766784 69376704 68989280 68608360 68235912 
2785.893 67872624 67518232 67171248 66829400 66490144 66150456 65807880 
2789.269 65460176 65106316 64746440 64381488 64013644 63645160 63279136 
2792.644 62918396 62566028 62224960 61897576 61586048 61291992 61016172 
2796.019 60759048 60520816 60301440 60100712 59918440 59754160 59607004 
2799.394 59476124 59359940 59256932 59165604 59084396 59011856 58946156 
2802.770 58885820 58829396 58774956 58721772 58668788 58615880 58563364 
2806.145 58511840 58461796 58413352 58366540 58320420 58274228 58226068 
2809.520 58174204 58116584 58050988 57975364 57887900 57787776 57674584 
2812.895 57548520 57410616 57262172 57104372 56938956 56767376 56592008 
2816.271 56416000 56243116 56078524 55928044 55797668 55693688 55621524 
2819.646 55586084 55591056 55638736 55730192 55865224 56042632 56260164 
2823.021 56514604 56802420 57118616 57457736 57813212 58177384 58542244 
2826.396 58899708 59241588 59560636 59851124 60108168 60328584 60510188 
2829.771 60652204 60754932 60819760 60849912 60849148 60822352 60774672 
2833.147 60711376 60637264 60557036 60474960 60395064 60321544 60257816 
2836.522 60207496 60173588 60158476 60164908 60196460 60257172 60353636 
2839.897 60493316 60684932 60938620 61263912 61671320 62171740 62776668 
2843.272 63500284 64359084 65370916 66555336 67929416 69503952 71278304 
2846.648 73234864 75335584 77514800 79684984 81741568 83563080 85035744 
2850.023 86061144 86565976 86517368 85921720 84824776 83298080 81435864 
2853.398 79342848 77117032 74853312 72633408 70518400 68555696 66773796 
2856.773 65184384 63785828 62565380 61503848 60576504 59759060 59028556 
2860.149 58363968 57748376 57168316 56612844 56073884 55545756 55024136 
2863.524 54507012 53993920 53486484 52988184 52505184 52045392 51617692 
2866.899 51231384 50895152 50615280 50395680 50237152 50137960 50093336 
2870.274 50096200 50138220 50208848 50296932 50391440 50481720 50559588 
2873.650 50619896 50661000 50684832 50695888 50699988 50702924 50709596 
2877.025 50723744 50747688 50783104 50831376 50893028 50968696 51058016 
2880.400 51159844 51272768 51395160 51525420 51663032 51808080 51960944 
2883.775 52122268 52292176 52470444 52656348 52849216 53048008 53252356 
2887.151 53462280 53677284 53897648 54123568 54355052 54592516 54836540 
2890.526 55088004 55348264 55618436 55900268 56196088 56508792 56841960 
2893.901 57199612 57585968 58004976 58458992 58948664 59472324 60025376 
2897.276 60599972 61184788 61766192 62327912 62853864 63329892 63746148 
2900.652 64098896 64390936 64632036 64836608 65020292 65200172 65391524 
2904.027 65607280 65859236 66157980 66513008 66933872 67429216 68006216 
2907.402 68672000 69432456 70293800 71263312 72348880 73559136 74901616 
2910.777 76380664 77995592 79737928 81591648 83529824 85515216 87504016 
2914.153 89441984 91271008 92936384 94386328 95581960 96501872 97141808 
2917.528 97514432 97644632 97564944 97306312 96893776 96343424 95659848 
2920.903 94838536 93869280 92741528 91449288 89995848 88395208 86673816 
2924.278 84868368 83018640 81167728 79355264 77612128 75962584 74421592 
2927.654 72995216 71683688 70482232 69382880 68376096 67452584 66604076 
2931.029 65824032 65108508 64455928 63866960 63343420 62887332 62500596 
2934.404 62183288 61934180 61749348 61623352 61547676 61511640 61503240 
2937.779 61508928 61515188 61510912 61487628 61440980 61371136 61282108 
2941.155 61180132 61073032 60968168 60871216 60785420 60710612 60643248 
2944.530 60576276 60499712 60402336 60273840 60106648 59898700 59654552 
2947.905 59385772 59108124 58840932 58603068 58408764 58267748 58183408 
2951.280 58152724 58168028 58218492 58291960 58375148 58456260 58524576 
2954.656 58570836 58588352 58572388 58519952 58430368 58304540 58144956 
2958.031 57954876 57739180 57503428 57253400 56995172 56734072 56474636 
2961.406 56220604 55974780 55739384 55516388 55307540 55114332 54938468 
2964.781 54780720 54641780 54521776 54420508 54337664 54272372 54223192 
2968.156 54188056 54164028 54147856 54135956 54125484 54114448 54102404 
2971.532 54089904 54077972 54068216 54062020 54060408 54064688 54076132 
2974.907 54095308 54122332 54155548 54190080 54218008 54228408 54208552 
2978.282 54145076 54027348 53848436 53606316 53304464 52951312 52558992 
2981.657 52140876 51711440 51284140 50869520 50476064 50108844 49769572 
2985.033 49457380 49168932 48900256 48647352 48406968 48177592 47958300 
2988.408 47748024 47543624 47338056 47120552 46875768 46586340 46236468 
2991.783 45815036 45318904 44754172 44136548 43488592 42833812 42194808 
2995.158 41587920 41020656 40493016 39998528 39527720 39070508 38619248 
2998.534 38169792 37720840 37273540 36829624 36391168 35959456 35535360 
3001.909 35119548 34712892 34316548 33931420 33558372 33197452 32848048 
3005.284 32509178 32180276 31860892 31551506 31252984 30966484 30692868 
3008.659 30432322 30184366 29947698 29720348 29500422 29286102 29075782 
3012.035 28868506 28663666 28461288 28261484 28065092 27872888 27685608 
3015.410 27504056 27328930 27160650 26999378 26844900 26696888 26554564 
3018.785 26417250 26283712 26153310 26025376 25899448 25775456 25653538 
3022.160 25533448 25415074 25297928 25181938 25067592 24956296 24850010 
3025.536 24752132 24665640 24593262 24536566 24495444 24468100 24451064 
3028.911 24439462 24427578 24408616 24376654 24325522 24250538 24149502 
3032.286 24022228 23870762 23699650 23514476 23321094 23124512 22929312 
3035.661 22738354 22553518 22376158 22206854 22046122 21894056 21750058 
3039.037 21613312 21482566 21356800 21234934 21117172 21003786 20895402 
3042.412 20792922 20696476 20605714 20519630 20436856 20355978 20275912 
3045.787 20196242 20117036 20038958 19963044 19890162 19820968 19755978 
3049.162 19694676 19636362 19579930 19524022 19467744 19410084 19350526 
3052.538 19289108 19225550 19159960 19092092 19022124 18950264 18877516 
3055.913 18805024 18734028 18665986 18602000 18542488 18487578 18437240 
3059.288 18391020 18348988 18311006 18276894 18246656 18220120 18197142 
3062.663 18178034 18163522 18154542 18152020 18156408 18166840 18182008 
3066.039 18199560 18216906 18232040 18244030 18252462 18257508 18259546 
3069.414 18258130 18252358 18241060 18222916 18197486 18165356 18128112 
3072.789 18087798 18046730 18006940 17970022 17937044 17908798 17885838 
3076.164 17868228 17855454 17845994 17838088 17829078 17816064 17797526 
3079.540 17772500 17741572 17706402 17669302 17632516 17597768 17565716 
3082.915 17536114 17507722 17479090 17448840 17416486 17382344 17347720 
3086.290 17314856 17286170 17263654 17248278 17240038 17237694 17239316 
3089.665 17242970 17247210 17251346 17255348 17259554 17264208 17269448 
3093.041 17274792 17280170 17285376 17290996 17298272 17308512 17323272 
3096.416 17343478 17369308 17400208 17434906 17472192 17510448 17547982 
3099.791 17583932 17617160 17647422 17674686 17699534 17723072 17746232 
3103.166 17770084 17795282 17821864 17850068 17879518 17910732 17944020 
3106.542 17980106 18018890 18059854 18101512 18142036 18179106 18211378 
3109.917 18238708 18262034 18283150 18304852 18329910 18360084 18396656 
3113.292 18439798 18488754 18542002 18597540 18652876 18705732 18754406 
3116.667 18797826 18836198 18870422 18901846 18931436 18959646 18985916 
3120.042 19009212 19028458 19043138 19053904 19062352 19070730 19081152 
3123.418 19095208 19113178 19134336 19157950 19183022 19209134 19236392 
3126.793 19265520 19296972 19330954 19366948 19403710 19439986 19474638 
3130.168 19506764 19536326 19563882 19590710 19618476 19648808 19683374 
3133.543 19722864 19767872 19817324 19869940 19923810 19976888 20027578 
3136.919 20074562 20117558 20156638 20192598 20226790 20260776 20296222 
3140.294 20335006 20378480 20427272 20481210 20538734 20597898 20656306 
3143.669 20712392 20765532 20816314 20866582 20918210 20973080 21031538 
3147.044 21093414 21157070 21220668 21282674 21342426 21400204 21457188 
3150.420 21514876 21574798 21637970 21704844 21774616 21846422 21918380 
3153.795 21988816 22056266 22119646 22178746 22234126 22287486 22340470 
3157.170 22395204 22453646 22516700 22584826 22657814 22734828 22814686 
3160.545 22896338 22978426 23060146 23141252 23221534 23301724 23382526 
3163.921 23464880 23549174 23635480 23723412 23811678 23899470 23985774 
3167.296 24070414 24153424 24234980 24315080 24393300 24468732 24540176 
3170.671 24606798 24668412 24725440 24779074 24830924 24882184 24933382 
3174.046 24984196 25033650 25080512 25123866 25162872 25197984 25230080 
3177.422 25260984 25292028 25325218 25361292 25400916 25443778 25489348 
3180.797 25536432 25584508 25632378 25680042 25727606 25775280 25823558 
3184.172 25872824 25922802 25973278 26024002 26074702 26125616 26177416 
3187.547 26230984 26287196 26346798 26410488 26477854 26548576 26621458 
3190.923 26695232 26768810 26841092 26911628 26980304 27047864 27115256 
3194.298 27183400 27252860 27324026 27396616 27469992 27543454 27616820 
3197.673 27689846 27762742 27835794 27908856 27981826 28054208 28125752 
3201.048 28196564 28267142 28338474 28411302 28485984 28562554 28640022 
3204.424 28717396 28793796 28868684 28942096 29014354 29085810 29156744 
3207.799 29226948 29296062 29364160 29431630 29499146 29567558 29637508 
3211.174 29708924 29780704 29851894 29920968 29987424 30051370 30114222 
3214.549 30177582 30243508 30312964 30386514 30463634 30543290 30624064 
3217.925 30704568 30783806 30860852 30935456 31007548 31077446 31145894 
3221.300 31213750 31281862 31350806 31421010 31492364 31564866 31638238 
3224.675 31712730 31787980 31864208 31940770 32016844 32091328 32163076 
3228.050 32231518 32296508 32358616 32419126 32479324 32540352 32603066 
3231.426 32667826 32734350 32802236 32870922 32939118 33006038 33070714 
3234.801 33132754 33192086 33249922 33307410 33365872 33426270 33488364 
3238.176 33550606 33611712 33670180 33725572 33778860 33832116 33888000 
3241.551 33948008 34012684 34080412 34148944 34215292 34277460 34334904 
3244.927 34388272 34439416 34490100 34541832 34594936 34649404 34704924 
3248.302 34761200 34819108 34879744 34943948 35012724 35085852 35162376 
3251.677 35240668 35319156 35395828 35469992 35541296 35610020 35676848 
3255.052 35743184 35809528 35876640 35944624 36013020 36081024 36147600 
3258.427 36212244 36274484 36334680 36393220 36450732 36508032 36565408 
3261.803 36623520 36682860 36744156 36808344 36876116 36947864 37023200 
3265.178 37101184 37180260 37258704 37336184 37412128 37487400 37562864 
3268.553 37639208 37716900 37795260 37873488 37950828 38026516 38101280 
3271.928 38175436 38250444 38327340 38406824 38489144 38574124 38661260 
3275.304 38750584 38841812 38935124 39030452 39128156 39228564 39332008 
3278.679 39438704 39548516 39661400 39776712 39893760 40012080 40131516 
3282.054 40252444 40375476 40501852 40632160 40766544 40904648 41045640 
3285.429 41188276 41331764 41475808 41620556 41766336 41913556 42062572 
3288.805 42213616 42367156 42523856 42684896 42851040 43023536 43202508 
3292.180 43387704 43578332 43773728 43973576 44177628 44386472 44600816 
3295.555 44820292 45044736 45272972 45503756 45735956 45969084 46203152 
3298.930 46438784 46676900 46918256 47163616 47413516 47668736 47929472 
3302.306 48196364 48469680 48749840 49037116 49331564 49633676 49943988 
3305.681 50262708 50589628 50924360 51265424 51611200 51960460 52312508 
3309.056 52667344 53026068 53389880 53759664 54135656 54517680 54905308 
3312.431 55298284 55697308 56103256 56517016 56939332 57369396 57806172 
3315.807 58247932 58693628 59142860 59596664 60056152 60522416 60995852 
3319.182 61475296 61959136 62445424 62932640 63420372 63908876 64398624 
3322.557 64890152 65383480 65878288 66374160 66870904 67368224 67866120 
3325.932 68363872 68860272 69353232 69840560 70320056 70790456 71250784 
3329.308 71700344 72138400 72563896 72975144 73371208 73751504 74116128 
3332.683 74465920 74801272 75121400 75424304 75706904 75965816 76199016 
3336.058 76406264 76588944 76749600 76890696 77013048 77115768 77196696 
3339.433 77252664 77281016 77280296 77250176 77190840 77103184 76987216 
3342.809 76842800 76669152 76465760 76231712 75966448 75669280 75339528 
3346.184 74976824 74581568 74154608 73698024 73214464 72706296 72175872 
3349.559 71624488 71053160 70463056 69855544 69232896 68597376 67951424 
3352.934 67296456 66633164 65962240 65283916 64599848 63912868 63226736 
3356.310 62545864 61873504 61211988 60561876 59923272 59295556 58678988 
3359.685 58074240 57482548 56905072 56342208 55793444 55257528 54732800 
3363.060 54218160 53712792 53217336 52732248 52258464 51796656 51347388 
3366.435 50910500 50486596 50076084 49679072 49295524 48924660 48565380 
3369.811 48215692 47874196 47539296 47210044 46886288 46567856 46254640 
3373.186 45946652 45643416 45344764 45050360 44759940 44472800 44188412 
3376.561 43905572 43622620 43338460 43052364 42764412 42475624 42187320 
3379.936 41900488 41615924 41333220 41050956 40767452 40480612 40188836 
3383.312 39890892 39586516 39275932 38960424 38641920 38322888 38006228 
3386.687 37694784 37390316 37093928 36805248 36522448 36243288 35964856 
3390.062 35685156 35402584 35116600 34827580 34536452 34245232 33955712 
3393.437 33670144 33390630 33118594 32854624 32598138 32347694 32101280 
3396.813 31856828 31612866 31368722 31125356 30883620 30644758 30409864 
3400.188 30178826 29951072 29725706 29502088 29279828 29058778 28839258 
3403.563 28621334 28405078 28190060 27975818 27762002 27548926 27336906 
3406.938 27126754 26919664 26716058 26516454 26320674 26128080 25938068 
3410.313 25749650 25562016 25374640 25187450 25000588 24815242 24632640 
3413.689 24454288 24281404 24114860 23954856 23800510 23650908 23504228 
3417.064 23359100 23214194 23068776 22922500 22775994 22629712 22484910 
3420.439 22342774 22204344 22069826 21939290 21812104 21686974 21563240 
3423.814 21440060 21316952 21194678 21073310 20953052 20834426 20717258 
3427.190 20601512 20487914 20377126 20270252 20167952 20070118 19975396 
3430.565 19882010 19787084 19688400 19585024 19477376 19366706 19255614 
3433.940 19146662 19041510 18941300 18846372 18756724 18672040 18592250 
3437.315 18516830 18444878 18375154 18306028 18235668 18162488 18085968 
3440.691 18005972 17923438 17839332 17754654 17670200 17586418 17502824 
3444.066 17419178 17334410 17247796 17158580 17065832 16970108 16872268 
3447.441 16774589 16679376 16589278 16505636 16428513 16356634 16287690 
3450.816 16219102 16148735 16075801 16000060 15921859 15841300 15758008 
3454.192 15671089 15579827 15483571 15383389 15281272 15179696 15081195 
3457.567 14987689 14899486 14815688 14734854 14654892 14574260 14491792 
3460.942 14407387 14321013 14233389 14145201 14057921 13972608 13890050 
3464.317 13810790 13734863 13661000 13587628 13513449 13437538 13359865 
3467.693 13281386 13203228 13126553 13051769 12978192 12904356 12829406 
3471.068 12752046 12671936 12590102 12507294 12424366 12342270 12260806 
3474.443 12179900 12099488 12019634 11941056 11864365 11790445 11719329 
3477.818 11651049 11584618 11518605 11451548 11382121 11309302 11232825 
3481.194 11153437 11072806 10993346 10917637 10847411 10783718 10725910 
3484.569 10672422 10620672 10568352 10513865 10456705 10397413 10337009 
3487.944 10276275 10215753 10154899 10093173 10030438 9967035 9904623 
3491.319 9845204 9790469 9741501 9698096 9658692 9620410 9581319 9539285 
3495.177 9494104 9446796 9399526 9354665 9314413 9280054 9251317 9227489 
3499.034 9206099 9184440 9160175 9131344 9097101 9057786 9015295 8971692 
3502.892 8929987 8892885 8862347 8839555 8825049 8817947 8816899 8819503 
3506.749 8823527 8826063 8824879 8818557 8807432 8793433 8779097 8767534 
3510.606 8761482 8761854 8768312 8779503 8792791 8806586 8819638 8831575 
3514.464 8842531 8852811 8862043 8869956 8876077 8880339 8882705 8884193 
3518.321 8885411 8886324 8886832 8885209 8879662 8868603 8850816 8825928 
3522.179 8794820 8758338 8717329 8672911 8625422 8574861 8521739 8466225 
3526.036 8408758 8349812 8289389 8227185 8163031 8096085 8025774 7952031 
3529.894 7875502 7796995 7718131 7640799 7566381 7496223 7430391 7367803 
3533.751 7306640 7243936 7177569 7105521 7028062 6946308 6863256 6781668 
3537.608 6703628 6629941 6559834 6491755 6423552 6353814 6282003 6208354 
3541.466 6134047 6059886 5986578 5914156 5842618 5771496 5700922 5631165 
3545.323 5562762 5496484 5433336 5373921 5318908 5268396 5221344 5176510 
3549.181 5131011 5081527 5025210 4960522 4887533 4808895 4729198 4653603 
3553.038 4586893 4531846 4488623 4455481 4429371 4407078 4385991 4364136 
3556.896 4340139 4312731 4280907 4243665 4200706 4152598 4101352 4049644 
3560.753 4000684 3956311 3917291 3883156 3851364 3818972 3783107 3740928 
3564.610 3690532 3630887 3561696 3484232 3401072 3316325 3235066 3162133 
3568.468 3100859 3051806 3013868 2983841 2957485 2931431 2902944 2870090 
3572.325 2833135 2792716 2750266 2707354 2665846 2626576 2590809 2558911 
3576.183 2530848 2505920 2482859 2460099 2436041 2409785 2381099 2350749 
3580.040 2319768 2288890 2258846 2229537 2200097 2170059 2138791 2106427 
3583.897 2073034 2038877 2003491 1965812 1924308 1877184 1823910 1765785 
3587.755 1705739 1648727 1599006 1559932 1532698 1516007 1507195 1502674 
3591.612 1499016 1494062 1486714 1477039 1465669 1453435 1440602 1426474 
3595.470 1410085 1390506 1368037 1343607 1319743 1299305 1284383 1276407 
3599.327 1274746 1277139 1280428 1281159 1276706 1265607 1248228 1225832 
3603.185 1200281 1174166 1149216 1126293 1106029 1087394 1068727 1047868 
3607.042 1022493 991440 955077 915397 875687 839433 808460 782269 759068 
3611.382 734938 707092 674337 637900 601666 570810 549676 540255 541449 
3615.721 549743 559497 565369 562649 549113 524928 493082 458386 425815 
3620.061 399747 382966 375438 375836 381606 390063 399216 407806 415998 
3624.400 424720 434140 444256 452482 454505 444389 416130 366285 297081 
3628.740 217480 140676 80125 43076 29026 31644 42082 52222 55768 50598 37409 
3634.044 19980 2617 -10205 -16401 -15440 -9476 -728 7952 14744 18489 19085 
3639.348 17230 13651 9410 5367 2087 497 994 4108 10039 18853 29755 42049 
3645.134 54011 63489 68095 64914 51526 25613 -13717 -65898 -128176 -194983 
3649.956 -259362 -313268 -349357 -363957 -356243 -329161 -288435 -241281 
3653.813 -194883 -155536 -128474 -115059 -113734 -119100 -124234 -123042 
3657.671 -111614 -89552 -59835 -27268 3346 27402 42115 46820 43142 33764 
3662.492 22200 11696 4937 3810 10304 26474 54674 96596 152675 221756 300629 
3667.796 385718 475899 574991 693817 850953 1068162 1361921 1741067 2204726 
3672.136 2746065 3354790 4017839 4715398 5407703 6029983 6498448 6725298 
3675.993 6658170 6300526 5705857 4949764 4108309 3250489 2431110 1696392 
3679.851 1082412 606146 266181 42479 -94156 -174945 -224524 -257110 -278038 
3684.190 -288071 -286812 -276945 -264428 -257077 -262706 -287144 -331147 
3688.048 -390905 -459491 -529060 -593157 -647387 -689733 -719141 -735515 
3691.905 -739286 -732472 -718314 -700947 -684804 -673225 -667965 -668395 
3695.763 -673126 -679974 -686425 -691486 -695059 -697540 -700848 -706637 
3699.620 -716032 -729793 -747522 -767104 -785758 -800277 -807553 -806792 
3703.478 -797995 -783112 -764160 -743322 -721821 -700385 -679345 -658701 
3707.335 -639645 -624061 -614036 -611654 -618536 -635410 -662010 -697209 
3711.192 -739286 -785460 -831497 -872503 -903320 -919985 -920349 -905371 
3715.050 -878091 -843105 -806329 -772164 -743950 -722979 -708490 -699029 
3718.907 -692776 -688741 -686160 -684208 -682422 -679544 -674681 -667436 
3722.765 -658701 -650993 -647387 -650497 -661447 -679246 -701047 -722813 
3726.622 -740113 -749309 -748846 -738459 -719902 -695919 -669917 -646162 
3730.479 -627999 -619098 -620918 -632598 -651588 -674747 -699757 -726286 
3734.337 -756387 -791744 -832787 -876239 -915819 -943923 -955891 -950204 
3738.194 -929673 -898295 -860267 -818004 -771999 -722019 -669057 -617113 
3742.052 -573966 -550702 -558016 -601066 -673490 -756354 -822899 -852893 
3745.909 -841616 -797995 -738426 -679908 -636601 -616484 -620885 -644442 
3749.767 -677989 -712195 -740642 -760588 -772528 -777225 -774082 -762903 
3753.624 -743685 -718347 -690593 -664491 -643350 -629653 -623499 -624227 
3757.481 -630645 -642027 -657974 -677625 -698665 -716958 -726849 -723673 
3761.339 -706075 -676169 -640505 -606757 -582668 -572675 -577506 -593058 
3765.196 -613540 -631870 -643516 -647354 -645005 -640009 -635344 -633590 
3769.054 -635807 -641663 -650066 -659694 -668428 -674581 -676897 -674780 
3772.911 -668726 -660521 -652250 -645799 -642391 -641134 -640670 -639182 
3776.769 -635972 -632333 -630546 -633491 -642854 -657312 -672861 -684705 
3780.626 -688840 -684672 -674747 -663929 -657742 -659264 -668858 -683017 
3784.483 -696349 -703164 -699393 -684506 -660422 -631009 -600503 -573006 
3788.341 -551728 -538922 -535447 -541139 -554740 -572907 -591338 -606095 
3792.198 -614201 -615128 -611422 -607584 -608676 -618602 -637660 -663168 
3796.056 -688476 -706273 -711037 -701411 -680437 -654533 -632101 -621745 
3799.913 -628793 -654665 -694364 -737533 -770213 -780499 -763234 -720961 
3803.771 -661911 -597922 -541403 -503047 -489345 -500962 -532038 -570524 
3807.628 -603018 -620455 -618801 -600569 -570987 -535546 -498778 -462503 
3811.485 -427285 -393288 -361639 -334789 -316977 -312904 -325717 -355978 
3815.343 -398684 -443934 -479648 -496362 -489842 -463066 -423842 -383787 
3819.200 -354455 -345649 -362831 -404941 -461874 -518403 -560365 -579458 
3823.058 -575488 -554905 -527273 -501757 -484248 -476702 -476768 -479880 
3826.915 -480806 -476570 -467336 -456181 -447013 -442842 -444067 -448734 
3830.772 -452706 -450852 -439731 -417652 -385111 -344821 -300156 -255123 
3834.630 -214125 -181735 -162889 -161862 -181205 -220484 -275488 -338365 
3838.487 -400008 -452871 -491927 -515921 -526677 -527604 -522275 -514167 
3842.345 -506258 -500697 -499043 -501392 -506092 -510229 -510262 -502816 
3846.202 -485970 -459921 -426093 -387031 -345086 -301150 -255355 -206972 
3850.060 -156530 -107307 -66627 -44728 -54468 -105386 -197765 -318334 
3853.917 -443868 -549610 -619892 -651224 -649570 -624326 -584984 -538822 
3857.774 -491397 -446318 -406596 -374816 -352072 -338564 -332604 -331412 
3861.632 -331313 -329657 -325486 -320387 -317142 -318500 -325122 -334922 
3865.489 -344556 -350052 -350151 -346476 -343927 -347933 -362666 -388124 
3869.347 -419704 -447344 -460848 -454063 -427748 -388786 -347304 -313566 
3873.204 -295090 -294594 -309427 -333697 -359090 -378755 -389051 -390176 
3877.062 -385211 -378689 -375147 -377464 -386601 -400736 -415169 -424570 
3880.919 -423445 -409277 -382595 -347701 -311414 -280356 -261580 -258766 
3884.776 -271779 -295355 -320453 -337637 -339888 -325618 -297839 -263799 
3888.634 -230982 -206972 -197169 -203527 -225087 -257640 -294792 -330187 
3892.491 -358527 -376636 -382926 -377663 -361308 -335783 -303170 -266580 
3896.349 -229756 -196639 -170673 -154344 -148878 -153052 -164081 -178622 
3900.206 -193260 -205779 -216311 -225882 -237208 -252573 -272740 -296812 
3904.063 -321744 -343265 -357799 -362864 -358163 -345583 -328201 -309129 
3907.921 -290720 -273733 -257706 -241082 -222040 -199321 -172726 -143546 
3911.778 -113734 -85841 -62121 -44529 -34226 -32039 -38036 -51984 -72259 
3916.118 -96608 -121485 -142850 -157656 -164048 -162028 -153516 -141459 
3919.975 -128806 -117510 -108599 -102537 -98761 -97336 -98198 -101709 
3923.833 -107837 -115589 -123241 -128905 -131157 -129832 -125990 -121816 
3927.690 -119729 -121319 -126421 -133708 -141094 -145765 -146593 -143446 
3931.548 -137385 -130495 -124334 -119796 -116848 -114694 -112740 -110521 
3935.405 -108136 -105651 -103233 -100649 -97436 -93063 -87862 -82429 -78123 
3939.745 -76599 -79580 -87398 -99490 -114661 -130396 -144109 -154112 -159113 
3944.084 -159312 -155702 -149607 -142982 -137120 -133344 -132052 -132880 
3947.942 -135099 -137650 -139306 -139339 -137219 -133079 -126917 -118901 
3951.799 -109394 -98827 -88061 -78156 -70569 -66362 -66097 -69476 -75008 
3956.139 -80707 -84417 -84847 -81468 -74843 -66263 -57218 -48770 -41349 
3960.478 -35054 -29422 -24120 -18885 -13617 -8449 -3611 728 3942 5732 5732 
3965.782 4108 1391 -1027 -1656 1391 8979 20543 34626 48676 59943 66737 68360 
3971.568 65212 58883 51128 43341 36581 31445 29026 29887 34924 44766 58949 
3976.872 76314 94972 112637 127551 138754 146477 151680 155360 158177 160298 
3981.694 161260 160961 159039 155989 152078 147836 143162 137958 132059 
3986.034 125563 119497 115255 114029 116680 122679 130700 138654 144455 
3990.373 147471 148233 147869 147902 149559 153006 157216 160564 161624 
3994.713 159470 154067 145814 135705 124436 112736 101136 90200 80390 72735 
3999.535 67930 66471 68062 
##END=
