
##TITLE=Z240_3_d
##JCAMP-DX=5.01  $$ Nicolet v. 1
##DATATYPE=INFRARED SPECTRUM
##ORIGIN=UniL
##OWNER=Nicolet
##LONGDATE=2011/09/09
##TIME=11:57:00
##SPECTROMETER/DATA SYSTEM=Nicolet iS5
##DATA PROCESSING=
Ratio against background
%Transmittance->Absorbance
Truncated
ElementMultiply or ElementDivide
##COMMENTS=
Number of sample scans: 32
Collection length: 51.20 sec
Sample gain: 2.0
Background collected on: Ven Sep 09 11:46:17 2011 (GMT+02:00);
Number of background scans: 32
Background gain: 2.0
Sample spacing:  1.000
Number of scan points: 12415
Resolution points: 8192
Number of FFT points: 65536
Apodization: N-B fort;
Phase correction: Mertz;
Laser frequency: 15798.0 cm-1
Number of rejected sample scans: 0
Number of rejected background scans: 0
Bench serial number: ASB1000141;
##RESOLUTION=4.000
##XUNITS=1/CM
##YUNITS=ABSORBANCE
##FIRSTX=649.893372
##LASTX=4000.122314
##FIRSTY=0.081607
##MAXX=4000.122314
##MINX=649.893372
##MAXY=0.286792
##MINY=-0.001577
##XFACTOR=1.000000
##YFACTOR=1.000000E-009
##NPOINTS=6950
##DELTAX=0.482117
##ZPD=6100
##XYDATA=(X++(Y..Y))
649.893 81607448 81475520 81373800 81323976 81336040 81406816 81526240 
653.268 81687896 81896424 82169744 82527720 82983896 83534760 84160328 
656.643 84833352 85533256 86256104 87016064 87837504 88739912 89732264 
660.018 90810856 91968952 93209144 94550128 96020896 97650272 99447864 
663.393 101397224 103459088 105588848 107751136 109914520 112045976 
666.285 114077744 115871904 117232936 117958216 117944480 117250336 
669.178 116050848 114530744 112806408 110924440 108889744 106702472 
672.071 104389912 102012984 99647920 97373392 95239712 93262080 91428264 
675.446 89715440 88105448 86591096 85176008 83865944 82661448 81555232 
678.820 80533816 79581768 78688360 77847160 77055304 76310504 75607288 
682.195 74937328 74292032 73663752 73048728 72446824 71860024 71290408 
685.570 70738784 70205072 69689472 69193808 68722072 68277600 67862088 
688.945 67471936 67098460 66728084 66344784 65934436 65486752 64996900 
692.320 64465648 63898356 63303396 62690460 62071272 61457548 60860316 
695.694 60290100 59755640 59262820 58815704 58416384 58065984 57764992 
699.069 57513792 57312380 57160984 57059324 57006316 56998420 57029212 
702.444 57088836 57164800 57245272 57320508 57385884 57442688 57496620 
705.819 57556500 57630200 57724420 57842696 57987060 58158784 58359836 
709.194 58594724 58872652 59209196 59628328 60165288 60860584 61752748 
712.569 62866084 64192416 65679820 67222720 68683840 69907728 70752352 
715.943 71131488 71024752 70489832 69642952 68650920 67701472 66967928 
719.318 66613040 66762588 67489352 68805920 70641424 72840168 75145312 
722.693 77245544 78822936 79593712 79396792 78222112 76222632 73665944 
726.068 70880552 68185552 65805912 63867344 62392328 61331220 60597952 
729.443 60104860 59786440 59596588 59505572 59491320 59530688 59602024 
732.817 59688996 59783740 59887976 60008444 60150828 60313660 60488592 
736.192 60662796 60826396 60976668 61118876 61262844 61417088 61583800 
739.567 61757868 61930284 62093024 62243816 62387428 62532508 62686704 
742.942 62853060 63028328 63205548 63377120 63539140 63691468 63836060 
746.317 63972912 64098700 64206020 64287804 64340756 64368800 64381756 
749.692 64392588 64412692 64447432 64496248 64555636 64622804 64698600 
753.066 64787792 64897352 65032184 65193744 65379700 65586360 65811732 
756.441 66056012 66321120 66607088 66909596 67219208 67524504 67816496 
759.816 68092216 68356704 68619768 68891328 69176008 69471840 69773704 
763.191 70079208 70396144 70746856 71166576 71703312 72410960 73340800 
766.566 74539872 76037656 77833440 79878240 82065824 84239128 86199400 
769.940 87768312 88841576 89439624 89726728 89984640 90546176 91660056 
773.315 93408936 95628872 97940168 99790032 100600760 99969008 97747128 
776.690 94115840 89494784 84457008 79555304 75190496 71601360 68832632 
780.065 66794812 65321700 64241700 63419180 62761092 62222020 61784068 
783.440 61441668 61194212 61044124 60999740 61075056 61288448 61657684 
786.815 62193648 62901356 63781568 64836412 66075496 67517024 69185728 
790.189 71110880 73321592 75845096 78712784 81960368 85628560 89760176 
793.564 94384928 99504024 105070032 110980392 117068816 123101568 128816512 
796.939 133925856 138151552 141286176 143215248 143963360 143692640 
799.832 142702208 141373152 140075344 139136592 138748176 138925984 
802.724 139494944 140116832 140370816 139808128 138099232 135108464 
805.617 130932776 125878200 120380520 114912376 109830752 105334512 
808.510 101431704 97975256 94724816 91431992 87929624 84153816 80156384 
811.885 76061816 72031336 68210208 64694672 61535652 58738504 56281360 
815.259 54130176 52251028 50615280 49198064 47980240 46945716 46081444 
818.634 45378824 44832196 44436752 44187604 44077684 44098148 44241200 
822.009 44502936 44885544 45398284 46055396 46872776 47863284 49033368 
825.384 50379416 51884880 53515044 55217080 56920028 58532348 59958992 
828.759 61115596 61943388 62431576 62624580 62625772 62574068 62634424 
832.133 62975272 63729764 64986772 66762084 68986560 71489976 74005824 
835.508 76219000 77772208 78352136 77760992 75946360 73030568 69270400 
838.883 65024220 60654412 56468336 52700336 49472752 46818892 44705656 
842.258 43065136 41817156 40883936 40202828 39720216 39390852 39180296 
845.633 39060832 39014320 39031212 39106256 39234588 39408484 39616208 
849.008 39845204 40086856 40339588 40610220 40910148 41252216 41644840 
852.382 42090864 42588872 43137036 43736788 44394436 45119872 45923192 
855.757 46812728 47793408 48869000 50046036 51336124 52758740 54340784 
859.132 56111512 58105832 60360300 62912688 65802476 69059888 72692432 
862.507 76662112 80868896 85140568 89218696 92805728 95592904 97298888 
865.882 97743056 96862056 94731536 91542960 87584712 83196056 78692488 
869.256 74360600 70417968 66995180 64159924 61919316 60240384 59062604 
872.631 58312500 57914212 57785276 57846108 58021864 58239104 58439620 
876.006 58583724 58654720 58661392 58634504 58619864 58662376 58798476 
879.381 59044916 59394324 59815072 60257588 60668816 60997376 61208172 
882.756 61289628 61253648 61132644 60968740 60806956 60682264 60615440 
886.131 60615056 60681656 60814996 61021552 61316416 61721504 62260412 
889.505 62948540 63788816 64767288 65858388 67027160 68236576 69455744 
892.880 70658184 71823352 72935280 73978600 74938000 75798464 76543176 
896.255 77153792 77610824 77892000 77977160 77852032 77513960 76975976 
899.630 76267768 75434824 74527832 73598664 72695208 71854040 71103736 
903.005 70466128 69957160 69590680 69378264 69328704 69448080 69739976 
906.379 70206192 70849152 71672552 72681152 73880400 75274304 76864160 
909.754 78649000 80627192 82797744 85161256 87718912 90469696 93407288 
913.129 96520040 99792360 103211968 106776480 110499960 114415128 118566504 
916.504 123006552 127782000 132920008 138418432 144230432 150259648 
919.397 156334944 162216736 167613504 172179328 175593264 177617232 
922.289 178153488 177300288 175359584 172831904 170302784 168400064 
925.182 167710608 168651248 171454272 176102416 182338896 189650144 
928.075 197314176 204536800 210456976 214314544 215573712 213930224 
930.967 209367472 202110672 192587328 181345712 168985712 156148736 
933.860 143413968 131278352 120153688 110306296 101889672 94960024 89492264 
937.235 85418480 82651112 81103424 80685360 81290608 82785432 84969088 
940.610 87568296 90267336 92699032 94518616 95464960 95378240 94244000 
943.985 92176896 89404040 86201056 82843976 79583960 76596368 73986184 
947.359 71795904 70017192 68612856 67532008 66725768 66149300 65763540 
950.734 65537228 65440908 65448076 65537340 65690876 65896796 66149184 
954.109 66444732 66781328 67155504 67561472 67992112 68441328 68904728 
957.484 69381336 69872816 70381104 70907432 71451112 72010176 72582608 
960.859 73167992 73767640 74384112 75019984 75675752 76350520 77041656 
964.233 77747120 78466528 79201000 79952560 80722392 81509376 82310768 
967.608 83122944 83944248 84775560 85620648 86484656 87370728 88278752 
970.983 89204896 90143760 91090744 92044792 93008656 93987840 94987568 
974.358 96010320 97055368 98119848 99201592 100301112 101422040 102570208 
977.733 103751160 104967744 106220280 107507712 108830440 110192088 
980.625 111599624 113060992 114582680 116166560 117809904 119506616 
983.518 121249320 123030880 124843144 126672848 128499656 130291240 
986.411 132006080 133601320 135036656 136283760 137331104 138183088 
989.304 138858064 139383616 139796656 140139008 140455648 140795136 
992.196 141201632 141710432 142344848 143112640 144009376 145023184 
995.089 146141760 147355968 148661296 150056544 151539360 153103440 
997.982 154740240 156440016 158195728 160005504 161869984 163788352 
1000.874 165753312 167747280 169744336 171716384 173638016 175494288 
1003.767 177282640 179011024 180693280 182347360 183994080 185657248 
1006.660 187365824 189153616 191051968 193086208 195267152 197590304 
1009.552 200036288 202578464 205191776 207854144 210547920 213256752 
1012.445 215957936 218622400 221219136 223720208 226110864 228391840 
1015.338 230576144 232678288 234703504 236640048 238460256 240126896 
1018.231 241603072 242865520 243907712 244742144 245396736 245916704 
1021.123 246363872 246811424 247349632 248073904 249067168 250396544 
1024.016 252096080 254166064 256577216 259282256 262227232 265351056 
1026.909 268589824 271869376 275091392 278143936 280902208 283239200 
1029.802 285050208 286253504 286791840 286630976 285750208 284143584 
1032.695 281824928 278836384 275253088 271170496 266700896 261948608 
1035.588 256993168 251891904 246678144 241372480 235995056 230571344 
1038.481 225133632 219723440 214385792 209170736 204135760 199335952 
1041.374 194819536 190611744 186697936 183011168 179427408 175792528 
1044.267 171932080 167694144 162989280 157798992 152187408 146278400 
1047.160 140243152 134262624 128496584 123083000 118114320 113639296 
1050.053 109671288 106193072 103166800 100542072 98266776 96291176 94570808 
1053.429 93070816 91761752 90616960 89611088 88715408 87897376 87124936 
1056.804 86365632 85591432 84782240 83924984 83014752 82055816 81060976 
1060.179 80052312 79058672 78117544 77268144 76547768 75990568 75621248 
1063.554 75455880 75501496 75756416 76210032 76840904 77617352 78493440 
1066.930 79409088 80300984 81102264 81755608 82223832 82489736 82558416 
1070.305 82451480 82201968 81845696 81414920 80938232 80436032 79922048 
1073.680 79405856 78893576 78391584 77908568 77456736 77051624 76711088 
1077.055 76449688 76276304 76190488 76182072 76232936 76320496 76424312 
1080.431 76525952 76611952 76672312 76698200 76681720 76618152 76510136 
1083.806 76371968 76232104 76136824 76142784 76312400 76710928 77393888 
1087.181 78404560 79769848 81492912 83549864 85881984 88401424 90985240 
1090.556 93486216 95762648 97682056 99150304 100125200 100615536 100676408 
1093.932 100390072 99858784 99182272 98446296 97725920 97077784 96544456 
1097.307 96160216 95947504 95916216 96056784 96335512 96686952 97009136 
1100.682 97180304 97060592 96513784 95440488 93786176 91560792 88833688 
1104.057 85728448 82400560 79005048 75695232 72594744 69789040 67333872 
1107.433 65251960 63542432 62188332 61163848 60438324 59977288 59746252 
1110.808 59708764 59824732 60053376 60349716 60664700 60952080 61166592 
1114.183 61270476 61239912 61064260 60748680 60309472 59772672 59167960 
1117.558 58523704 57867608 57222440 56606240 56033512 55514240 55054792 
1120.934 54659252 54328876 54063520 53860552 53713580 53610776 53531608 
1124.309 53449088 53329752 53138656 52848912 52445768 51932564 51330344 
1127.684 50675672 50012912 49384052 48825768 48361924 48002040 47743476 
1131.059 47573752 47473500 47417916 47381476 47340128 47273400 47169824 
1134.435 47027864 46857056 46674980 46504424 46368360 46284384 46263152 
1137.810 46306536 46408584 46555800 46729368 46907400 47064420 47175252 
1141.185 47218768 47177760 47043448 46814648 46497192 46101116 45638552 
1144.560 45122700 44566192 43981864 43383568 42784592 42197472 41632408 
1147.936 41094480 40584064 40097392 39628912 39173624 38729284 38296980 
1151.311 37880464 37484364 37112588 36768100 36452932 36169532 35921160 
1154.686 35712064 35546220 35426204 35352224 35321856 35331196 35376164 
1158.061 35454352 35564204 35705660 35878440 36081492 36312920 36570456 
1161.437 36852204 37156688 37482124 37824796 38178332 38532484 38874204 
1164.812 39190380 39468136 39697524 39872152 39987336 40040708 40030900 
1168.187 39959184 39829296 39648804 39429380 39184248 38927840 38673500 
1171.562 38431440 38210060 38017188 37860148 37748524 37692796 37702988 
1174.938 37788136 37955056 38208360 38552364 38992212 39534940 40189776 
1178.313 40966764 41874984 42923452 44119380 45470680 46987472 48681268 
1181.688 50565804 52655264 54961484 57493668 60256864 63251384 66468792 
1185.063 69888344 73473696 77162864 80868176 84484776 87884472 90935648 
1188.438 93518064 95521888 96867528 97510528 97443096 96696848 95338000 
1191.814 93465096 91189368 88630056 85906784 83120016 80355128 77676672 
1195.189 75123176 72713896 70450312 68321800 66311584 64402200 62580228 
1198.564 60837560 59172632 57588052 56089416 54682324 53370360 52154920 
1201.939 51035472 50009972 49076924 48235908 47487952 46834320 46274988 
1205.315 45807084 45423480 45114356 44867944 44672088 44518208 44399316 
1208.690 44310692 44248284 44207304 44181848 44167064 44159988 44162332 
1212.065 44180564 44226232 44313264 44455988 44668012 44959840 45339688 
1215.440 45813416 46384504 47053788 47819300 48675964 49616808 50634568 
1218.816 51723756 52881508 54107992 55405140 56776020 58223756 59751460 
1222.191 61364840 63072428 64885772 66819200 68885976 71094528 73446464 
1225.566 75934168 78540120 81235712 83984088 86737736 89437136 92018176 
1228.941 94410632 96544744 98362680 99819504 100889408 101569752 101882424 
1232.317 101876856 101626184 101234968 100829720 100544488 100525528 
1235.210 100907920 101804968 103312920 105498016 108400824 112040352 
1238.103 116414632 121501528 127251104 133590240 140412192 147573504 
1240.996 154915168 162253168 169389616 176135808 182295936 187682448 
1243.889 192135120 195516640 197735744 198753040 198580704 197275984 
1246.782 194928624 191660512 187609968 182923568 177755824 172241408 
1249.675 166482640 160540176 154423712 148102864 141525232 134647632 
1252.568 127455592 119984280 112317400 104586400 96953296 89576232 82609064 
1255.943 76172792 70340856 65146080 60577304 56591824 53123640 50097684 
1259.319 47440532 45079288 42952932 41011844 39216016 37539160 35964784 
1262.694 34483428 33090380 31782240 30554808 29403406 28323370 27311500 
1266.069 26366618 25488962 24678828 23934620 23252818 22627932 22055080 
1269.444 21531622 21058214 20638410 20277648 19980392 19749946 19588180 
1272.820 19496886 19478624 19537296 19676508 19897204 20195478 20561176 
1276.195 20977810 21423212 21873044 22300042 22676104 22975738 23176410 
1279.570 23263130 23232230 23092922 22865464 22576134 22252540 21915524 
1282.945 21575008 21231802 20879898 20513340 20131268 19740410 19354234 
1286.321 18989724 18661316 18379372 18149150 17971886 17847928 17778264 
1289.696 17764044 17805844 17901410 18045520 18230622 18448960 18694316 
1293.071 18961824 19247300 19544818 19845106 20136300 20407094 20649390 
1296.446 20862828 21054354 21238622 21432506 21653992 21919148 22241448 
1299.822 22631736 23098408 23643842 24261116 24929240 25613960 26266040 
1303.197 26829602 27253708 27495796 27531732 27357796 26988660 26453484 
1306.572 25789802 25042566 24256142 23472436 22729730 22056196 21469546 
1309.947 20976246 20573058 20250708 19998362 19808552 19676544 19600762 
1313.323 19579444 19609184 19684172 19798114 19945768 20125090 20335838 
1316.698 20577748 20847566 21137104 21434072 21725882 22003806 22265340 
1320.073 22515060 22760944 23011022 23269214 23534238 23800862 24063550 
1323.448 24318584 24566648 24812504 25064222 25332946 25631220 25975036 
1326.823 26382074 26868304 27444614 28109842 28847544 29624134 30396288 
1330.199 31120158 31758286 32291048 32717198 33052478 33321254 33550962 
1333.574 33766648 33987028 34226552 34496488 34805608 35161076 35567436 
1336.949 36026196 36536972 37099668 37716576 38393392 39137544 39954316 
1340.324 40844584 41802268 42815420 43867812 44942348 46021020 47082480 
1343.700 48103300 49056148 49912132 50647488 51246372 51703676 52023468 
1347.075 52213136 52276140 52206600 51986340 51588700 50987660 50165036 
1350.450 49120404 47874164 46469128 44963296 43420844 41911036 40495924 
1353.825 39227732 38149392 37287368 36651024 36230900 36000852 35922384 
1357.201 35951284 36049808 36188476 36349088 36524392 36713144 36917964 
1360.576 37144960 37406712 37723584 38122692 38636052 39288992 40091072 
1363.951 41032092 42082428 43200204 44334068 45432532 46443392 47310312 
1367.326 47980204 48403484 48540076 48369628 47892624 47131448 46123260 
1370.702 44916260 43564484 42119264 40637912 39182144 37815320 36606176 
1374.077 35614660 34879348 34411152 34191812 34186256 34355024 34671476 
1377.452 35128708 35740844 36538848 37565900 38875692 40524588 42572316 
1380.827 45071016 48042892 51453012 55177836 59010184 62646552 65732620 
1384.203 67936160 68957352 68600592 66811428 63712344 59608788 54930952 
1387.578 50178200 45769604 41971944 38895768 36513616 34723836 33394958 
1390.953 32407560 31662152 31081256 30612970 30220988 29883448 29592176 
1394.328 29348382 29158338 29027746 28958248 28945640 28982582 29060940 
1397.704 29173684 29316408 29486202 29680966 29899600 30141214 30405492 
1401.079 30692476 31002104 31333998 31687244 32061182 32457008 32877638 
1404.454 33327804 33811488 34329996 34880640 35457736 36055172 36670168 
1407.829 37304628 37964712 38657856 39389180 40159760 40966580 41804748 
1411.205 42669832 43557452 44460100 45360324 46229208 47026464 47707160 
1414.580 48238684 48610368 48841708 48977660 49083860 49234656 49496036 
1417.955 49921240 50537776 51340300 52291612 53332708 54400716 55438604 
1421.330 56406832 57287424 58084544 58829704 59578612 60406604 61383848 
1424.706 62556080 63931564 65481940 67158984 68910632 70700136 72503784 
1428.081 74306976 76098880 77864088 79585744 81251936 82866352 84452904 
1431.456 86048664 87698768 89441376 91302688 93300312 95454056 97799576 
1434.831 100395168 103317160 106635632 110383784 114521000 118942936 
1437.724 123520624 128138568 132706728 137138256 141334064 145143040 
1440.617 148363536 150787280 152207824 152472800 151513056 149338992 
1443.510 146040960 141767104 136724704 131147696 125266272 119315256 
1446.404 113501696 108007656 103002912 98617032 94923624 91920752 89536648 
1449.779 87654320 86151760 84946688 84010864 83368768 83069344 83155448 
1453.154 83633368 84468840 85591072 86914576 88364584 89874920 91403608 
1456.529 92931416 94468816 96044048 97691232 99454064 101367720 103459600 
1459.905 105749352 108241032 110917808 113731888 116612088 119446592 
1462.798 122078984 124338096 126045408 127075568 127406088 127137544 
1465.691 126460272 125576392 124661384 123826328 123123256 122569544 
1468.584 122156896 121856440 121608576 121316432 120843608 120018608 
1471.477 118690552 116785776 114362608 111604296 108753480 106024320 
1474.370 103541808 101358976 99492856 97957272 96785072 96016144 95672152 
1477.745 95742616 96177784 96906944 97853368 98959912 100201608 101583944 
1481.120 103136080 104895728 106899880 109177608 111756448 114673232 
1484.013 117977736 121728672 125974280 130727392 135926832 141403856 
1486.906 146894512 152016416 156305136 159292560 160533568 159718432 
1489.800 156766992 151871424 145474544 138134384 130411160 122721112 
1492.693 115296936 108244600 101568248 95242512 89275416 83722480 78695352 
1496.068 74335552 70759880 68021168 66094132 64904392 64355812 64360044 
1499.443 64850496 65772064 67073404 68701376 70591016 72668384 74858824 
1502.818 77067880 79184808 81073792 82535536 83314256 83111312 81653232 
1506.194 78838944 74854888 70150424 65226472 60441368 55946588 51746004 
1509.569 47793444 44056520 40532808 37258812 34285244 31647828 29360614 
1512.944 27408226 25756646 24365892 23198498 22222302 21405286 20716354 
1516.319 20128976 19624542 19200096 18864920 18630914 18501374 18464864 
1519.695 18493560 18554936 18623514 18697636 18801772 18974458 19244496 
1523.070 19614488 20065504 20568472 21100788 21653468 22236356 22870424 
1526.445 23578628 24371536 25243984 26178894 27158464 28172522 29221880 
1529.820 30317726 31475368 32708518 34026584 35432388 36922000 38485560 
1533.196 40105752 41759004 43416924 45053556 46646576 48179668 49634492 
1536.571 50991612 52233016 53335516 54278716 55045124 55622428 55999772 
1539.946 56168220 56129800 55901060 55514692 55011088 54420584 53753064 
1543.321 52995332 52123016 51119068 49993172 48786392 47561628 46376100 
1546.697 45255248 44188892 43138244 42059288 40925184 39746648 38569528 
1550.072 37460164 36471632 35621312 34890768 34240532 33633264 33050656 
1553.447 32501750 32014668 31618140 31320856 31103358 30918522 30706702 
1556.822 30397036 29916886 29205896 28240090 27067504 25812096 24622262 
1560.198 23598990 22768242 22101902 21549764 21059848 20586710 20097292 
1563.573 19576428 19030882 18486886 17980520 17544152 17190292 16909266 
1566.948 16674004 16453840 16223848 15974279 15713310 15462352 15245032 
1570.323 15076015 14957852 14884466 14847744 14841127 14859607 14897496 
1573.698 14943997 14983745 15001203 14986798 14946638 14904252 14892799 
1577.074 14936453 15040786 15194382 15378926 15578282 15785117 16002398 
1580.449 16239911 16509216 16818364 17169058 17556642 17973612 18410242 
1583.824 18855438 19295136 19708822 20070848 20355840 20542486 20623124 
1587.199 20606966 20522200 20409040 20314102 20283932 20355630 20556244 
1590.575 20902356 21398046 22033538 22779136 23586466 24383488 25083108 
1593.950 25603172 25871418 25846696 25525996 24944822 24168244 23272674 
1597.325 22338586 21432646 20604326 19891548 19318586 18899978 18641534 
1600.700 18540826 18588480 18771704 19078796 19500006 20026398 20647410 
1604.076 21345524 22093044 22855824 23590978 24252744 24799174 25189944 
1607.451 25393152 25388866 25168140 24736102 24109676 23320078 22409334 
1610.826 21427772 20432898 19475472 18593182 17806294 17115082 16505394 
1614.201 15955716 15444945 14956960 14485420 14037251 13629407 13283675 
1617.577 13018308 12841828 12751398 12735497 12775522 12850258 12939174 
1620.952 13025205 13100189 13167638 13242373 13344728 13491368 13689586 
1624.327 13934321 14214285 14517725 14838042 15173210 15522545 15882781 
1627.702 16245620 16599158 16933070 17243246 17533734 17814510 18096192 
1631.078 18384522 18677436 18964212 19230122 19459910 19640348 19763398 
1634.453 19827314 19836922 19802310 19738120 19660110 19580310 19505378 
1637.828 19435066 19363484 19279686 19171594 19029776 18851460 18643228 
1641.203 18418676 18194584 17983352 17787584 17599426 17402348 17176884 
1644.579 16905510 16580053 16205654 15802607 15401618 15035846 14732180 
1647.954 14504741 14354711 14274066 14249003 14260506 14283037 14284613 
1651.329 14224830 14063294 13781512 13408149 13024385 12717619 12533690 
1654.704 12461327 12460440 12487890 12513023 12519571 12501906 12461701 
1658.080 12403329 12330033 12242639 12139828 12019362 11880335 11723686 
1661.455 11551747 11367801 11175535 10979922 10787522 10606446 10444859 
1664.830 10307522 10194382 10098803 10008772 9907945 9779997 9612755 9401828 
1668.688 9153001 8880507 8603723 8339578 8100338 7891900 7714522 7564392 
1672.545 7433458 7309673 7178209 7023920 6838785 6627149 6408117 6207447 
1676.402 6047320 5935821 5866832 5824685 5792918 5760449 5724759 5691623 
1680.260 5670775 5669735 5687728 5714586 5732145 5721401 5670104 5583503 
1684.117 5485209 5408878 5379422 5400860 5461889 5545646 5639221 5735234 
1687.975 5831234 5927524 6024339 6121008 6216858 6312595 6411817 6519099 
1691.832 6638487 6770023 6908466 7042307 7158200 7243633 7294173 7317693 
1695.689 7334306 7367129 7427964 7512674 7602493 7673207 7699379 7663327 
1699.547 7563414 7420751 7274159 7159110 7091442 7063051 7054026 7041532 
1703.404 7008632 6944523 6845147 6713857 6560338 6398299 6240186 6094293 
1707.262 5963197 5844398 5732044 5619451 5501718 5377142 5247771 5118706 
1711.119 4996317 4885522 4788190 4702736 4625337 4552070 4480455 4410392 
1714.977 4342917 4277494 4211177 4138047 4052219 3952934 3848021 3751856 
1718.834 3678937 3638572 3630821 3648897 3682245 3720475 3757204 3790293 
1722.691 3821713 3855944 3896596 3945243 4000651 4060079 4121087 4182372 
1726.549 4242528 4299646 4349745 4386895 4405605 4402961 4380803 4345360 
1730.406 4304231 4262403 4218003 4160727 4074093 3941933 3757338 3533234 
1734.264 3300466 3097155 2948612 2857816 2811691 2790148 2775576 2755268 
1738.121 2723925 2682516 2636810 2593975 2559877 2537947 2528782 2531848 
1741.979 2545912 2569876 2601208 2636610 2672347 2705487 2734628 2760436 
1745.836 2784713 2808656 2831968 2852246 2865821 2869689 2862118 2843708 
1749.693 2816594 2783479 2746498 2707354 2668046 2630909 2599075 2574343 
1753.551 2556244 2540846 2521450 2490023 2440073 2370271 2286025 2198731 
1757.408 2121077 2060982 2019536 1990210 1963415 1928535 1879680 1815858 
1761.266 1742431 1667619 1599006 1541576 1496157 1461314 1435017 1415637 
1765.123 1401642 1391204 1381299 1368502 1350454 1327720 1303858 1284782 
1768.980 1274613 1273915 1278036 1278534 1266936 1238093 1194931 1147654 
1772.838 1109916 1091413 1094569 1114201 1142206 1170877 1197024 1221346 
1776.695 1247331 1277637 1312432 1347795 1377975 1398152 1406861 1407060 
1780.553 1404800 1406495 1415304 1429599 1445024 1456194 1459785 1456128 
1784.410 1448548 1441999 1440702 1445656 1456227 1470955 1488975 1510853 
1788.268 1537453 1568844 1601966 1631532 1650024 1650157 1628306 1585870 
1792.125 1529141 1467065 1407227 1354176 1308477 1268831 1234039 1204268 
1795.982 1180312 1162671 1150412 1140545 1129515 1114201 1093606 1069956 
1799.840 1046838 1028338 1016515 1011632 1011533 1014655 1019935 1028039 
1803.697 1039830 1055175 1072281 1087892 1098389 1102309 1100183 1095566 
1807.555 1092975 1095732 1104634 1117955 1132173 1143967 1152538 1159049 
1811.412 1166823 1178385 1194665 1214435 1235202 1255273 1274281 1294054 
1815.270 1317550 1346831 1382496 1422817 1464639 1505367 1543671 1580350 
1819.127 1617032 1655280 1695493 1736676 1777064 1815126 1849498 1879980 
1822.984 1905771 1926238 1940250 1947306 1948637 1948271 1950667 1960220 
1826.842 1978060 2001727 2025295 2042206 2047765 2042605 2032951 2028391 
1830.699 2038078 2066675 2112254 2168394 2227705 2285026 2338590 2390395 
1834.557 2444538 2504287 2571043 2643244 2718590 2795684 2875160 2960388 
1838.414 3055609 3164203 3287212 3423414 3569781 3723215 3881718 4044025 
1842.271 4209304 4376687 4544469 4711345 4877480 5044685 5215677 5391500 
1846.129 5570011 5745239 5907942 6047623 6155891 6228622 6266136 6272725 
1849.986 6253530 6212522 6150782 6066774 5958964 5827506 5676046 5510275 
1853.844 5336686 5160382 4983513 4806147 4627648 4448920 4272575 4102958 
1857.701 3943304 3795139 3656549 3524048 3394928 3268249 3146380 3033053 
1861.559 2931865 2843007 2764571 2692117 2622442 2554411 2491023 2435875 
1865.416 2392927 2362276 2341255 2323999 2305645 2283860 2260878 2242193 
1869.273 2233400 2237330 2252251 2273168 2294519 2312307 2325198 2333526 
1873.131 2338290 2338856 2333460 2318902 2293187 2256248 2210420 2159170 
1876.988 2105895 2051727 1995669 1935990 1871660 1803447 1734580 1668218 
1880.846 1606788 1549923 1494262 1436314 1374285 1309939 1248760 1197024 
1884.703 1159880 1138086 1128419 1124300 1119516 1110481 1097027 1081349 
1888.561 1066036 1052750 1040992 1029733 1019072 1011101 1009407 1017411 
1892.418 1036276 1063080 1091978 1116925 1134299 1144631 1152671 1164598 
1896.275 1184731 1213405 1246334 1278036 1304290 1325028 1344172 1367438 
1900.133 1399315 1440403 1487280 1533563 1574032 1606023 1630601 1650889 
1903.990 1669548 1686712 1699651 1705140 1701048 1689406 1674671 1663329 
1907.848 1659171 1663029 1670613 1676301 1674771 1664193 1646432 1625612 
1911.705 1605225 1586868 1570141 1553414 1536988 1523288 1516439 1519697 
1915.563 1532964 1551851 1567447 1570872 1556341 1524585 1482226 1437644 
1919.420 1397587 1363848 1332739 1298706 1257665 1209551 1159182 1113769 
1923.277 1078658 1055939 1042587 1033619 1024286 1013625 1003861 999544 
1927.135 1003064 1013293 1025781 1035014 1036973 1031825 1023024 1015983 
1930.992 1014024 1017146 1021430 1021795 1015684 1003795 990444 980448 
1934.850 976430 977061 977791 973640 962815 947772 935353 931999 940799 
1939.189 958730 978954 992869 994961 985263 968792 952653 941263 934523 
1943.529 927782 915629 896471 873628 854837 848396 859087 886278 923499 
1947.868 963811 1003230 1042786 1088225 1144664 1213272 1288005 1358032 
1951.726 1411348 1441766 1449745 1443694 1433621 1427604 1426707 1426673 
1955.583 1419360 1400013 1368269 1330778 1295416 1268930 1252581 1241516 
1959.441 1229420 1211544 1188253 1165295 1148717 1141907 1142106 1143169 
1963.298 1137621 1123071 1102907 1085202 1078625 1088557 1112075 1142339 
1967.156 1170245 1191542 1207358 1223971 1246467 1276540 1309474 1337458 
1971.013 1353279 1356370 1352614 1352980 1366275 1394628 1432125 1469858 
1974.870 1500479 1525350 1555276 1605425 1687743 1801651 1932462 2054923 
1978.728 2145884 2190139 2186010 2142354 2073133 1990176 1899015 1800819 
1982.585 1695826 1588531 1489075 1410484 1363416 1350254 1364181 1391138 
1986.443 1416135 1430962 1435716 1439339 1452205 1480663 1522956 1569542 
1990.300 1608152 1629470 1631964 1621721 1609682 1605392 1613240 1632231 
1994.157 1657508 1683718 1709098 1734580 1761826 1791270 1819751 1842311 
1998.015 1854157 1853125 1842011 1825308 1808704 1794531 1781555 1765619 
2001.872 1743362 1714720 1682953 1652785 1628339 1609781 1593353 1573666 
2005.730 1547362 1516539 1488576 1473017 1476541 1498085 1531900 1566915 
2009.587 1596213 1617530 1635157 1655313 1682986 1715685 1746490 1765353 
2013.445 1766983 1752810 1732584 1717947 1718978 1738406 1771009 1806908 
2017.302 1838551 1865537 1895587 1939751 2005455 2092544 2192104 2288423 
2021.159 2367573 2422047 2453068 2468563 2477627 2485392 2492556 2496288 
2025.017 2494222 2488091 2484592 2490923 2512018 2544746 2579309 2602675 
2028.874 2605042 2584976 2550179 2514051 2490890 2489024 2510352 2550812 
2032.732 2605042 2669247 2743331 2827833 2920357 3014102 3098423 3163301 
2036.589 3203288 3221080 3226521 3232563 3249588 3281369 3324772 3371753 
2040.447 3413595 3444988 3465328 3476450 3479790 3475816 3462355 3438342 
2044.304 3405347 3370083 3341534 3330081 3341534 3376261 3427889 3487305 
2048.161 3545527 3595873 3633828 3656415 3660859 3645155 3608702 3555884 
2052.019 3496257 3443318 3411725 3410890 3440947 3493117 3551674 3601352 
2055.876 3631890 3642682 3640410 3636167 3637537 3647494 3662697 3677132 
2059.734 3686054 3689463 3690967 3696447 3709346 3728395 3747411 3758975 
2063.591 3758006 3744938 3725588 3707408 3697282 3697316 3704267 3712254 
2067.448 3715696 3712955 3705169 3695979 3687358 3678670 3666874 3647427 
2071.306 3618625 3582509 3544325 3511021 3486871 3472008 3462055 3451267 
2075.163 3434935 3412994 3389150 3370150 3361735 3366777 3384075 3409454 
2079.021 3438509 3467866 3496123 3522779 3546864 3565805 3576596 3577130 
2082.878 3567843 3552677 3538479 3531564 3535372 3549570 3568979 3587120 
2086.736 3598479 3600784 3595104 3584413 3571919 3558623 3544058 3526420 
2090.593 3505443 3482395 3460819 3444153 3435270 3433499 3436739 3441882 
2094.450 3446725 3450799 3455809 3462689 3471774 3480993 3487706 3489978 
2098.308 3489443 3490178 3498027 3517134 3548701 3588423 3630152 3667074 
2102.165 3695879 3717567 3738020 3763888 3800421 3849492 3908766 3973966 
2106.023 4040815 4106604 4170864 4233962 4295965 4355300 4410526 4460135 
2109.880 4505330 4548989 4594461 4644091 4697578 4750335 4796230 4829633 
2113.738 4848564 4854829 4854126 4852484 4854963 4863675 4877782 4895542 
2117.595 4916586 4942357 4975939 5020081 5075056 5137884 5202532 5262594 
2121.452 5313172 5353424 5385495 5413642 5442193 5473767 5508765 5546955 
2125.310 5587766 5631568 5679269 5731037 5785296 5838823 5886983 5926348 
2129.167 5955471 5976096 5991987 6007272 6024742 6044968 6067211 6090833 
2133.025 6116774 6147556 6185399 6231177 6281667 6331355 6372172 6399812 
2136.882 6413061 6417029 6419181 6426478 6441880 6464647 6489098 6509581 
2140.740 6522396 6527811 6528551 6528248 6527407 6524380 6514323 6494210 
2144.597 6463000 6423384 6380612 6339659 6302476 6267817 6231681 6190944 
2148.454 6144733 6096679 6050781 6011237 5976500 5941027 5896186 5834122 
2152.312 5750611 5647512 5530007 5405187 5277888 5150961 5026852 4911258 
2156.169 4815629 4755896 4749699 4810101 4935688 5110861 5308745 5500544 
2160.027 5663424 5787042 5870493 5921075 5946502 5952146 5941094 5915197 
2163.884 5877277 5831872 5783214 5733824 5682559 5625190 5556520 5474136 
2167.741 5380060 5280470 5183820 5097216 5023601 4961628 4906533 4854126 
2171.599 4802563 4753350 4709737 4673697 4645364 4621385 4598145 4572562 
2175.456 4545741 4520128 4498868 4482397 4466897 4444836 4409856 4359183 
2179.314 4296802 4231955 4175681 4137511 4120485 4120451 4129483 4138381 
2183.171 4142562 4140790 4135705 4130253 4125937 4121422 4115100 4105600 
2187.029 4095499 4088709 4089545 4099345 4115434 4130855 4139485 4136675 
2190.886 4123061 4102690 4083056 4068507 4061249 4059075 4058239 4056333 
2194.743 4054393 4054193 4060146 4072688 4089344 4104697 4113126 4111621 
2198.601 4102188 4090281 4082521 4082354 4089077 4097205 4100550 4094663 
2202.458 4079243 4058841 4039878 4026869 4021251 4019913 4018107 4011686 
2206.316 4000350 3986071 3973431 3965105 3961460 3959454 3956277 3949958 
2210.173 3942501 3938455 3942434 3956913 3979885 4005566 4027638 4041885 
2214.031 4048407 4051617 4057270 4069578 4088909 4111521 4131992 4146075 
2217.888 4153468 4157516 4162768 4173741 4190535 4209739 4225363 4232189 
2221.745 4227605 4212817 4191572 4167619 4143533 4120251 4097071 4073992 
2225.603 4051751 4032454 4017271 4006101 3995902 3982626 3962229 3934911 
2229.460 3903215 3873728 3851965 3841402 3840667 3844711 3846450 3841502 
2233.318 3828465 3810849 3793635 3782137 3778561 3782639 3791730 3803763 
2237.175 3817601 3835184 3857582 3885764 3917425 3948119 3972528 3986673 
2241.032 3989248 3983094 3972595 3962563 3956712 3957381 3964904 3980253 
2244.890 4004296 4038173 4081317 4131056 4182104 4227672 4261600 4280472 
2248.747 4285090 4280372 4272140 4266853 4268125 4276959 4292117 4311861 
2252.605 4334450 4358747 4383950 4408082 4428434 4441957 4445840 4439748 
2256.462 4425254 4405605 4384017 4362596 4341244 4318788 4293957 4266786 
2260.320 4239315 4215226 4198230 4190702 4192676 4203081 4219642 4241691 
2264.177 4269095 4302457 4341947 4385791 4430175 4469977 4500843 4520496 
2268.034 4529737 4531712 4529837 4526891 4523777 4519425 4512427 4502250 
2271.892 4489829 4477476 4468236 4463348 4463415 4466930 4472856 4480555 
2275.749 4491770 4508075 4531779 4563320 4600824 4639972 4676444 4705684 
2279.607 4725681 4736166 4739247 4737707 4735094 4734725 4739750 4752412 
2283.464 4774722 4806315 4845950 4890046 4933912 4973425 5005534 5029333 
2287.322 5045959 5057390 5065502 5071503 5075325 5076263 5075023 5072978 
2291.179 5073012 5078308 5091450 5113275 5143282 5179595 5219902 5262627 
2295.036 5306766 5351344 5395224 5436322 5472861 5502859 5526752 5546217 
2298.894 5565078 5587195 5614953 5648721 5686486 5724960 5761187 5793926 
2302.751 5823812 5853365 5884464 5918186 5954497 5991583 6027967 6063784 
2306.609 6100745 6142011 6191314 6251076 6321538 6400855 6485735 6572044 
2310.466 6656218 6735932 6809502 6876519 6936780 6991089 7040757 7087569 
2314.323 7134352 7183060 7235547 7292758 7354391 7419706 7487694 7557817 
2318.181 7629637 7702987 7777530 7852727 7927836 8002418 8075730 8146994 
2322.038 8213982 8273550 8321002 8351400 8360824 8348563 8317894 8276083 
2325.896 8232216 8195850 8174240 8170931 8185248 8213103 8249303 8288545 
2329.753 8327082 8362817 8394705 8422440 8445919 8465854 8483625 8502175 
2333.611 8524950 8555125 8594564 8642760 8697148 8754180 8810272 8863733 
2337.468 8914699 8964521 9014890 9066346 9118114 9168026 9213477 9252908 
2341.325 9285233 9310419 9327582 9334420 9326261 9297115 9240925 9154152 
2345.183 9038164 8900156 8753707 8615620 8503459 8434027 8418656 8463793 
2349.040 8569961 8732137 8940133 9179668 9435656 9693014 9940117 10170468 
2352.898 10382243 10577383 10757904 10925554 11080080 11220958 11347529 
2356.273 11461686 11565868 11664256 11759056 11850676 11937480 12017045 
2359.648 12087598 12149300 12203856 12254193 12302048 12347384 12388158 
2363.023 12421262 12443732 12453996 12452939 12441994 12423001 12397363 
2366.399 12365384 12327272 12283062 12233131 12178129 12117886 12051110 
2369.774 11975592 11888746 11789390 11678380 11559165 11436954 11317329 
2373.149 11205046 11102174 11009318 10925044 10848498 10779167 10717657 
2376.524 10665495 10623898 10593612 10574803 10566756 10569744 10583867 
2379.900 10609706 10647973 10698401 10760009 10830867 10908463 10990423 
2383.275 11074743 11159896 11243910 11325321 11401678 11470804 11531092 
2386.650 11581998 11623618 11657244 11683520 11702513 11713236 11714087 
2390.025 11703569 11681444 11648667 11607147 11559471 11507751 11453317 
2393.401 11397019 11339707 11282641 11228269 11179275 11138003 11106151 
2396.776 11083852 11070902 11066314 11070427 11084260 11109415 11147249 
2400.151 11197906 11259823 11330864 11408107 11490026 11576894 11670246 
2403.526 11772674 11885818 12010608 12146370 12291856 12445880 12608009 
2406.902 12778832 12959246 13149708 13350469 13560451 13778571 14004295 
2410.277 14237259 14477574 14724914 14977057 15230653 15480137 15719770 
2413.652 15944442 16150214 16334889 16497513 16637854 16755234 16849190 
2417.027 16919394 16965906 16990298 16995090 16983960 16960116 16927352 
2420.403 16887528 16842748 16794392 16743906 16692771 16642399 16594339 
2423.778 16550105 16511211 16479755 16458143 16449470 16456319 16481338 
2427.153 16525496 16589452 16673420 16777688 16902652 17049362 17217940 
2430.528 17408244 17618334 17844752 18084068 18333262 18590450 18855924 
2433.904 19130700 19416322 19713676 20022998 20343444 20674550 21016306 
2437.279 21369540 21736298 22118182 22516596 22932176 23364658 23813672 
2440.654 24278812 24759884 25256452 25768002 26293110 26830132 27377594 
2444.029 27934546 28501268 29078370 29666598 30266102 30875722 31493324 
2447.405 32115906 32740850 33365942 33989532 34609932 35225108 35832380 
2450.780 36428500 37010572 37576736 38125912 38658360 39174352 39673600 
2454.155 40154304 40612732 41044036 41442052 41800736 42114008 42376544 
2457.530 42582988 42729384 42811908 42828180 42776368 42656052 42467952 
2460.906 42213320 41894432 41514632 41078052 40590648 40058916 39490888 
2464.281 38894824 38279392 37653012 37024172 36401008 35792256 35206784 
2467.656 34653352 34140516 33675656 33264194 32909558 32612960 32374252 
2471.031 32191872 32063324 31986098 31955962 31967800 32015846 32092754 
2474.406 32191656 32306072 32430266 32559566 32690906 32820710 32945980 
2477.782 33063848 33171986 33268240 33351236 33419720 33472362 33507652 
2481.157 33523724 33518318 33490654 33441122 33370808 33283084 33181392 
2484.532 33068746 32948342 32822284 32692120 32559600 32426302 32293722 
2487.907 32162682 32033250 31903718 31771760 31634570 31489760 31335816 
2491.283 31172986 31001536 30822684 30636650 30442844 30239814 30025804 
2494.658 29798626 29556528 29298898 29025620 28737256 28434722 28119848 
2498.033 27794180 27460180 27120300 26777126 26432708 26088986 25746872 
2501.408 25407346 25071454 24739470 24412436 24091324 23776712 23468694 
2504.784 23167464 22873252 22586116 22307264 22038140 21780470 21535766 
2508.159 21304842 21087916 20883860 20690742 20506288 20328096 20154278 
2511.534 19983548 19815244 19650334 19490302 19337120 19192788 19058856 
2514.909 18935484 18822012 18716870 18619466 18529310 18447300 18375396 
2518.285 18315532 18268738 18235184 18213380 18201390 18197660 18200976 
2521.660 18211446 18229862 18256712 18291202 18331706 18375984 18421544 
2525.035 18467388 18513094 18559498 18607674 18657650 18707842 18755754 
2528.410 18798032 18831562 18854400 18865508 18864712 18852670 18830178 
2531.786 18797894 18756896 18709016 18655886 18600340 18544180 18488996 
2535.161 18435476 18384038 18335026 18289612 18249112 18215384 18189402 
2538.536 18171642 18160518 18154404 18151260 18149704 18149772 18152192 
2541.911 18157892 18167462 18180314 18195000 18209684 18223160 18234700 
2545.287 18244480 18253084 18260858 18267254 18271296 18272366 18269672 
2548.662 18263796 18256058 18248178 18241370 18236602 18233560 18231834 
2552.037 18230970 18230726 18231280 18232938 18236152 18240610 18246104 
2555.412 18252288 18258752 18265974 18273472 18280730 18285638 18285602 
2558.788 18276616 18255814 18220880 18171574 18109388 18037160 17958142 
2562.163 17875686 17792004 17708784 17627202 17547672 17470536 17395932 
2565.538 17323548 17253278 17184744 17118736 17056252 17000016 16952400 
2568.913 16915260 16890010 16876436 16873130 16878436 16890148 16907060 
2572.289 16928110 16952502 16979514 17008630 17039332 17071762 17106568 
2575.664 17145344 17188914 17238210 17292480 17349996 17408106 17464742 
2579.039 17518484 17569890 17620750 17673756 17731460 17795626 17867020 
2582.414 17944812 18028146 18115262 18204916 18296006 18387426 18478658 
2585.790 18569424 18660072 18751222 18843916 18939050 19036976 19137278 
2589.165 19238782 19339892 19439536 19537228 19633242 19728654 19823950 
2592.540 19919646 20014948 20108778 20199712 20286814 20369798 20449152 
2595.915 20525638 20600434 20674236 20748016 20822606 20899124 20978958 
2599.291 21063640 21154288 21251740 21356000 21466726 21583260 21705260 
2602.666 21832520 21965324 22103750 22247796 22396914 22550690 22707944 
2606.041 22868224 23031216 23196576 23364482 23535288 23709240 23886796 
2609.416 24068174 24253620 24442300 24633238 24824012 25011712 25193208 
2612.792 25365578 25526558 25675156 25811284 25935218 26047364 26148382 
2616.167 26238198 26317400 26386476 26446512 26498914 26545300 26586476 
2619.542 26623466 26656370 26685296 26710242 26731844 26750378 26766906 
2622.917 26782096 26796754 26811452 26827278 26844900 26865908 26891358 
2626.292 26921956 26957668 26997862 27041304 27087042 27134584 27184178 
2629.668 27236704 27293260 27354620 27420756 27490784 27563576 27637688 
2633.043 27712060 27786090 27859676 27933132 28006706 28080150 28153644 
2636.418 28227184 28300702 28374692 28449828 28526674 28605374 28686354 
2639.793 28769084 28853422 28939122 29025796 29113410 29201962 29291346 
2643.169 29381708 29473648 29567452 29663866 29763352 29865950 29971590 
2646.544 30079882 30190192 30302092 30415726 30531844 30651086 30774522 
2649.919 30902690 31035698 31173128 31314306 31458270 31604350 31752366 
2653.294 31902790 32056152 32213640 32376464 32545994 32722664 32906376 
2656.670 33096746 33292562 33492480 33695352 33900464 34107940 34318340 
2660.045 34532504 34750436 34971816 35195644 35420056 35643864 35865916 
2663.420 36086316 36305536 36524756 36744192 36964676 37186036 37407868 
2666.795 37629920 37852448 38075848 38300848 38527920 38757576 38989852 
2670.171 39224648 39462220 39702972 39947376 40195736 40447988 40703548 
2673.546 40961084 41218952 41475952 41731136 41983912 42234208 42481652 
2676.921 42725876 42966432 43203240 43436552 43667864 43899264 44133796 
2680.296 44374248 44623248 44882604 45153840 45437792 45735104 46047068 
2683.672 46374408 46717892 47078160 47455096 47848528 48257456 48680968 
2687.047 49118288 49568228 50029644 50501520 50982968 51473232 51971776 
2690.422 52478824 52994584 53519580 54054180 54598792 55153460 55718364 
2693.797 56294224 56881316 57480544 58092232 58716504 59352724 59999692 
2697.173 60656164 61320304 61991008 62667220 63348176 64033768 64723900 
2700.548 65418876 66118592 66823104 67531696 68243088 68954592 69663064 
2703.923 70364784 71055816 71732192 72391112 73029080 73643176 74230232 
2707.298 74786592 75308976 75794440 76240560 76646096 77009960 77332232 
2710.674 77612520 77851448 78049288 78207352 78326824 78409640 78457240 
2714.049 78470656 78449736 78393568 78300672 78169344 77997976 77786360 
2717.424 77534680 77243920 76916328 76555072 76163552 75747344 75311896 
2720.799 74863624 74409400 73955584 73508272 73073968 72658040 72266376 
2724.175 71904712 71577448 71288184 71038800 70829656 70659864 70527904 
2727.550 70432352 70372696 70348496 70359952 70406320 70486168 70597288 
2730.925 70736480 70901152 71088752 71297872 71527672 71777384 72045648 
2734.300 72330520 72628552 72936616 73250904 73568600 73887192 74204840 
2737.676 74520008 74831504 75137904 75438264 75731800 76017720 76295856 
2741.051 76565744 76827136 77080152 77325864 77565656 77802888 78041472 
2744.426 78285392 78538096 78802120 79077944 79364608 79660616 79963240 
2747.801 80269656 80577008 80882072 81180672 81468840 81742416 81997616 
2751.177 82232960 82447752 82643416 82822088 82986904 83140680 83285872 
2754.552 83424496 83557776 83686440 83810200 83927640 84036872 84134584 
2757.927 84217680 84282896 84327312 84348360 84343808 84310936 84247128 
2761.302 84149632 84015968 83844520 83635464 83390088 83110992 82801560 
2764.677 82465296 82105608 81726256 81330968 80924144 80511160 80097496 
2768.053 79689080 79291464 78909432 78546840 78206432 77890408 77599968 
2771.428 77335920 77098872 76888480 76704296 76544992 76408944 76293720 
2774.803 76196880 76114800 76043536 75978648 75915224 75847672 75770576 
2778.178 75678072 75564456 75424104 75251848 75043696 74797176 74512368 
2781.554 74191440 73839272 73462952 73069656 72667248 72262080 71859088 
2784.929 71461424 71071072 70688720 70314128 69946184 69583328 69223528 
2788.304 68864152 68502736 68137288 67766376 67389816 67008248 66623428 
2791.679 66237480 65853180 65473504 65101200 64739212 64390592 64057880 
2795.055 63743724 63449740 63177304 62926628 62697692 62489808 62301600 
2798.430 62131516 61978280 61840724 61717680 61608232 61511336 61425980 
2801.805 61350680 61282988 61220800 61161556 61103008 61044276 60984600 
2805.180 60924320 60864968 60807716 60753448 60702156 60653576 60605912 
2808.556 60557532 60506492 60450584 60387716 60316404 60234636 60141124 
2811.931 60034732 59914680 59780852 59633648 59473844 59302964 59122740 
2815.306 58935416 58744116 58552632 58365440 58188224 58026788 57887368 
2818.681 57775968 57698192 57658956 57662096 57710380 57805036 57946168 
2822.057 58132116 58360064 58625816 58925096 59251884 59600312 59964392 
2825.432 60336772 60710268 61077036 61428692 61757712 62056976 62320532 
2828.807 62544488 62726712 62867036 62966736 63028252 63055680 63052656 
2832.182 63023768 62973016 62904724 62822812 62731764 62636180 62540852 
2835.558 62450744 62370140 62303168 62252840 62221752 62212496 62228404 
2838.933 62273912 62355416 62480736 62658728 62899208 63211144 63604264 
2842.308 64088108 64673216 65372536 66201552 67177464 68319128 69643072 
2845.683 71159440 72866736 74746640 76760944 78844632 80911848 82861464 
2849.059 84576920 85950600 86890168 87328272 87236392 86623248 85534424 
2852.434 84039528 82228760 80201976 78052256 75869728 73731944 71696824 
2855.809 69809232 68096048 66567772 65222196 64046436 63021472 62123604 
2859.184 61329844 60618488 59970020 59368376 58800300 58254752 57722756 
2862.560 57197532 56674456 56151252 55628156 55108016 54595788 54098876 
2865.935 53626256 53187112 52790876 52445656 52157424 51929988 51764216 
2869.310 51658144 51607132 51604336 51641052 51706476 51789452 51878980 
2872.685 51964756 52038968 52097088 52138072 52164264 52180028 52191128 
2876.061 52202448 52217808 52240040 52270276 52309404 52358704 52418816 
2879.436 52491272 52576868 52675800 52787548 52910964 53044336 53186552 
2882.811 53336904 53494544 53659288 53830808 54008552 54191848 54380136 
2886.186 54572832 54770308 54972728 55180396 55393696 55613312 55839300 
2889.562 56071964 56311540 56558872 56814692 57080524 57358244 57650404 
2892.937 57960632 58293440 58653312 59045488 59474260 59942632 60451268 
2896.312 60998248 61578184 62182060 62796736 63406488 63993224 64538336 
2899.687 65025836 65444760 65790488 66066040 66282020 66454464 66600828 
2903.063 66740716 66891164 67066676 67279896 67541760 67861504 68248280 
2906.438 68710304 69254696 69888424 70617600 71448728 72389192 73446744 
2909.813 74629288 75943752 77393856 78977864 80687160 82505608 84406984 
2913.188 86354800 88306520 90209416 92006784 93644784 95072152 96249816 
2916.563 97155440 97783144 98144272 98261912 98167856 97892808 97462704 
2919.939 96895432 96198088 95369112 94401568 93287496 92022600 90610872 
2923.314 89065280 87410432 85679408 83908704 82137432 80402016 78730936 
2926.689 77146912 75663920 74288176 73019672 71854312 70784528 69801328 
2930.064 68896304 68061632 67291848 66583760 65936476 65351084 64829796 
2933.440 64374952 63988416 63670976 63421248 63235900 63109824 63034960 
2936.815 63001172 62997608 63011512 63030744 63044996 63046604 63030852 
2940.190 62997380 62948772 62889672 62826300 62764764 62710016 62664928 
2943.565 62628984 62598176 62564464 62516592 62441984 62329252 62170016 
2946.941 61962496 61711956 61431212 61137032 60850328 60590600 60373092 
2950.316 60208296 60100408 60046944 60040900 60071564 60126472 60192008 
2953.691 60255492 60305936 60334372 60334868 60303724 60239584 60142876 
2957.066 60014760 59857624 59674208 59468064 59243680 59005744 58759708 
2960.442 58510704 58263200 58021032 57787320 57564484 57354652 57159776 
2963.817 56981308 56820432 56677740 56553284 56447016 56358808 56288640 
2967.192 56236216 56200692 56180404 56172520 56173536 56179912 56188436 
2970.567 56197296 56206044 56215736 56227204 56241720 56259824 56281552 
2973.943 56306824 56336284 56369824 56407548 56447884 56486524 56515660 
2977.318 56524864 56501508 56432452 56307200 56118976 55865864 55551668 
2980.693 55184988 54778428 54346004 53903240 53464560 53041304 52642320 
2984.068 52272144 51931296 51617168 51324452 51048552 50784708 50530700 
2987.444 50286032 50051244 49826204 49608232 49389660 49158916 48899776 
2990.819 48593948 48225204 47782200 47261580 46669412 46021352 45340092 
2994.194 44649428 43973212 43329088 42726204 42165892 41642724 41147112 
2997.569 40668400 40197736 39729836 39262512 38796628 38334000 37877104 
3000.945 37427876 36987300 36555964 36134528 35723432 35323504 34935400 
3004.320 34559412 34195396 33842972 33501606 33171128 32851518 32542958 
3007.695 32246042 31960774 31686958 31424072 31171062 30926634 30689454 
3011.070 30458444 30232746 30011886 29795610 29584088 29377312 29175702 
3014.446 28979216 28787564 28600702 28418060 28239772 28066012 27897444 
3017.821 27734840 27579076 27430390 27288600 27152784 27021840 26894424 
3021.196 26769020 26645060 26521244 26397250 26272552 26147364 26022560 
3024.571 25900398 25783578 25676212 25582014 25504210 25444340 25402112 
3027.947 25375098 25359008 25348330 25336670 25316824 25282616 25227938 
3031.322 25148160 25041268 24907272 24748626 24569978 24376968 24175178 
3034.697 23969668 23764392 23561944 23364238 23172914 22989328 22815000 
3038.072 22650936 22497506 22353970 22219198 22090952 21967556 21847538 
3041.448 21730236 21615578 21504152 21396478 21293288 21194886 21101204 
3044.823 21011784 20926452 20844090 20764594 20687406 20612700 20540784 
3048.198 20472320 20407650 20346880 20289140 20233072 20176526 20117732 
3051.573 20055510 19989344 19919784 19847914 19774634 19700638 19625998 
3054.948 19550744 19474848 19399134 19324650 19252842 19185410 19123150 
3058.324 19066540 19015166 18968124 18924792 18884784 18847894 18814468 
3061.699 18784678 18758834 18737142 18720122 18708222 18702168 18702272 
3065.074 18708258 18719188 18733406 18748766 18763436 18776168 18786234 
3068.449 18793570 18798172 18799626 18796962 18788934 18774126 18751844 
3071.825 18722440 18687122 18647828 18606706 18565792 18526512 18490136 
3075.200 18457394 18428632 18404054 18383070 18364334 18346500 18327180 
3078.575 18304646 18277896 18246796 18212586 18177068 18142276 18109354 
3081.950 18078990 18050528 18022516 17993608 17962460 17928238 17891432 
3085.326 17853140 17815096 17779748 17749098 17725040 17708162 17698672 
3088.701 17695426 17697188 17701950 17708404 17715376 17722312 17729008 
3092.076 17735256 17741262 17746922 17752720 17759416 17767806 17779506 
3095.451 17795454 17816408 17842058 17871508 17903308 17936008 17968538 
3098.827 18000206 18031012 18061340 18091356 18121272 18150636 18179140 
3102.202 18206436 18232110 18256506 18280280 18304126 18329496 18357492 
3105.577 18389224 18425416 18466210 18510744 18557322 18603836 18647758 
3108.952 18687052 18720780 18749078 18773192 18795162 18817446 18842636 
3112.328 18872428 18908110 18950334 18998586 19051412 19106912 19162418 
3115.703 19215092 19262818 19304488 19340204 19371488 19400104 19427580 
3119.078 19454574 19480564 19504026 19523780 19539100 19550466 19560034 
3122.453 19570432 19583916 19602598 19626380 19654286 19684828 19716174 
3125.829 19747102 19777270 19806818 19836436 19866646 19897724 19929394 
3129.204 19961518 19993506 20025218 20056274 20086812 20117072 20148064 
3132.579 20180414 20215436 20253762 20296118 20342192 20391398 20442624 
3135.954 20494480 20545926 20596022 20643936 20689250 20731612 20770780 
3139.330 20807242 20841728 20875830 20911570 20950930 20995128 21044268 
3142.705 21097378 21152514 21207726 21261760 21313924 21365258 21416668 
3146.080 21469756 21525146 21583086 21643124 21704460 21766710 21829978 
3149.455 21894580 21960900 22029284 22099670 22171634 22244344 22316854 
3152.831 22388682 22458950 22526926 22592224 22654392 22713216 22769080 
3156.206 22823346 22877304 22932874 22991982 23055500 23123848 23196752 
3159.581 23273374 23352456 23433092 23514372 23595876 23677642 23759912 
3162.956 23843318 23928666 24016624 24107190 24199946 24293880 24386990 
3166.332 24477880 24564966 24647652 24726176 24801314 24873658 24944120 
3169.707 25013010 25079844 25144404 25206376 25265794 25323076 25378926 
3173.082 25433764 25487590 25539984 25589920 25636878 25679796 25718290 
3176.457 25752392 25782770 25810476 25837096 25864386 25893998 25927620 
3179.833 25966242 26009720 26057496 26108092 26159750 26211308 26261992 
3183.208 26311520 26360772 26410208 26460492 26511698 26563720 26616172 
3186.583 26669124 26722928 26778146 26835242 26894636 26956330 27020112 
3189.958 27085348 27151478 27218464 27286308 27355044 27425026 27495902 
3193.333 27567390 27638924 27710152 27780652 27850560 27920200 27990024 
3196.709 28060534 28132186 28205262 28279838 28355946 28432988 28510326 
3200.084 28586936 28662072 28734992 28805762 28875200 28944364 29014708 
3203.459 29087334 29163266 29242256 29324136 29407556 29491024 29572842 
3206.834 29651662 29725918 29794970 29858534 29917346 29973330 30028858 
3210.210 30086346 30147818 30214062 30284470 30357412 30430724 30502378 
3213.585 30571268 30637576 30702114 30766982 30833604 30903186 30976092 
3216.960 31051784 31129164 31206948 31284034 31359498 31433332 31505794 
3220.335 31577516 31649570 31723030 31798568 31876046 31955034 32034534 
3223.711 32113622 32191514 32268062 32343444 32418306 32492928 32567386 
3227.086 32640964 32712660 32781582 32846906 32908772 32968216 33026628 
3230.461 33085160 33145272 33207394 33271350 33336602 33402476 33467926 
3233.836 33532028 33594456 33655104 33714400 33773344 33832872 33894124 
3237.212 33957428 34022392 34087868 34152348 34214580 34273876 34330672 
3240.587 34386332 34442932 34501472 34562608 34625540 34688776 34750616 
3243.962 34809880 34866428 34921072 34975080 35029708 35085676 35142936 
3247.337 35201108 35259788 35319048 35379648 35442848 35509688 35580852 
3250.713 35656020 35734224 35813884 35893520 35971624 36047616 36121496 
3254.088 36193732 36264828 36336012 36408068 36481576 36556508 36632352 
3257.463 36708168 36781984 36852744 36919080 36980772 37038752 37094364 
3260.838 37149724 37206504 37266284 37329652 37396708 37467132 37540608 
3264.214 37616660 37694604 37774188 37854508 37934592 38014364 38092852 
3267.589 38170444 38247328 38324012 38400488 38476836 38552544 38627068 
3270.964 38699872 38771672 38842864 38915556 38991448 39071996 39158104 
3274.339 39249712 39345756 39445204 39546592 39649132 39752456 39857260 
3277.715 39964232 40074756 40189484 40308608 40431260 40556416 40682628 
3281.090 40808944 40934944 41061120 41188204 41317660 41450072 41585912 
3284.465 41724896 41866480 42010228 42155812 42303892 42455344 42610984 
3287.840 42771360 42936400 43105420 43277544 43451748 43627676 43805136 
3291.216 43984980 44168124 44355752 44548824 44748368 44955140 45169392 
3294.591 45390852 45618940 45852412 46089512 46329096 46569628 46810884 
3297.966 47052940 47296456 47542368 47791632 48045004 48303080 48566824 
3301.341 48837112 49114688 49400464 49694820 49997968 50309584 50629240 
3304.717 50956848 51291824 51633888 51981932 52335008 52691396 53049728 
3308.092 53409480 53771440 54137496 54510428 54893088 55287032 55692372 
3311.467 56107476 56530000 56957428 57388344 57822712 58261004 58704628 
3314.842 59154176 59610612 60073544 60543172 61019412 61502976 61993876 
3318.218 62492292 62997148 63506768 64019100 64532652 65046696 65561964 
3321.593 66080160 66602452 67129824 67662056 68197688 68734952 69272032 
3324.968 69807600 70340392 70869704 71394592 71914288 72427520 72933672 
3328.343 73432304 73923640 74407040 74881696 75345832 75796888 76232384 
3331.719 76650288 77049328 77429608 77791312 78134000 78456640 78757152 
3335.094 79033072 79282992 79506680 79705272 79880952 80035616 80170176 
3338.469 80283808 80374104 80438184 80472800 80475984 80447032 80385744 
3341.844 80292696 80169056 80015544 79832848 79621408 79381200 79111256 
3345.219 78810184 78475536 78105288 77697832 77253184 76772888 76259952 
3348.595 75718152 75151496 74563352 73956480 73332608 72693608 72040600 
3351.970 71374872 70697328 70008392 69308568 68598576 67879592 67154688 
3355.345 66427476 65702440 64984084 64275316 63577952 62891968 62216932 
3358.720 61551992 60897180 60253172 59621332 59003084 58399668 57811320 
3362.096 57237752 56678344 56132476 55599984 55080704 54574672 54081308 
3365.471 53600208 53130680 52672172 52225020 51790052 51368120 50960424 
3368.846 50567368 50188500 49823008 49469000 49124668 48788136 48457748 
3372.221 48131728 47808392 47486548 47165020 46843656 46522496 46202632 
3375.597 45885188 45570764 45260064 44952640 44647780 44344488 44042148 
3378.972 43740344 43439040 43137952 42837140 42535516 42232128 41925632 
3382.347 41615012 41299840 40980200 40656828 40330936 40004124 39677956 
3385.722 39353664 39032084 38713600 38397884 38084276 37771656 37459188 
3389.098 37146224 36833088 36520716 36209868 35901868 35597140 35295580 
3392.473 34996668 34699828 34404268 34110160 33818044 33528912 33244022 
3395.848 32964532 32691226 32424234 32163862 31909422 31660512 31415988 
3399.223 31174908 30935778 30697348 30458588 30219176 29979258 29739720 
3402.599 29501414 29265154 29031218 28799636 28569666 28340810 28112460 
3405.974 27884690 27657780 27432332 27209186 26989330 26773354 26562384 
3409.349 26357042 26157850 25964764 25777074 25593154 25410998 25228428 
3412.724 25044426 24858254 24670832 24484120 24300362 24121620 23949218 
3416.100 23783816 23624248 23469324 23316898 23165402 23013538 22860504 
3419.475 22706060 22550762 22395624 22241588 22090048 21942148 21798900 
3422.850 21660782 21528176 21400690 21277698 21158462 21041520 20925480 
3426.225 20808982 20690916 20570834 20449360 20327504 20207072 20089552 
3429.601 19975778 19865536 19757540 19649676 19539862 19426888 19310724 
3432.976 19192546 19074504 18959160 18848482 18743406 18643850 18549368 
3436.351 18458466 18370384 18284256 18199490 18116022 18033534 17951374 
3439.726 17868814 17784994 17699328 17611570 17522038 17431250 17340512 
3443.102 17250864 17162784 17076378 16991022 16905478 16818432 16728513 
3446.477 16635546 16539985 16443551 16348204 16256146 16168475 16085051 
3449.852 16005047 15926328 15847212 15765876 15682047 15595420 15506887 
3453.227 15417032 15326269 15234324 15141507 15047200 14952159 14856967 
3456.603 14762620 14669937 14579604 14490969 14403791 14316835 14229212 
3459.978 14140649 14051042 13961009 13871268 13782641 13695844 13611355 
3463.353 13528967 13448544 13369502 13291190 13213031 13134544 13055867 
3466.728 12977305 12899510 12822819 12747473 12673062 12598800 12523595 
3470.104 12446835 12368077 12287834 12206413 12124972 12043616 11962717 
3473.479 11882243 11801613 11720691 11640124 11560151 11481758 11405692 
3476.854 11332191 11261116 11191820 11123284 11054588 10984374 10912438 
3480.229 10838239 10762115 10684817 10607804 10532706 10461083 10393714 
3483.604 10330596 10270982 10213174 10155476 10096293 10035559 9973341 
3486.980 9911098 9850321 9791892 9736045 9682070 9628744 9575188 9520792 
3490.837 9466098 9412393 9360996 9313668 9271186 9233378 9199161 9166909 
3494.695 9134897 9101534 9066177 9028962 8991142 8954035 8918927 8886730 
3498.552 8857409 8830121 8803476 8775649 8745762 8713239 8678488 8642693 
3502.409 8607171 8573205 8542116 8514644 8491565 8473928 8461900 8455819 
3506.267 8454637 8456900 8460211 8462373 8462035 8459062 8455245 8452879 
3510.124 8454805 8462340 8475685 8493018 8512075 8530119 8546272 8560566 
3513.982 8574422 8589495 8606968 8626672 8647763 8668314 8686771 8701712 
3517.839 8712732 8719865 8722908 8721927 8716180 8705025 8688427 8666488 
3521.697 8640090 8610212 8577768 8542690 8504574 8462170 8414366 8360453 
3525.554 8300501 8235019 8165428 8093047 8019192 7945417 7872363 7800301 
3529.411 7729363 7659111 7588769 7517832 7445828 7373094 7300070 7227192 
3533.269 7154697 7081878 7007622 6930484 6849253 6763864 6675060 6585029 
3537.126 6496093 6409799 6327186 6247580 6169737 6092109 6013790 5934846 
3540.984 5855884 5778110 5702432 5629487 5558802 5489672 5420989 5351881 
3544.841 5281812 5210513 5138555 5066877 4997222 4931331 4870645 4815863 
3548.698 4765946 4718446 4669410 4615290 4553041 4482229 4404769 4325381 
3552.556 4248751 4180030 4121823 4074126 4035029 4001387 3970856 3941531 
3556.413 3912476 3883758 3854840 3824721 3791964 3755165 3713056 3666439 
3560.271 3617222 3567843 3520808 3477786 3438977 3403276 3368480 3331951 
3564.128 3290784 3242711 3185464 3117545 3039026 2951147 2857882 2764705 
3567.986 2677548 2601675 2539713 2491956 2456034 2428211 2404588 2381299 
3571.843 2355413 2325298 2290588 2251752 2209821 2166796 2123941 2083587 
3575.700 2047066 2015508 1989078 1966910 1947306 1928368 1907834 1884439 
3579.558 1857484 1827038 1793765 1758965 1723835 1689639 1657841 1629404 
3583.415 1604793 1583642 1564488 1544503 1519697 1485750 1439306 1378739 
3587.273 1305785 1225533 1145761 1073742 1016083 976065 953749 946942 951292 
3591.612 962018 974570 985230 991108 990942 984699 973109 957369 938972 
3595.952 919680 900987 884419 871039 861643 855501 851484 847334 840429 
3600.292 828212 809290 783332 751832 717181 682202 649481 621044 597884 
3604.631 579768 565568 553193 539193 520449 493745 457623 412582 361709 
3608.971 309714 262069 222021 190761 166828 146444 125728 101998 75088 47351 
3613.792 22763 5467 -2186 -165 8979 21173 31909 37376 35653 26541 11994 
3619.096 -4605 -20277 -32735 -40852 -45755 -48869 -52182 -56953 -63513 
3623.436 -70967 -77129 -79514 -76201 -66660 -53110 -40222 -34955 -45126 
3627.776 -77228 -132714 -206409 -287276 -361639 -419340 -456909 -476206 
3631.633 -482958 -483653 -483851 -487194 -494806 -506191 -519231 -531773 
3635.490 -542231 -549974 -555832 -560498 -565825 -572377 -580650 -590113 
3639.348 -599941 -608676 -615293 -619528 -621282 -620984 -619562 -617411 
3643.205 -614929 -611720 -607419 -601363 -593687 -584720 -576216 -570789 
3647.063 -571384 -581775 -605268 -643416 -696349 -760290 -829215 -894161 
3650.920 -946535 -979562 -990240 -979463 -951560 -913240 -871742 -833349 
3654.778 -803750 -784766 -775571 -771866 -767732 -758008 -739749 -712889 
3658.635 -680371 -645931 -614201 -588492 -571550 -563542 -563542 -569531 
3662.492 -578929 -589088 -597492 -602091 -600205 -589088 -565594 -527405 
3666.350 -473260 -403947 -321579 -229028 -126884 -11397 127982 307460 546458 
3670.689 859551 1254475 1730854 2283827 2905846 3585917 4305436 5023634 
3674.547 5672185 6161940 6398400 6325236 5946099 5318438 4524078 3644386 
3678.404 2753067 1907335 1154431 529904 49306 -291018 -513207 -647916 
3682.262 -727444 -777125 -811191 -835002 -849256 -853555 -849685 -842377 
3686.119 -838210 -843369 -861656 -893434 -935492 -982967 -1030801 -1075820 
3689.977 -1115911 -1150247 -1177807 -1197865 -1209991 -1214782 -1214419 
3693.352 -1211379 -1208802 -1208603 -1211742 -1217723 -1225884 -1234871 
3696.727 -1243792 -1252051 -1259452 -1265465 -1270189 -1273394 -1275244 
3700.102 -1276202 -1277391 -1279109 -1281587 -1283999 -1284990 -1283602 
3703.478 -1279373 -1272667 -1264342 -1255520 -1246732 -1237977 -1228725 
3706.853 -1218879 -1208802 -1200442 -1195948 -1198459 -1210619 -1233880 
3710.228 -1268471 -1312772 -1364335 -1419393 -1473090 -1520242 -1555769 
3713.603 -1575412 -1577228 -1560952 -1529025 -1485473 -1436005 -1385804 
3716.979 -1340024 -1302498 -1274781 -1257073 -1248021 -1245543 -1247096 
3720.354 -1249408 -1250300 -1247360 -1239860 -1228527 -1215674 -1205068 
3723.729 -1200211 -1203878 -1216599 -1236688 -1260773 -1284692 -1304183 
3727.104 -1315811 -1318289 -1311220 -1295991 -1274517 -1250036 -1226280 
3730.479 -1207083 -1196411 -1196444 -1206951 -1225719 -1248946 -1273625 
3733.855 -1298633 -1325094 -1354822 -1388942 -1425470 -1459518 -1484911 
3737.230 -1496898 -1494454 -1479496 -1455819 -1427022 -1395250 -1360239 
3740.605 -1321031 -1277028 -1230741 -1187952 -1158311 -1151834 -1174932 
3743.980 -1224628 -1287170 -1340850 -1368233 -1364005 -1334607 -1293249 
3747.356 -1254133 -1229023 -1224430 -1240554 -1271742 -1309237 -1344418 
3750.731 -1371767 -1390032 -1400403 -1404102 -1401063 -1390891 -1373253 
3754.106 -1349604 -1322947 -1296750 -1274418 -1258031 -1248021 -1244320 
3757.481 -1246600 -1254728 -1269099 -1289185 -1312706 -1335268 -1350793 
3760.857 -1353798 -1342072 -1317463 -1285452 -1253968 -1230906 -1221126 
3764.232 -1226247 -1243329 -1266885 -1290242 -1308213 -1318487 -1321427 
3767.607 -1319412 -1315283 -1311583 -1310394 -1312607 -1318850 -1328562 
3770.982 -1340322 -1351817 -1361495 -1367770 -1370512 -1370875 -1370314 
3774.358 -1370347 -1371536 -1372725 -1371536 -1366449 -1356441 -1343063 
3777.733 -1329388 -1319577 -1316802 -1321790 -1332064 -1343922 -1353435 
3781.108 -1358786 -1360438 -1360669 -1362221 -1366284 -1372527 -1378406 
3784.483 -1380222 -1375268 -1362254 -1341907 -1316934 -1290507 -1265696 
3787.859 -1245179 -1231831 -1226974 -1232029 -1246831 -1269727 -1296618 
3791.234 -1322220 -1341214 -1350297 -1348679 -1339760 -1328826 -1322088 
3794.609 -1323905 -1335268 -1353633 -1372725 -1385441 -1387026 -1375929 
3797.984 -1355186 -1330478 -1309006 -1298204 -1302961 -1324895 -1360206 
3801.360 -1400766 -1434453 -1450106 -1442147 -1410806 -1362221 -1305438 
3804.735 -1251192 -1209066 -1185870 -1184019 -1200211 -1225884 -1250598 
3808.110 -1266093 -1268207 -1257437 -1236787 -1209462 -1178600 -1145456 
3811.485 -1111119 -1076713 -1044321 -1017413 -1000125 -996455 -1008852 
3814.861 -1036949 -1075920 -1117101 -1150148 -1166506 -1162474 -1139672 
3818.236 -1103980 -1064979 -1032751 -1017480 -1026504 -1061773 -1116638 
3821.611 -1178038 -1231137 -1264969 -1275541 -1266059 -1243957 -1217789 
3824.986 -1194131 -1176386 -1164358 -1155369 -1146050 -1134715 -1121959 
3828.362 -1111152 -1105434 -1107186 -1115845 -1128106 -1138384 -1140961 
3831.737 -1131609 -1109400 -1075920 -1034834 -990339 -947262 -909305 -880769 
3835.594 -865955 -868435 -890458 -931161 -985744 -1045973 -1102261 -1146645 
3839.452 -1174569 -1185672 -1182995 -1171727 -1156790 -1142977 -1133757 
3842.827 -1131774 -1137855 -1151239 -1169513 -1187985 -1201631 -1206125 
3846.202 -1197997 -1177344 -1145951 -1107748 -1066632 -1025182 -984785 
3849.577 -945146 -905833 -868072 -835763 -816185 -819360 -853555 -921175 
3853.435 -1013909 -1114655 -1204242 -1269000 -1304646 -1314193 -1303820 
3856.810 -1279506 -1246600 -1209165 -1170438 -1134021 -1103550 -1081142 
3860.185 -1068086 -1063294 -1063327 -1064054 -1061773 -1055162 -1045940 
3863.561 -1037809 -1034603 -1037974 -1046337 -1055890 -1061277 -1060120 
3866.936 -1052584 -1043032 -1036586 -1038536 -1050469 -1070036 -1089669 
3870.311 -1100972 -1098494 -1082199 -1057509 -1032487 -1015265 -1011331 
3873.686 -1021744 -1043362 -1069574 -1093800 -1110491 -1117828 -1116836 
3877.062 -1111482 -1105434 -1102691 -1105434 -1114060 -1126751 -1139705 
3880.437 -1148132 -1147471 -1135013 -1110491 -1076977 -1040057 -1005546 
3883.812 -980289 -968917 -972686 -988753 -1009976 -1027892 -1035330 -1028950 
3887.669 -1010174 -983992 -956618 -934764 -923920 -926829 -943691 -971760 
3891.527 -1005943 -1039990 -1067987 -1085901 -1091156 -1083059 -1062104 
3894.902 -1030504 -991596 -949279 -908644 -873925 -848991 -836094 -835565 
3898.760 -845585 -862450 -882489 -902064 -918960 -933475 -946766 -961313 
3902.617 -979298 -1001249 -1026206 -1051196 -1072846 -1088182 -1095089 
3905.992 -1093999 -1086265 -1074399 -1060087 -1044684 -1027694 -1008125 
3909.367 -984719 -956718 -924548 -889731 -854943 -822667 -795052 -773256 
3913.225 -757346 -747159 -742329 -743123 -750036 -763267 -782715 -806363 
3917.082 -831265 -854018 -871841 -883051 -887548 -886688 -882291 -875876 
3920.940 -868601 -861028 -853356 -846114 -840128 -836358 -835928 -838938 
3924.797 -844626 -851438 -857523 -861359 -862219 -860367 -857027 -852827 
3928.655 -848660 -844361 -840029 -835201 -830339 -825908 -822965 -822402 
3932.512 -824155 -827826 -831861 -834573 -834837 -831861 -825908 -817739 
3936.369 -808446 -798987 -790256 -782847 -777489 -774546 -774711 -778018 
3940.227 -784832 -794754 -806792 -819757 -832125 -841914 -848032 -849454 
3944.084 -846312 -839434 -830670 -822039 -815689 -813308 -815590 -821873 
3947.942 -830406 -838839 -844990 -847205 -845089 -839533 -831596 -822667 
3951.799 -813969 -806065 -799153 -793497 -789330 -786684 -785758 -786320 
3955.656 -787412 -787875 -786684 -783112 -777390 -770345 -763135 -757214 
3959.514 -753212 -751426 -751558 -752980 -755461 -758372 -761481 -764425 
3963.371 -766475 -767269 -766177 -763002 -758206 -752252 -746166 -740312 
3967.229 -735052 -729826 -724136 -717686 -710342 -702601 -695324 -688906 
3971.086 -683745 -679808 -676533 -673754 -671538 -669917 -669454 -670049 
3974.944 -671008 -671372 -669553 -664392 -655492 -643218 -628826 -614201 
3978.801 -601264 -591338 -585315 -583297 -584521 -588260 -593224 -597955 
3982.658 -601264 -602522 -601430 -598749 -595639 -593621 -593521 -595705 
3986.516 -599246 -602621 -604209 -602720 -597724 -589849 -580947 -572907 
3990.373 -566950 -563641 -563079 -564833 -568142 -572443 -577870 -584488 
3994.231 -592297 -601231 -611091 -621381 -632035 -642689 -653011 -663068 
3998.088 -672365 -680569 -686921 -691189 -692776 -692115 
##END=
