
##TITLE=Z240_1_b
##JCAMP-DX=5.01  $$ Nicolet v. 1
##DATATYPE=INFRARED SPECTRUM
##ORIGIN=UniL
##OWNER=Nicolet
##LONGDATE=2011/09/09
##TIME=11:12:53
##SPECTROMETER/DATA SYSTEM=Nicolet iS5
##DATA PROCESSING=
Ratio against background
%Transmittance->Absorbance
Truncated
ElementMultiply or ElementDivide
##COMMENTS=
Number of sample scans: 32
Collection length: 51.21 sec
Sample gain: 2.0
Background collected on: Ven Sep 09 11:02:15 2011 (GMT+02:00);
Number of background scans: 32
Background gain: 2.0
Sample spacing:  1.000
Number of scan points: 12415
Resolution points: 8192
Number of FFT points: 65536
Apodization: N-B fort;
Phase correction: Mertz;
Laser frequency: 15798.0 cm-1
Number of rejected sample scans: 0
Number of rejected background scans: 0
Bench serial number: ASB1000141;
##RESOLUTION=4.000
##XUNITS=1/CM
##YUNITS=ABSORBANCE
##FIRSTX=649.893372
##LASTX=4000.122314
##FIRSTY=0.088797
##MAXX=4000.122314
##MINX=649.893372
##MAXY=0.295626
##MINY=-0.002118
##XFACTOR=1.000000
##YFACTOR=1.000000E-009
##NPOINTS=6950
##DELTAX=0.482117
##ZPD=6100
##XYDATA=(X++(Y..Y))
649.893 88796536 88471288 88205744 88035888 87973728 88004888 88098104 
653.268 88223528 88370072 88551072 88797672 89141672 89602288 90175000 
656.643 90839160 91570040 92356784 93204744 94133496 95160952 96295440 
660.018 97530560 98853776 100259280 101756592 103366424 105110504 106990672 
663.393 108981928 111030360 113075000 115063288 116950912 118703312 
666.285 120274168 121584592 122529960 123010200 122985792 122501800 
669.178 121655272 120534432 119183352 117604736 115785856 113725648 
672.071 111456640 109047472 106582392 104148536 101808320 99592272 97511312 
675.446 95567592 93767056 92120696 90639120 89322064 88155208 87111168 
678.820 86156488 85259752 84400544 83567656 82758304 81971248 81205032 
682.195 80455928 79721240 79001152 78299800 77623696 76979304 76369128 
685.570 75791400 75241008 74712368 74201736 73708272 73231176 72769216 
688.945 72316672 71864552 71401816 70918592 70409240 69874568 69320064 
692.320 68753744 68182648 67611560 67041344 66471456 65901228 65332444 
695.694 64770980 64226912 63712420 63241876 62828212 62480508 62202900 
699.069 61993416 61844504 61744876 61683120 61648712 61634312 61635228 
702.444 61649476 61676128 61714972 61766040 61830104 61907928 61999952 
705.819 62105980 62224468 62353040 62490188 62636340 62796004 62978872 
709.194 63198300 63473440 63828580 64292260 64899504 65684168 66673376 
712.569 67874912 69264264 70775288 72294752 73686440 74805400 75528104 
715.943 75788528 75585080 74987336 74113768 73125096 72197008 71491192 
719.318 71160800 71328680 72069552 73401736 75259376 77487584 79826440 
722.693 81957920 83556856 84334272 84128312 82932080 80904696 78319160 
726.068 75507488 72790096 70390816 68435592 66948100 65881832 65154820 
729.443 64681328 64395204 64245044 64192688 64207396 64258300 64319812 
732.817 64375760 64422064 64466112 64520464 64595932 64695752 64814172 
736.192 64941480 65069632 65196356 65325892 65464444 65615684 65777152 
739.567 65941028 66098220 66243500 66379680 66516868 66668624 66844164 
742.942 67045832 67267056 67495864 67718664 67925472 68110776 68272784 
746.317 68410384 68521168 68602336 68653296 68678248 68688184 68697848 
749.692 68721368 68768336 68840200 68931528 69034328 69142984 69256760 
753.066 69380600 69520952 69682864 69866784 70069280 70285072 70510520 
756.441 70745096 70990760 71248520 71517088 71790592 72062000 72326296 
759.816 72583784 72840880 73107016 73391104 73696376 74020840 74360448 
763.191 74714720 75093120 75518528 76024632 76656256 77464456 78497768 
766.566 79802744 81409056 83315904 85471808 87763112 90020144 92024568 
769.940 93573792 94537192 94907952 94828888 94568208 94459880 94770856 
773.315 95625072 96927656 98384368 99542272 99916248 99159504 97132936 
776.690 93969320 90002856 85699312 81513176 77776688 74689576 72290016 
780.065 70503624 69189728 68201792 67422056 66768228 66199660 65701864 
783.440 65274060 64922364 64655916 64488524 64435556 64514428 64740248 
786.815 65122908 65668524 66381300 67266784 68336112 69605536 71093200 
790.189 72818936 74800480 77054312 79601232 82468344 85688776 89300208 
793.564 93331200 97788872 102641880 107814968 113181112 118559280 123744952 
796.939 128512936 132646512 135986192 138449056 140066320 140980176 
799.832 141444464 141775632 142271456 143178384 144605888 146492928 
802.724 148585152 150473104 151678176 151710320 150229392 147121616 
805.617 142540880 136869856 130628648 124366696 118492760 113231944 
808.510 108594832 104422360 100458672 96446760 92224792 87747216 83093056 
811.885 78412304 73886168 69668352 65852256 62478404 59538972 56999972 
815.259 54817896 52952396 51370100 50039272 48931372 48018172 47272664 
818.634 46673580 46205804 45860624 45634064 45523444 45526716 45642164 
822.009 45870052 46214616 46684168 47289804 48043560 48953920 50024512 
825.384 51250660 52619056 54102704 55660996 57239640 58767560 60169968 
828.759 61379912 62350440 63074380 63591568 63994488 64408540 64985388 
832.133 65882756 67225968 69097184 71502048 74356232 77464104 80523248 
835.508 83177960 85027432 85723088 85050248 82961040 79606408 75287072 
838.883 70415864 65407164 60610332 56291700 52591192 49546948 47122324 
842.258 45238888 43802752 42721964 41922056 41340436 40926492 40643004 
845.633 40461300 40362680 40337080 40378024 40479700 40633180 40826272 
849.008 41046040 41283660 41536508 41809968 42113716 42458596 42851404 
852.382 43294420 43786480 44326324 44916004 45562156 46274320 47062096 
855.757 47933320 48892952 49945364 51098084 52363416 53761540 55318456 
859.132 57062880 59027872 61249296 63764408 66614120 69831056 73426216 
862.507 77366176 81554792 85822472 89911920 93523776 96344912 98088656 
865.882 98569048 97720232 95618544 92459832 88539088 84203008 79772160 
869.256 75535640 71709800 68421472 65733044 63646772 62126284 61109112 
872.631 60520928 60284844 60316516 60532812 60854104 61201228 61510840 
876.006 61739836 61870216 61912136 61900136 61885424 61919012 62043136 
879.381 62278960 62619760 63031048 63455612 63829920 64090604 64192376 
882.756 64118632 63883236 63528128 63109824 62691988 62327800 62052044 
886.131 61882748 61822652 61867964 62016884 62273680 62648928 63156420 
889.505 63804896 64594544 65512724 66537796 67640992 68792328 69966928 
892.880 71143120 72303832 73435200 74523824 75556456 76520136 77400496 
896.255 78180728 78842008 79359792 79708824 79867136 79820736 79570152 
899.630 79132648 78541872 77840144 77074808 76293248 75534888 74834536 
903.005 74221616 73719192 73347792 73124472 73062096 73170624 73457336 
906.379 73927488 74586728 75441136 76497104 77760320 79234520 80920712 
909.754 82817640 84923360 87236672 89757288 92484600 95415056 98539736 
913.129 101845392 105316400 108941312 112720328 116669728 120823960 
916.022 125227632 129932224 134981136 140397280 146169632 152238496 
918.914 158488336 164720928 170664416 175995072 180339520 183363712 
921.807 184837184 184693488 183080768 180362048 177103024 173942400 
924.700 171547808 170526464 171293696 174057904 178755216 185067616 
927.593 192406208 199975120 206928528 212388480 215630048 216197312 
930.485 213902544 208845568 201335808 191839200 180884608 169009376 
933.378 156763152 144634128 133043424 122350128 112798208 104541880 97655088 
936.753 92137528 87948488 85024048 83294752 82682896 83091688 84395760 
940.128 86405776 88863248 91468352 93869200 95730512 96791120 96879616 
943.502 95960024 94121640 91564520 88544768 85327856 82163896 79234232 
946.877 76653728 74475008 72697640 71289312 70202032 69387944 68803080 
950.252 68409720 68177880 68079112 68087288 68180824 68341152 68555856 
953.627 68818568 69126552 69477864 69869472 70295752 70749424 71224200 
957.002 71715664 72222552 72745664 73285656 73841272 74409400 74985600 
960.377 75567224 76154752 76752880 77367992 78006376 78670928 79360632 
963.751 80071160 80797648 81537040 82289264 83056512 83841184 84644320 
967.126 85464144 86297968 87143360 88000592 88873128 89766088 90683464 
970.501 91626256 92591368 93573632 94568008 95572424 96588520 97620952 
973.876 98674704 99752880 100855800 101982312 103131760 104306152 105510312 
977.251 106749672 108028984 109349296 110708648 112103360 113532472 
980.143 114998944 116510760 118078056 119709496 121409368 123176584 
983.036 125005368 126887592 128814056 130773472 132748288 134713696 
985.929 136631936 138456496 140140528 141640544 142926896 143988064 
988.821 144829760 145472976 145948400 146297648 146568096 146810736 
991.714 147081456 147430128 147896432 148505856 149265488 150168656 
994.607 151200144 152345248 153594048 154943056 156393136 157944112 
997.500 159591856 161327184 163138752 165016368 166954352 168949232 
1000.392 170996496 173085296 175194944 177296560 179360512 181360048 
1003.285 183280976 185121968 186893136 188610528 190294016 191966096 
1006.178 193652112 195383008 197195968 199125904 201202288 203440656 
1009.070 205839648 208382048 211041792 213792480 216609376 219470592 
1011.963 222353920 225228848 228057248 230799200 233417648 235890704 
1014.856 238214384 240398944 242457904 244396672 246204176 247853920 
1017.748 249310560 250541776 251530208 252278176 252809904 253165328 
1020.641 253402112 253594192 253823728 254188144 254787200 255705232 
1023.534 257007952 258726336 260855936 263361904 266190736 269283232 
1026.427 272573312 275993664 279466464 282890304 286149152 289112512 
1029.320 291645440 293633952 294984512 295626240 295511552 294606080 
1032.213 292891872 290375008 287094144 283126496 278575712 273566912 
1035.106 268222416 262642144 256909344 251085488 245220240 239364912 
1037.999 233572624 227898192 222399728 217129696 212136496 207467040 
1040.892 203158416 199233664 195686656 192469536 189477232 186545632 
1043.785 183482800 180078448 176152112 171598960 166398304 160627088 
1046.678 154433040 148020992 141607728 135386512 129526272 124142576 
1049.571 119298768 115017032 111281336 108051552 105271344 102882296 
1052.464 100828264 99058264 97532224 96215704 95076768 94085224 93207168 
1055.840 92405520 91645088 90891568 90116280 89299928 88430584 87505104 
1059.215 86528496 85515136 84488280 83479264 82528680 81679784 80973968 
1062.590 80449424 80133512 80043392 80185400 80555752 81140128 81911992 
1065.965 82833392 83850664 84895032 85894304 86773096 87467416 87936072 
1069.341 88160848 88148960 87925768 87529544 87001928 86380144 85697656 
1072.716 84979328 84242864 83501872 82766520 82046048 81352624 80700528 
1076.091 80107296 79592440 79172488 78859088 78655160 78554664 78542664 
1079.466 78599088 78703136 78833784 78971944 79100768 79202664 79261280 
1082.842 79264856 79209584 79105536 78978816 78874504 78849352 78966584 
1086.217 79292656 79884456 80786992 82029040 83617144 85532000 87722808 
1089.592 90112320 92591824 95030952 97304528 99294744 100916488 102128416 
1092.967 102930080 103357816 103468472 103332712 103019080 102586488 
1095.860 102089312 101574192 101084440 100665840 100360592 100204112 
1098.753 100215712 100386856 100671648 100979192 101187784 101147336 
1101.646 100702640 99732496 98159720 95976096 93241376 90078080 86648736 
1105.022 83121264 79664800 76418744 73481824 70919832 68760648 67004696 
1108.397 65632796 64614848 63914940 63493340 63311488 63329852 63506000 
1111.772 63797876 64158692 64537460 64884996 65152936 65300592 65301984 
1115.147 65145924 64837484 64394548 63844508 63218460 62545636 61854020 
1118.523 61166820 60502304 59875732 59297992 58776852 58317200 57921180 
1121.898 57588772 57317484 57101728 56930912 56786936 56645952 56477732 
1125.273 56249984 55937580 55525460 55015524 54426140 53791016 53152136 
1128.648 52549608 52019060 51583400 51251440 51019376 50873024 50791748 
1132.024 50749292 50719536 50678724 50607016 50494520 50341320 50158488 
1135.399 49964992 49784584 49641624 49554192 49533468 49581080 49689952 
1138.774 49845012 50024772 50204460 50356016 50452168 50469848 50391104 
1142.149 50206728 49915664 49524372 49044316 48489500 47876236 47220060 
1145.525 46537208 45844164 45156084 44486564 43846148 43240060 42669064 
1148.900 42129780 41617784 41128900 40661996 40218528 39802388 39417768 
1152.275 39067936 38754896 38479336 38241936 38043840 37886828 37772672 
1155.650 37701940 37673680 37685316 37733848 37816696 37932784 38082432 
1159.026 38266220 38484004 38734536 39015372 39323920 39657988 40016076 
1162.401 40396312 40795188 41205984 41617492 42015704 42385932 42713300 
1165.776 42986512 43197420 43340840 43414180 43417256 43352448 43224796 
1169.151 43042852 42818636 42565120 42296404 42025596 41763636 41520396 
1172.527 41306216 41130720 41005652 40942624 40951764 41041668 41218112 
1175.902 41485068 41846488 42307908 42876860 43563676 44378876 45332512 
1179.277 46433544 47689744 49109272 50702296 52480428 54457164 56646408 
1182.652 59059644 61705960 64590320 67711888 71060384 74610176 78317816 
1186.028 82109928 85884448 89521136 92875936 95804616 98179872 99891312 
1189.403 100867424 101078456 100538480 99303072 97462216 95135336 92448400 
1192.778 89529072 86499376 83457904 80486160 77644536 74968784 72477040 
1196.153 70171464 68042328 66073292 64244972 62540204 60944072 59446104 
1199.529 58039852 56721196 55487020 54334512 53259700 52258652 51327996 
1202.904 50466756 49676320 48961224 48327336 47779536 47319696 46945236 
1206.279 46649420 46422372 46253052 46132360 46052412 46007428 45992288 
1209.654 46001496 46029052 46069872 46121232 46184320 46264920 46373152 
1213.030 46521420 46722320 46987952 47328048 47750284 48260604 48861956 
1216.405 49554896 50335888 51198576 52134112 53133000 54188432 55296440 
1219.780 56456376 57669852 58939440 60267980 61658792 63117372 64652644 
1223.155 66276228 68002648 69844992 71811576 73903136 76110920 78416824 
1226.531 80792144 83200752 85598416 87931328 90144576 92180624 93986064 
1229.906 95520856 96759072 97693592 98335496 98716504 98888848 98920800 
1233.281 98904456 98947856 99163752 99674472 100592440 102011480 104009496 
1236.656 106638472 109927488 113885488 118502904 123751072 129575656 
1239.549 135901232 142621952 149600496 156689440 163723904 170533776 
1242.442 176961920 182850656 188051456 192437072 195896064 198348288 
1245.335 199750032 200090624 199390144 197692016 195063328 191589616 
1248.229 187371856 182528256 177172416 171402672 165291200 158872896 
1251.122 152154096 145126592 137790144 130170088 122332208 114376272 
1254.015 106437152 98668808 91214056 84208032 77754296 71912528 66706644 
1257.390 62120928 58111584 54613748 51553960 48860324 46461572 44298144 
1260.765 42322080 40495160 38792396 37198524 35704368 34305072 32996420 
1264.140 31773400 30630500 29562344 28565030 27636770 26776810 25984182 
1267.516 25256418 24589054 23976774 23415396 22903744 22443946 22040996 
1270.891 21700768 21427772 21224322 21091256 21029000 21039816 21127954 
1274.266 21297882 21552618 21890258 22302276 22772956 23279036 23793512 
1277.641 24284172 24716426 25058290 25280510 25363540 25301440 25103926 
1281.017 24795000 24406338 23972958 23523326 23074892 22634564 22201030 
1284.392 21770924 21343540 20924088 20523380 20154834 19829880 19556706 
1287.767 19338956 19177204 19071596 19022784 19031506 19097562 19217620 
1291.142 19386420 19596326 19839972 20112110 20408450 20724556 21053658 
1294.518 21384854 21704494 22000040 22262932 22493144 22699320 22898190 
1297.893 23109032 23351930 23645240 24003562 24439180 24960506 25569396 
1301.268 26256818 26998462 27755468 28472964 29089246 29548654 29804516 
1304.643 29830848 29623922 29200510 28593340 27844872 27005760 26125896 
1308.019 25251922 24426702 23680896 23033730 22491924 22051246 21701186 
1311.394 21429268 21226306 21086178 21005872 20982608 21011644 21086040 
1314.769 21198332 21342706 21516512 21719994 21953580 22215118 22497612 
1318.144 22789892 23080272 23360288 23627642 23886132 24143442 24406514 
1321.520 24678196 24955664 25231834 25499328 25752498 25990514 26216832 
1324.895 26439610 26670322 26922378 27212928 27560858 27983028 28491856 
1328.270 29088148 29758918 30475470 31200042 31894728 32527282 33080906 
1331.645 33554688 33960976 34318664 34647612 34964920 35281960 35607392 
1335.021 35948476 36311732 36703304 37127960 37587824 38083516 38615808 
1338.396 39187620 39804892 40475012 41203288 41990700 42831692 43716120 
1341.771 44630704 45562668 46499924 47428928 48334592 49198620 50000640 
1345.146 50723520 51355924 51895188 52345248 52710740 52990244 53170072 
1348.521 53221196 53102820 52774152 52200804 51367824 50285180 48989304 
1351.897 47538372 46001828 44459548 42986328 41647216 40497268 39571416 
1355.272 38884352 38428800 38178692 38093860 38128048 38241324 38401464 
1358.647 38588032 38791200 39007324 39237560 39487548 39770396 40108772 
1362.022 40531788 41072916 41757548 42592820 43563528 44632872 45750348 
1365.398 46854396 47883928 48778680 49477580 49928784 50091512 49942724 
1368.773 49483336 48737644 47750428 46573652 45264036 43875808 42454324 
1372.148 41045784 39698176 38461520 37391688 36538376 35933180 35582688 
1375.523 35466756 35549636 35792004 36167192 36668440 37309864 38122512 
1378.899 39149620 40444788 42063996 44066860 46505860 49404956 52734080 
1382.274 56377256 60137088 63721128 66784652 69000688 70069824 69790824 
1385.649 68099232 65103656 61095496 56493996 51792588 47410192 43617856 
1389.024 40533100 38134920 36326752 34981188 33980720 33226422 32640394 
1392.400 32169070 31773682 31429700 31126780 30864552 30649914 30490364 
1395.775 30389606 30345190 30350520 30396750 30476678 30586022 30723556 
1399.150 30890558 31089192 31321746 31589382 31891734 32227020 32592386 
1402.525 32984908 33401758 33842112 34307224 34799652 35321276 35871348 
1405.901 36445940 37039148 37646072 38266036 38903232 39566264 40264768 
1409.276 41005360 41790704 42618808 43485992 44387904 45319756 46272112 
1412.651 47224492 48144016 48987340 49707304 50271452 50671240 50930472 
1416.026 51098828 51246184 51450288 51778292 52282456 52985372 53874656 
1419.402 54904292 56006516 57112872 58163064 59117500 59960472 60700556 
1422.777 61374956 62046500 62798076 63705780 64817868 66141352 67643512 
1426.152 69269704 70961544 72678168 74393984 76095960 77778032 79433664 
1429.527 81057424 82650064 84228144 85825504 87484600 89250600 91155648 
1432.903 93216528 95438912 97831288 100419256 103250248 106388000 109887848 
1436.278 113766120 117969656 122389784 126904312 131411064 135837040 
1439.171 140112576 144154352 147827424 150945936 153314016 154732112 
1442.064 155046352 154176880 152116112 148934336 144763504 139801808 
1444.957 134283568 128447504 122542432 116788552 111375440 106471784 
1447.850 102196072 98604600 95675952 93323440 91422048 89848920 88526616 
1451.225 87435968 86613824 86120976 86011664 86299064 86949992 87887960 
1454.601 89015536 90241392 91481888 92684504 93836096 94972440 96160336 
1457.976 97469264 98964912 100688984 102666096 104908216 107409904 110143752 
1461.351 113049216 116042928 118999200 121748496 124106584 125884264 
1464.244 126948520 127275168 126970264 126236080 125288768 124319352 
1467.137 123452104 122748064 122231176 121895792 121713856 121625104 
1470.030 121532256 121298168 120748608 119725344 118141072 116034960 
1472.923 113572536 110986336 108491240 106220536 104238328 102570544 
1475.816 101234512 100259456 99677432 99500440 99708232 100243672 101031128 
1479.192 101989184 103056136 104202648 105430424 106767968 108255400 
1482.085 109936200 111848312 114028840 116525104 119395416 122707528 
1484.978 126518872 130851344 135654816 140772464 145952256 150824144 
1487.871 154934160 157820384 159037312 158266000 155409152 150634640 
1490.764 144361376 137130000 129491720 121862840 114482176 107464640 
1493.657 100823616 94542424 88636648 83167288 78249960 74027712 70616904 
1497.032 68068800 66355548 65400308 65103816 65374076 66139652 67339096 
1500.407 68913272 70801376 72929440 75215400 77576832 79910824 82097640 
1503.783 83991000 85379520 85995384 85534096 83732320 80522448 76143656 
1507.158 71100224 65924712 60978768 56398344 52166056 48217024 44505432 
1510.533 41020148 37791680 34866640 32277196 30034468 28120942 26501416 
1513.908 25135276 23985354 23020628 22210550 21526468 20943768 20445886 
1517.284 20030804 19707364 19486422 19370412 19347132 19389122 19465524 
1520.659 19552894 19651374 19785386 19992048 20297230 20700856 21182362 
1524.034 21712436 22269662 22846814 23455822 24119730 24863202 25697864 
1527.409 26618568 27607992 28647100 29723754 30836842 31995300 33213296 
1530.785 34504484 35879804 37345212 38900516 40538264 42241552 43983772 
1534.160 45731168 47452212 49120700 50719352 52230740 53637280 54923392 
1537.535 56068452 57054600 57865676 58489280 58911016 59115640 59097532 
1540.910 58867872 58458232 57911904 57264476 56531244 55702768 54757452 
1544.286 53678748 52476880 51193504 49892172 48631008 47435432 46294484 
1547.661 45167592 44009252 42791980 41527904 40266184 39078448 38022032 
1551.036 37116952 36344836 35664076 35034200 34433352 33867724 33363224 
1554.411 32947768 32629642 32389100 32178882 31937916 31594906 31076664 
1557.787 30324440 29318110 28112354 26835666 25637228 24614196 23787176 
1561.162 23123604 22570446 22074570 21589808 21083152 20539256 19965056 
1564.537 19386904 18841044 18359946 17956174 17620544 17326652 17045502 
1567.912 16754959 16450193 16144229 15863191 15632756 15465923 15360732 
1571.288 15305092 15285700 15291878 15316555 15352768 15390014 15414354 
1574.663 15411848 15376454 15318066 15263529 15247502 15293353 15404226 
1578.038 15565541 15755808 15957091 16159844 16365509 16581912 16819122 
1581.413 17083512 17375930 17691700 18024348 18366858 18712304 19052000 
1584.789 19371452 19651338 19870668 20011340 20066510 20043920 19968004 
1588.164 19873790 19800748 19787916 19864944 20052804 20363928 20801298 
1591.539 21356628 22005514 22707106 23400184 24010740 24468906 24714462 
1594.914 24714778 24470168 24013332 23400848 22696876 21968044 21268686 
1598.290 20640044 20114712 19715374 19457002 19347062 19384688 19562252 
1601.665 19868412 20292542 20825528 21458370 22178678 22965990 23787946 
1605.040 24605324 25370250 26033712 26553224 26891888 27025084 26942120 
1608.415 26645308 26149298 25477822 24664940 23751828 22785876 21819352 
1611.791 20897524 20053532 19303622 18645406 18063446 17534942 17038266 
1615.166 16556714 16084157 15628153 15207729 14847265 14567098 14377761 
1618.541 14277490 14254618 14291324 14366766 14461440 14559457 14653795 
1621.916 14747948 14855596 14993452 15173828 15399214 15662055 15950594 
1625.292 16255526 16574614 16910852 17268722 17648390 18042826 18438000 
1628.667 18819556 19177344 19510334 19824610 20129150 20428974 20723202 
1632.042 21002640 21253896 21463454 21619756 21716686 21754690 21741418 
1635.417 21688958 21612792 21527514 21443612 21365572 21291340 21213918 
1638.792 21121554 21000830 20841274 20638654 20398342 20133696 19862170 
1642.168 19597884 19345088 19098430 18843294 18561678 18237672 17864224 
1645.543 17447806 17009974 16582290 16197881 15882196 15646392 15488962 
1648.918 15398768 15360011 15352597 15350605 15323592 15233878 15047131 
1652.293 14752028 14384439 14026778 13760478 13621544 13590978 13625304 
1655.669 13680969 13728810 13754870 13755725 13735307 13699058 13651358 
1659.044 13591901 13517858 13424382 13308000 13167569 13005061 12825004 
1662.419 12633831 12440118 12252557 12080000 11928761 11800931 11692846 
1665.794 11594793 11493394 11371814 11215178 11014449 10769860 10492140 
1669.170 10199504 9912726 9647749 9412833 9208569 9030383 8870429 8718040 
1673.027 8561107 8386260 8182917 7949163 7696883 7451356 7240230 7082922 
1676.885 6981829 6924391 6889850 6858342 6818219 6767936 6716179 6675161 
1680.742 6654334 6653055 6659717 6653324 6612279 6523741 6395273 6256892 
1684.599 6149842 6103870 6123226 6192995 6291483 6401325 6511296 6616753 
1688.457 6716953 6812463 6904628 6995365 7088714 7190269 7305495 7437604 
1692.314 7584420 7737863 7884037 8007379 8095612 8146386 8171540 8196424 
1696.172 8247345 8336876 8458386 8589325 8702557 8770172 8773079 8709081 
1700.029 8599566 8484368 8399468 8360959 8359845 8374944 8381970 8362006 
1703.886 8303371 8201928 8062058 7895611 7719109 7546792 7387788 7244105 
1707.744 7112392 6986240 6859150 6726779 6588158 6445949 6304829 6170241 
1711.601 6046312 5934007 5831939 5737550 5648519 5564071 5484907 5411998 
1715.459 5343998 5276546 5203236 5118539 5023802 4927980 4847056 4794522 
1719.316 4777235 4792612 4831141 4880094 4928181 4968867 5000674 5027322 
1723.174 5054239 5086958 5127893 5176242 5229125 5283824 5338665 5392573 
1727.031 5444240 5490981 5528564 5552895 5562125 5557828 5544673 5527256 
1730.888 5506383 5475948 5421861 5324912 5168899 4950937 4692018 4432518 
1734.746 4218337 4075865 4004898 3985369 3990986 3999146 3993327 3966475 
1738.603 3919565 3860423 3799117 3745005 3704100 3677968 3665838 3666072 
1742.461 3676698 3695378 3718904 3744203 3768367 3790126 3809980 3829669 
1746.318 3850795 3873026 3894322 3910437 3916923 3909835 3887435 3849960 
1750.176 3799652 3740326 3676698 3615084 3560995 3518904 3490412 3473711 
1754.033 3462957 3449296 3423815 3379466 3315190 3236301 3154590 3082271 
1757.890 3026814 2988345 2959887 2931165 2891737 2835737 2763504 2681715 
1761.748 2600575 2529948 2475828 2439706 2419215 2410052 2408219 2409186 
1765.605 2407919 2399457 2379300 2345785 2301114 2252185 2207357 2172590 
1769.463 2148914 2130966 2109757 2076130 2026193 1964713 1904606 1861544 
1773.320 1845239 1856885 1888499 1929433 1969473 2004589 2035215 2065543 
1777.177 2099535 2138425 2179550 2217614 2247055 2265241 2273335 2276233 
1781.035 2278597 2283394 2289889 2294819 2294885 2288557 2277831 2266640 
1784.892 2259879 2260478 2267972 2280329 2294719 2309942 2326364 2344953 
1788.750 2365607 2385031 2397891 2396592 2375336 2333026 2274767 2211486 
1792.607 2154408 2111655 2085352 2071835 2065510 2061415 2057653 2053924 
1796.465 2051061 2048797 2044736 2035348 2017538 1990176 1955660 1918484 
1800.322 1885437 1860579 1846237 1841179 1842710 1848600 1857185 1868233 
1804.179 1881777 1897318 1913858 1929466 1943112 1954695 1965112 1975531 
1808.037 1986482 1996800 2004922 2008717 2008284 2005422 2004223 2008650 
1811.894 2021433 2041706 2066608 2091944 2114651 2133897 2151545 2170958 
1815.752 2195601 2226773 2263875 2304645 2346718 2388162 2428777 2469030 
1819.609 2509519 2549945 2589509 2627076 2662212 2695085 2726059 2754768 
1823.467 2780144 2800186 2813826 2821730 2827699 2836537 2852779 2877561 
1827.324 2907948 2937269 2957552 2963590 2955584 2940572 2929363 2933200 
1831.181 2957919 3002324 3059513 3121316 3181225 3236769 3290050 3345841 
1835.039 3409054 3482462 3565805 3656415 3751957 3851197 3954973 4065631 
1838.896 4185717 4316446 4457557 4607689 4765209 4928684 5096982 5268731 
1842.754 5442193 5615087 5786102 5955370 6124772 6296794 6471845 6646932 
1846.611 6815022 6966711 7091678 7182724 7236592 7254920 7241982 7203037 
1850.469 7140819 7055642 6946005 6811252 6653661 6479345 6296929 6114623 
1854.326 5938071 5768675 5604481 5442965 5282549 5124372 4971414 4826584 
1858.183 4690846 4562349 4437873 4314438 4191304 4070514 3955675 3849859 
1862.041 3753628 3664869 3580571 3498461 3419540 3347477 3286744 3240441 
1865.898 3207026 3181225 3155191 3122384 3081570 3037291 2998854 2975434 
1869.756 2972131 2987678 3015536 3047201 3076298 3099591 3116844 3128892 
1873.613 3136568 3138403 3132329 3115976 3088912 3052573 3009965 2963190 
1877.470 2913051 2858016 2795951 2725925 2649544 2570910 2495222 2426212 
1881.328 2364641 2307576 2250319 2189440 2124407 2058785 1998132 1947539 
1885.185 1909198 1881277 1858749 1836388 1811433 1783851 1756603 1733482 
1889.043 1717282 1709065 1708267 1714354 1727827 1750149 1782686 1824576 
1892.900 1872825 1921346 1964746 1999730 2026327 2048165 2069704 2093809 
1896.758 2119945 2144385 2162800 2172790 2175520 2175487 2178084 2187076 
1900.615 2202295 2220412 2236431 2246722 2251385 2253650 2257980 2267006 
1904.472 2280230 2294286 2305111 2310441 2312407 2315871 2326864 2348917 
1908.330 2380066 2414283 2443971 2462498 2468230 2463698 2454768 2446571 
1912.187 2441439 2438873 2436941 2434042 2430876 2429444 2431276 2435275 
1916.045 2436907 2429644 2407986 2371571 2326431 2283127 2251252 2235565 
1919.902 2232734 2233600 2226340 2202594 2160702 2106294 2049596 2000295 
1923.760 1964413 1941514 1927336 1917053 1908333 1902210 1901844 1909132 
1927.617 1923376 1940616 1956991 1970105 1981289 1995003 2015142 2042772 
1931.474 2073966 2100567 2114651 2112487 2096339 2074332 2056055 2048664 
1935.332 2052692 2063678 2073866 2077395 2073633 2066808 2062813 2065543 
1939.189 2073932 2082489 2083954 2073666 2052459 2027159 2006687 1997533 
1943.047 2000628 2011247 2022365 2029622 2033650 2040874 2058618 2092077 
1946.904 2139857 2195268 2249653 2296384 2334559 2368572 2404288 2445971 
1950.761 2492023 2536080 2569410 2586642 2587609 2577476 2563077 2549412 
1954.619 2536347 2518917 2490457 2447370 2391927 2331961 2278231 2238829 
1958.476 2216615 2208456 2207423 2206824 2203860 2198398 2191338 2181281 
1962.334 2164032 2135428 2094042 2046067 2004090 1982887 1993971 2038544 
1966.191 2106061 2176752 2231102 2256981 2254816 2236198 2215083 2203727 
1970.049 2204592 2214184 2224575 2231935 2239029 2253450 2283660 2331761 
1973.906 2391860 2452902 2505153 2545912 2583576 2633009 2708488 2814093 
1977.763 2938404 3058379 3149584 3193174 3184529 3132162 3052373 2961555 
1981.621 2870890 2784946 2703820 2627176 2557478 2500088 2459433 2437274 
1985.478 2428944 2427078 2422980 2413284 2400190 2390628 2392627 2409619 
1989.336 2438573 2471262 2498521 2514118 2518884 2519050 2523083 2536747 
1993.193 2561144 2592775 2627142 2661045 2695118 2732561 2775309 2822630 
1997.051 2868189 2903211 2921391 2920090 2904279 2881931 2861585 2846943 
2000.908 2835937 2821296 2796217 2757335 2708288 2657412 2613875 2583976 
2004.765 2568543 2563744 2563510 2565410 2571043 2584609 2609175 2643077 
2008.623 2678681 2705354 2714622 2703986 2678381 2648877 2627309 2621209 
2012.480 2632143 2656178 2688650 2726059 2768706 2818228 2875893 2938637 
2016.338 3000089 3052706 3092549 3121817 3148583 3183294 3232295 3294957 
2020.195 3363538 3426620 3474413 3504407 3520808 3533735 3551374 3576830 
2024.052 3606698 3633393 3649365 3652071 3644921 3635131 3629284 3630152 
2027.910 3635031 3638806 3637069 3630720 3625308 3629384 3649699 3688460 
2031.767 3742866 3807306 3876971 3951328 4032387 4122425 4220813 4320194 
2035.625 4410927 4483066 4531712 4560005 4577182 4594930 4620347 4655980 
2039.482 4696306 4734022 4762696 4781490 4794053 4806985 4824674 4847592 
2043.340 4871013 4889577 4898658 4898558 4894235 4892124 4898960 4917558 
2047.197 4947016 4984217 5025578 5068285 5109151 5144489 5168798 5176075 
2051.054 5162863 5131447 5090545 5054138 5037914 5052328 5098423 5166552 
2054.912 5239487 5299756 5334472 5340610 5324811 5298582 5272555 5253304 
2058.769 5242002 5236033 5232880 5232478 5237240 5250654 5273259 5301668 
2062.627 5328166 5344904 5346279 5332358 5308510 5281644 5258703 5242539 
2066.484 5231707 5222786 5212793 5201325 5190996 5184793 5183921 5186335 
2070.342 5187475 5182110 5167356 5144791 5119243 5096512 5080856 5072240 
2074.199 5067581 5062049 5052529 5039557 5026383 5017702 5015724 5020383 
2078.056 5027422 5031813 5030204 5022629 5011769 5002216 4997524 4998529 
2081.914 5003724 5010227 5016662 5023299 5031746 5043579 5058496 5073246 
2085.771 5083236 5084577 5076263 5060776 5043344 5028763 5019411 5012942 
2089.629 5004428 4988273 4961728 4926405 4887868 4853992 4830806 4821090 
2093.486 4823804 4835463 4852651 4873024 4895910 4921177 4947988 4973626 
2097.344 4995077 5010361 5020718 5030741 5045993 5071335 5107542 5150860 
2101.201 5194986 5233451 5263366 5287312 5311495 5343462 5388245 5446388 
2105.058 5514470 5586591 5657717 5725698 5791374 5856387 5921780 5986007 
2108.916 6045640 6097587 6140869 6178341 6214472 6255278 6303552 6358185 
2112.773 6413901 6464244 6503594 6530132 6546009 6556099 6566292 6580858 
2116.631 6602186 6630850 6666682 6709516 6759489 6816401 6878270 6941898 
2120.488 7003783 7061064 7113469 7162849 7212537 7265331 7321804 7379565 
2124.345 7434334 7482705 7522990 7556840 7588162 7621309 7658234 7698131 
2128.203 7737660 7773482 7803269 7827593 7849016 7871182 7896353 7925305 
2132.060 7957228 7991820 8030094 8075290 8130316 8196457 8271153 8348056 
2135.918 8419907 8480618 8529005 8568441 8606123 8647662 8695593 8746674 
2139.775 8794853 8832623 8855584 8863801 8860555 8849700 8833028 8808851 
2143.633 8773417 8723313 8658816 8584459 8507108 8434534 8369742 8311612 
2147.490 8254166 8190616 8118028 8037451 7953719 7872228 7796185 7723831 
2151.347 7650343 7569921 7479266 7379228 7273485 7166150 7058135 6947284 
2155.205 6830909 6709449 6592060 6496060 6445377 6462293 6557311 6723380 
2159.062 6937655 7167497 7379969 7552456 7672870 7739380 7756381 7730577 
2162.920 7671049 7587657 7491841 7396787 7312672 7245284 7193301 7147792 
2166.777 7096730 7029005 6940113 6832760 6715842 6600975 6496833 6407781 
2170.635 6331926 6264052 6199212 6134517 6070907 6011102 5959032 5917346 
2174.492 5887588 5869485 5861223 5859443 5858940 5851384 5828111 5780864 
2178.349 5707032 5611059 5505376 5407032 5332191 5290935 5283656 5300561 
2182.207 5326321 5346682 5353391 5346145 5330782 5314748 5303814 5298582 
2186.064 5296267 5293048 5286910 5279430 5274332 5275842 5284763 5298850 
2189.922 5313642 5324476 5329306 5329038 5327495 5327830 5331184 5336485 
2193.779 5340073 5339235 5332761 5322397 5311093 5302204 5297106 5296200 
2197.636 5298548 5303814 5313642 5329943 5354464 5385495 5418003 5444945 
2201.494 5459205 5457292 5439811 5412132 5381670 5353994 5332459 5316225 
2205.351 5303244 5291739 5282382 5277518 5280000 5290633 5307134 5323872 
2209.209 5335210 5337155 5329809 5317164 5305156 5299353 5302472 5314044 
2213.066 5331889 5354028 5379221 5407536 5439308 5472727 5503665 5527860 
2216.924 5540914 5542391 5536014 5527994 5525242 5531753 5546922 5566286 
2220.781 5584007 5594982 5597734 5594311 5588705 5583671 5579946 5575616 
2224.638 5567595 5554405 5536417 5516618 5498598 5484538 5474438 5465848 
2228.496 5456554 5446153 5437026 5433504 5440080 5458064 5484571 5513497 
2232.353 5537089 5550311 5552694 5548700 5545377 5549606 5565749 5593304 
2236.211 5628748 5666545 5702097 5732245 5756151 5774114 5786874 5795269 
2240.068 5800675 5805007 5811051 5821394 5837446 5858906 5883255 5907001 
2243.926 5927423 5944789 5961316 5981337 6007944 6042246 6081995 6122218 
2247.783 6158042 6185768 6204926 6217732 6227379 6236219 6245127 6252824 
2251.640 6258270 6261228 6263279 6267514 6276389 6290642 6308225 6325068 
2255.498 6336566 6339559 6333339 6319554 6300661 6278305 6252892 6223412 
2259.355 6189566 6151993 6113649 6078870 6051486 6033478 6024238 6020509 
2263.213 6018964 6017519 6016713 6018964 6027565 6044095 6068017 6096343 
2267.070 6124369 6148464 6166813 6179887 6189264 6196792 6203179 6208455 
2270.927 6211985 6213497 6213833 6214606 6217463 6223211 6231413 6240757 
2274.785 6249765 6257867 6265833 6274607 6285465 6298542 6312561 6325471 
2278.642 6336095 6344232 6351326 6359866 6372105 6388917 6409463 6431859 
2282.500 6453886 6474199 6492798 6510287 6527038 6542409 6554149 6559935 
2286.357 6557815 6547825 6531545 6512776 6495118 6481194 6471609 6465488 
2290.215 6461116 6457484 6454189 6452339 6453449 6458460 6467742 6480622 
2294.072 6495925 6512911 6531276 6550886 6571372 6591993 6610731 6625770 
2297.929 6635695 6640034 6639261 6635291 6629302 6622371 6614331 6604373 
2301.787 6591825 6576787 6559968 6542645 6525658 6509211 6492596 6474770 
2305.644 6455029 6433674 6412153 6392515 6376745 6365750 6359732 6357714 
2309.502 6359362 6364506 6373551 6387572 6406369 6428967 6453112 6475712 
2313.359 6494345 6507630 6515635 6519638 6520916 6520310 6517687 6512507 
2317.217 6504199 6493067 6480555 6468683 6459939 6456139 6458460 6467136 
2321.074 6481497 6499760 6519200 6534808 6540963 6531006 6499322 6443864 
2324.931 6366490 6274002 6176257 6083574 6005391 5946301 5906363 5881543 
2328.789 5865757 5853835 5842014 5829890 5818876 5810548 5806484 5806686 
2332.646 5810481 5816861 5825592 5836708 5850174 5865589 5882046 5898134 
2336.504 5913114 5927524 5942941 5961686 5985738 6015402 6049067 6083843 
2340.361 6116438 6144767 6168527 6188760 6207649 6226841 6247681 6271010 
2344.219 6298173 6331826 6375703 6433843 6509043 6601648 6708339 6822998 
2348.076 6938059 7045775 7139169 7213110 7264522 7292353 7297442 7282818 
2351.933 7252932 7213143 7169316 7126201 7087367 7054363 7027792 7007353 
2355.791 6992671 6984287 6982839 6989338 7004154 7026951 7056653 7091880 
2359.648 7132230 7177536 7228674 7285951 7348965 7416100 7484997 7553299 
2363.506 7619622 7684269 7748555 7814199 7882014 7951660 8021183 8088860 
2367.363 8153071 8213780 8272233 8329918 8387881 8446123 8503256 8557999 
2371.220 8609671 8659289 8708912 8761955 8821295 8888928 8965908 9051899 
2375.078 9146774 9250369 9363027 9485333 9617361 9758716 9907878 10063297 
2378.935 10223317 10386892 10553245 10721766 10891169 11059584 11224358 
2382.311 11382801 11532692 11672799 11802633 11922631 12033022 12133900 
2385.686 12224679 12304639 12373293 12430537 12477183 12514217 12542591 
2389.061 12563089 12575708 12580347 12576697 12564965 12545422 12519298 
2392.436 12487515 12451233 12411819 12371077 12330783 12293492 12261078 
2395.812 12235278 12217182 12207026 12204538 12210025 12224202 12248263 
2399.187 12283778 12331840 12392317 12463782 12544570 12631956 12724170 
2402.562 12820635 12921560 13028039 13140691 13260308 13386928 13520627 
2405.937 13661787 13810927 13968982 14136610 14314164 14500973 14696122 
2409.313 14898423 15106718 15320194 15537895 15758110 15978679 16196297 
2412.688 16407454 16608695 16797388 16971624 17129938 17271274 17394346 
2416.063 17498062 17581726 17645940 17692494 17723970 17743954 17755240 
2419.438 17759624 17758242 17751064 17738362 17721486 17701882 17682174 
2422.813 17664160 17649288 17637692 17629376 17624304 17624234 17631964 
2426.189 17651426 17687074 17741986 17818066 17915254 18032394 18167808 
2429.564 18319610 18486782 18668512 18864090 19072946 19294478 19528182 
2432.939 19773872 20031708 20301916 20584104 20878158 21183336 21498930 
2436.314 21824786 22160928 22507976 22866652 23237298 23619456 24012736 
2439.690 24416398 24830608 25255820 25692734 26141768 26602188 27072302 
2443.065 27549348 28030596 28514184 28999514 29487124 29978300 30474298 
2446.440 30975452 31481248 31990662 32502108 33014114 33525300 34034072 
2449.815 34538712 35036496 35525328 36003516 36469832 36924200 37366592 
2453.191 37796704 38213136 38613200 38992716 39347464 39673456 39967248 
2456.566 40226596 40449772 40634960 40780412 40883496 40941092 40950412 
2459.941 40908620 40813608 40664216 40460900 40205408 39901284 39554248 
2463.316 39171052 38759244 38327668 37884368 37437300 36994664 36563680 
2466.692 36152176 35767432 35416176 35104136 34835692 34613448 34438088 
2470.067 34309268 34225800 34186292 34189268 34233292 34316260 34434752 
2473.442 34584852 34761200 34957736 35168768 35388136 35610632 35831044 
2476.817 36044768 36247576 36436028 36607512 36760236 36893176 37005016 
2480.193 37094324 37159508 37198488 37210224 37194736 37153516 37089920 
2483.568 37007972 36911936 36805388 36690972 36570168 36443668 36311768 
2486.943 36174680 36032640 35885852 35734620 35578804 35418148 35252132 
2490.318 35079780 34899996 34711132 34511084 34297796 34069840 33826064 
2493.694 33566464 33291954 33003428 32701802 32387066 32058898 31715758 
2497.069 31357326 30983530 30596084 30197224 29790536 29379084 28965474 
2500.444 28551690 28138832 27727988 27320038 26916280 26518320 26127516 
2503.819 25744904 25371162 25007010 24653262 24311120 23982446 23668788 
2507.195 23371162 23090090 22824394 22572924 22334016 22106746 21890118 
2510.570 21684326 21488832 21302996 21125032 20954026 20788472 20628404 
2513.945 20474786 20329554 20194992 20072792 19963912 19868482 19786496 
2517.320 19717594 19662328 19620936 19593344 19579028 19576150 19582770 
2520.696 19596672 19616360 19641354 19672000 19709134 19753204 19804182 
2524.071 19860990 19922422 19986984 20053498 20120542 20186628 20249770 
2527.446 20307610 20357470 20397336 20425778 20442172 20446618 20438872 
2530.821 20418868 20386190 20340456 20282474 20214014 20138002 20058182 
2534.197 19978310 19900428 19825544 19754038 19685106 19619134 19556602 
2537.572 19498898 19447610 19403710 19367156 19337466 19313530 19294962 
2540.947 19281384 19273140 19270092 19271200 19274664 19277572 19277088 
2544.322 19271616 19260602 19245292 19227800 19210554 19194762 19181222 
2547.698 19169032 19157534 19145450 19131842 19116606 19099538 19080908 
2551.073 19061002 19040714 19020982 19003016 18988304 18977576 18971344 
2554.448 18969164 18970374 18974112 18979444 18985674 18992112 18997650 
2557.823 19000628 18998862 18990106 18972450 18944900 18907348 18860354 
2561.198 18804814 18741674 18671418 18595222 18514410 18430948 18347572 
2564.574 18267080 18191476 18122102 18059094 18001966 17950268 17903930 
2567.949 17863740 17831116 17807122 17792142 17785996 17787618 17795558 
2571.324 17808848 17826626 17848618 17874546 17903618 17934904 17967432 
2574.699 18000792 18035640 18073324 18115848 18164492 18219842 18280938 
2578.075 18345878 18412176 18478208 18542832 18605944 18668512 18731332 
2581.450 18795508 18861528 18930018 19001666 19077100 19157154 19242002 
2584.825 19331334 19424116 19519102 19615182 19712186 19810286 19910802 
2588.200 20014254 20121446 20232100 20345180 20459572 20573996 20687476 
2591.576 20799422 20909136 21015992 21119154 21217606 21311140 21399612 
2594.951 21483856 21564598 21642602 21718428 21792454 21864996 21936818 
2598.326 22009138 22083598 22162116 22245772 22335308 22430302 22530170 
2601.701 22634216 22742160 22854462 22972104 23095682 23226076 23363118 
2605.077 23506538 23655668 23810206 23970122 24135352 24305758 24480964 
2608.452 24659960 24841800 25025190 25209152 25392660 25574948 25754994 
2611.827 25931702 26103624 26269490 26427920 26578374 26720426 26853322 
2615.202 26976954 27090604 27193700 27286450 27369442 27444120 27512634 
2618.578 27576886 27638040 27696556 27751652 27802306 27847630 27887162 
2621.953 27921294 27951542 27979528 28007058 28035826 28066718 28100512 
2625.328 28137382 28177508 28220572 28266116 28313470 28362066 28411268 
2628.703 28461042 28511954 28564782 28620520 28679628 28742142 28807638 
2632.079 28874844 28942736 29010352 29076988 29142608 29206780 29269760 
2635.454 29331650 29392522 29452408 29511876 29571602 29632258 29694482 
2638.829 29759024 29826022 29895908 29968572 30044160 30122604 30203512 
2642.204 30286566 30371130 30456668 30542652 30629326 30717228 30807210 
2645.580 30900198 30996980 31098126 31203674 31313450 31427100 31544234 
2648.955 31664468 31787052 31911564 32037460 32164362 32292188 32421198 
2652.330 32551888 32685366 32822460 32964032 33110548 33262658 33420366 
2655.705 33584040 33753648 33928840 34109012 34293348 34480488 34669360 
2659.081 34859172 35049432 35240272 35432024 35624764 35818524 36012980 
2662.456 36207564 36401764 36595108 36787896 36980732 37174232 37369156 
2665.831 37565968 37764680 37965220 38167224 38370268 38574016 38778444 
2669.206 38983692 39190016 39397924 39607968 39820652 40036568 40255788 
2672.582 40478432 40704132 40932392 41162448 41393792 41625224 41855972 
2675.957 42084952 42311308 42534272 42753732 42970124 43184796 43399676 
2679.332 43616796 43838160 44065688 44300568 44544272 44797516 45061388 
2682.707 45336852 45624720 45925220 46238568 46564356 46902124 47251716 
2686.083 47612832 47985424 48369484 48764704 49170160 49584756 50007372 
2689.458 50437024 50873468 51316996 51768140 52227708 52696484 53174720 
2692.833 53662548 54160012 54666956 55183744 55710452 56246588 56792112 
2696.208 57346180 57908116 58477184 59053192 59635852 60225080 60820640 
2699.583 61421936 62027964 62637828 63250116 63864120 64478800 65093264 
2702.959 65706104 66315712 66920228 67517264 68104656 68679840 69240008 
2706.334 69782112 70302608 70797944 71264760 71700888 72105104 72476888 
2709.709 72817248 73126784 73406600 73657000 73878392 74071368 74236520 
2713.084 74374880 74487080 74573392 74633072 74664704 74666288 74635824 
2716.460 74572088 74474608 74344008 74181728 73989800 73770896 73528208 
2719.835 73266000 72989096 72702808 72413192 72125872 71845832 71577792 
2723.210 71326136 71094840 70888040 70709456 70562360 70449064 70370512 
2726.585 70326760 70316664 70338752 70391784 70473888 70584472 70722136 
2729.961 70885472 71072944 71282680 71512904 71761824 72027808 72309152 
2733.336 72603872 72908984 73221720 73538848 73857528 74175552 74491328 
2736.711 74803280 75110568 75411888 75706040 75991904 76269032 76537288 
2740.086 76797328 77050000 77296176 77536944 77773360 78007168 78240712 
2743.462 78477400 78720808 78974288 79240240 79519448 79811496 80114704 
2746.837 80427368 80747088 81071672 81398624 81724128 82043080 82350096 
2750.212 82639008 82904728 83144208 83356368 83541952 83703112 83842952 
2753.587 83964024 84068360 84157832 84233088 84294600 84342040 84373872 
2756.963 84388192 84381752 84351616 84294600 84207832 84089264 83936968 
2760.338 83749240 83525248 83264440 82967216 82635280 82271480 81879664 
2763.713 81463408 81026672 80573144 80106296 79630368 79150376 78671832 
2767.088 78201432 77744904 77307336 76892280 76502040 76138240 75802216 
2770.464 75495936 75220992 74979496 74771792 74597464 74454192 74338544 
2773.839 74246112 74172728 74114632 74068144 74029248 73994320 73957976 
2777.214 73914800 73858792 73783544 73684128 73555720 73394984 73199992 
2780.589 72970440 72707784 72415424 72098616 71763696 71416936 71064432 
2783.965 70711920 70362640 70019568 69684344 69357896 69040112 68729400 
2787.340 68423448 68118416 67809448 67492408 67163432 66821016 66465392 
2790.715 66098720 65724140 65345808 64967608 64592704 64224340 63865580 
2794.090 63519308 63188376 62876000 62584476 62316092 62072152 61853752 
2797.466 61661316 61495068 61354612 61239228 61147864 61079132 61031084 
2800.841 61002180 60991236 60996612 61017124 61051024 61096028 61149504 
2804.216 61209012 61272192 61337704 61404644 61472968 61542524 61612624 
2807.591 61681860 61747628 61807104 61857612 61896196 61920768 61929672 
2810.967 61921192 61893908 61845916 61775932 61682624 61565200 61424036 
2814.342 61260364 61075968 60874460 60660204 60438624 60216060 60000380 
2817.717 59799216 59620684 59472548 59361272 59292292 59269312 59294532 
2821.092 59368376 59489876 59656796 59865348 60111632 60390344 60696172 
2824.468 61023228 61365220 61714744 62064620 62406480 62731916 63033348 
2827.843 63304164 63538908 63734248 63888492 64002356 64077200 64116368 
2831.218 64124128 64105116 64064720 64008116 63939928 63864656 63785940 
2834.593 63707048 63631236 63561768 63501708 63454272 63422212 63408524 
2837.969 63416304 63449284 63512676 63613244 63759080 63959592 64225220 
2841.344 64565672 64991316 65512800 66141084 66889844 67775672 68816208 
2844.719 70031400 71438696 73048488 74859528 76852728 78988720 81199920 
2848.094 83398000 85477656 87318384 88807920 89849576 90372296 90344800 
2851.469 89774392 88706384 87211360 85381736 83320520 81123672 78885080 
2854.845 76685752 74586728 72635360 70860312 69273088 67871312 66642044 
2858.220 65565816 64618768 63777648 63021436 62330668 61689800 61085616 
2861.595 60506532 59943432 59389156 58838768 58289764 57742320 57199008 
2864.970 56664224 56144656 55648528 55184832 54763280 54393056 54081724 
2868.346 53834372 53653252 53537080 53481016 53477416 53516656 53586784 
2871.721 53675260 53769788 53858676 53933136 53987200 54019020 54030388 
2875.096 54026112 54012604 53995828 53980520 53969676 53964464 53965328 
2878.471 53972116 53985664 54006672 54036580 54076244 54126120 54186288 
2881.847 54256676 54337104 54427608 54528916 54641028 54763880 54896848 
2885.222 55038540 55187844 55343560 55505580 55673836 55848984 56031584 
2888.597 56222224 56421208 56628700 56845736 57073496 57313968 57569436 
2891.972 57842588 58136284 58453304 58796508 59169324 59575000 60017268 
2895.348 60499180 61022160 61585364 62184168 62809944 63448788 64083724 
2898.723 64694756 65261164 65765700 66195948 66547148 66822908 67034700 
2902.098 67200248 67338976 67471984 67617872 67791744 68006912 68274032 
2905.473 68602144 69000232 69476504 70038520 70694288 71450872 72315728 
2908.849 73297032 74402560 75640136 77015896 78531512 80183368 81959608 
2912.224 83841024 85797600 87790128 89773784 91694640 93496576 95127296 
2915.599 96538488 97694880 98577536 99184312 99529272 99637584 99541936 
2918.974 99272920 98854936 98303544 97622728 96807552 95847584 94732816 
2922.350 93458200 92028160 90457864 88774752 87015528 85219424 83428232 
2925.725 81679584 80002592 78419688 76944288 75581696 74331072 73186504 
2929.100 72139688 71180160 70297968 69484592 68733400 68040824 67405840 
2932.475 66829628 66314480 65862708 65476084 65154700 64896964 64698980 
2935.851 64554908 64456620 64393780 64355204 64328416 64301556 64265252 
2939.226 64212544 64140448 64049856 63944540 63830764 63714988 63604080 
2942.601 63503012 63414460 63338472 63271312 63205892 63131660 63036756 
2945.976 62909664 62741792 62530324 62279340 62000600 61710120 61428080 
2949.352 61173800 60962372 60804248 60703600 60658372 60662148 60705168 
2952.727 60776616 60864092 60955968 61041684 61111512 61157740 61174984 
2956.102 61159496 61109796 61026432 60911668 60769680 60605608 60425984 
2959.477 60237264 60045540 59856144 59672116 59495460 59326896 59166400 
2962.853 59014436 58871896 58740284 58621460 58517260 58428700 58356424 
2966.228 58300452 58260284 58235240 58224248 58225920 58238120 58258540 
2969.603 58284724 58314468 58346948 58381776 58419720 58461908 58509336 
2972.978 58562644 58621876 58686616 58756408 58830384 58906764 58982556 
2976.354 59052888 59109828 59143964 59144724 59101708 59006844 58855652 
2979.729 58647700 58386896 58081020 57741072 57379080 57008204 56641044 
2983.104 56286984 55953448 55643632 55357148 55089808 54835640 54587972 
2986.479 54340748 54089980 53833996 53572464 53305324 53031424 52746432 
2989.854 52443376 52111956 51740888 51319900 50842704 50308504 49723092 
2993.230 49098808 48452936 47802912 47165352 46552772 45970668 45419288 
2996.605 44893516 44385884 43888228 43393928 42899240 42402776 41905488 
2999.980 41409428 40917136 40430788 39952280 39483156 39024796 38578292 
3003.355 38144760 37724780 37318312 36925212 36544936 36176880 35820972 
3006.731 35477184 35145776 34826828 34520088 34224724 33939412 33662912 
3010.106 33393386 33129464 32870136 32614462 32362186 32113302 31868164 
3013.481 31627298 31391266 31160740 30936062 30717654 30505790 30301098 
3016.856 30104314 29916424 29738196 29569508 29409612 29256682 29108272 
3020.232 28961720 28815498 28668974 28522712 28378336 28237614 28102030 
3023.607 27972356 27849112 27733146 27625718 27529684 27448144 27384546 
3026.982 27340858 27317216 27310548 27314960 27322474 27324204 27310972 
3030.357 27275864 27213632 27121958 27001140 26853712 26684062 26496590 
3033.733 26296524 26088458 25875814 25661834 25448872 25238788 25033474 
3037.108 24834116 24641828 24457268 24280530 24111182 23948590 23792110 
3040.483 23641114 23495378 23354868 23219576 23089392 22963930 22842902 
3043.858 22725506 22611876 22501730 22395240 22292718 22194368 22100226 
3047.234 22010358 21924794 21843322 21765942 21692548 21622646 21555648 
3050.609 21490818 21427284 21363762 21299622 21233924 21166184 21096160 
3053.984 21023748 20949574 20874788 20800604 20728622 20660232 20595884 
3057.359 20535434 20478570 20424598 20373582 20326254 20283932 20247930 
3060.735 20219152 20197318 20180936 20168578 20158444 20150182 20144836 
3064.110 20144246 20150774 20165662 20188814 20218214 20250742 20282924 
3067.485 20311568 20334902 20351742 20361568 20363860 20357784 20342400 
3070.860 20317054 20282056 20238696 20189474 20137758 20086360 20037884 
3074.236 19993888 19954822 19920514 19889952 19862100 19835430 19808552 
3077.611 19779628 19747380 19711076 19670926 19627490 19582078 19536050 
3080.986 19490406 19445878 19402496 19360296 19319036 19279062 19240478 
3084.361 19203558 19168304 19135130 19104038 19075994 19052000 19033410 
3087.737 19021224 19015616 19015858 19020048 19025794 19031160 19034656 
3091.112 19035972 19035728 19034968 19034482 19034864 19036318 19038950 
3094.487 19042966 19049336 19059374 19074054 19094066 19119066 19148082 
3097.862 19179698 19212530 19245568 19278474 19311278 19344048 19376858 
3101.238 19409460 19441822 19473910 19506036 19539134 19574142 19611854 
3104.613 19652864 19696686 19742628 19789582 19836296 19881594 19924538 
3107.988 19964606 20001660 20035974 20068280 20099616 20131546 20165420 
3111.363 20202212 20242340 20285668 20331290 20378340 20425918 20473500 
3114.739 20520530 20566838 20612004 20655680 20697102 20735678 20770954 
3118.114 20802654 20830986 20856154 20878750 20899262 20918594 20937716 
3121.489 20957676 20979444 21003822 21030634 21059536 21089378 21119048 
3124.864 21147574 21174604 21200490 21226026 21252296 21280620 21311556 
3128.240 21345594 21382662 21422620 21464464 21507530 21550460 21592176 
3131.615 21631772 21668898 21703728 21737586 21771794 21807922 21847190 
3134.990 21890014 21936050 21984808 22035176 22086596 22138614 22191162 
3138.365 22244240 22297916 22351912 22406054 22459822 22513072 22565698 
3141.740 22617354 22668180 22718278 22767650 22816956 22866826 22918204 
3145.116 22971860 23028176 23086982 23147228 23208112 23268654 23328680 
3148.491 23388644 23449352 23511922 23577194 23645240 23715432 23786722 
3151.866 23857952 23928492 23998030 24066842 24135490 24204432 24273626 
3155.241 24343148 24412612 24481840 24550976 24620368 24690050 24760692 
3158.617 24832572 24905728 24980440 25056606 25134118 25212766 25292800 
3161.992 25373728 25455758 25538718 25622678 25707778 25793810 25880562 
3165.367 25967612 26054646 26141240 26227604 26313880 26400526 26487786 
3168.742 26575346 26662500 26747842 26830026 26907996 26981184 27049874 
3172.118 27114656 27176346 27236140 27294352 27351268 27406780 27460956 
3175.493 27513552 27564458 27613464 27660252 27704996 27748014 27790508 
3178.868 27833426 27878400 27926066 27976772 28029290 28082166 28133776 
3182.243 28183058 28230190 28276442 28324150 28375294 28431926 28494476 
3185.619 28562412 28634464 28708724 28783706 28858166 28931366 29002914 
3188.994 29072914 29141650 29209724 29277842 29347320 29419042 29493968 
3192.369 29572488 29654428 29739330 29826590 29915040 30004040 30092950 
3195.744 30181204 30268554 30354606 30439430 30523314 30606714 30690166 
3199.120 30773882 30857828 30941472 31023954 31105030 31184412 31262778 
3202.495 31341262 31420972 31503122 31588062 31675376 31764310 31853758 
3205.870 31942728 32030114 32115374 32197722 32276594 32351832 32423518 
3209.245 32492928 32561242 32630428 32701764 32776222 32853194 32931254 
3212.621 33009004 33084982 33159182 33233002 33308126 33386946 33470862 
3215.996 33559808 33652848 33747524 33841540 33933032 34021032 34105676 
3219.371 34187836 34268644 34349072 34429944 34511480 34593928 34677252 
3222.746 34761524 34847036 34934000 35022488 35112508 35203660 35295400 
3226.122 35386768 35476752 35564272 35648576 35729080 35805604 35878548 
3229.497 35948476 36016368 36083616 36151204 36220528 36292100 36366636 
3232.872 36443596 36522304 36601168 36678388 36752376 36822304 36888308 
3236.247 36951652 37014396 37078808 37146764 37218992 37295748 37375656 
3239.623 37457132 37538440 37617888 37694348 37766848 37834988 37898508 
3242.998 37957736 38013572 38067568 38121460 38177136 38236112 38299040 
3246.373 38365924 38436544 38509744 38585424 38662888 38742288 38823116 
3249.748 38904900 38986808 39067788 39147480 39225520 39302592 39379896 
3253.124 39458628 39539876 39624048 39710704 39799044 39887916 39976364 
3256.499 40063312 40148236 40230708 40310464 40387692 40462792 40536372 
3259.874 40609456 40683028 40757592 40833300 40910108 40987080 41063888 
3263.249 41140008 41215780 41291532 41368204 41446684 41527396 41610672 
3266.625 41696412 41784432 41874068 41965228 42057572 42151140 42245712 
3270.000 42341624 42439088 42538112 42639092 42741524 42845260 42949896 
3273.375 43055216 43161700 43269456 43379392 43491996 43607524 43725612 
3276.750 43845708 43967200 44090076 44214828 44342876 44475696 44614364 
3280.125 44759428 44910088 45065100 45222852 45382172 45542688 45704556 
3283.501 45868212 46034360 46202784 46373152 46544804 46717632 46891972 
3286.876 47068892 47249720 47435912 47628176 47826588 48030832 48239944 
3290.251 48453492 48671256 48893364 49119920 49351312 49587616 49829252 
3293.626 50076156 50328780 50586912 50850264 51118320 51390088 51664448 
3297.002 51940816 52219116 52500172 52785268 53075788 53373020 53677548 
3300.377 53989416 54308304 54634188 54967088 55307164 55655044 56011156 
3303.752 56375368 56747588 57127308 57514320 57908304 58309244 58716840 
3307.127 59130752 59550524 59975540 60405728 60841296 61282952 61731432 
3310.503 62187644 62651956 63124224 63604264 64091832 64586892 65089956 
3313.878 65601228 66120824 66648460 67183656 67725792 68274456 68829912 
3317.253 69392328 69961640 70537456 71118256 71702648 72289120 72877160 
3320.628 73467344 74060992 74659712 75264256 75874104 76487304 77101200 
3324.004 77713160 78321384 78925248 79524264 80118768 80708112 81291568 
3327.379 81867856 82436096 82996136 83547944 84091480 84626032 85149560 
3330.754 85659112 86151520 86624224 87075296 87504784 87912504 88298440 
3334.129 88660704 88997192 89304888 89581400 89826064 90039952 90225328 
3337.505 90384456 90519200 90629488 90714280 90771088 90797592 90791384 
3340.880 90750416 90673416 90558912 90405712 90213176 89981048 89710024 
3344.255 89401392 89056288 88674840 88257272 87802216 87308776 86776456 
3347.630 86206024 85599872 84960904 84292952 83598984 82881664 82142912 
3351.006 81384640 80608560 79816640 79010768 78193184 77365896 76530840 
3354.381 75690264 74847048 74004336 73165760 72335256 71515720 70709728 
3357.756 69918784 69143488 68383936 67639904 66911108 66196992 65496968 
3361.131 64810680 64137800 63478156 62832424 62201144 61585212 60985328 
3364.507 60401500 59833784 59281580 58744456 58221976 57714164 57220780 
3367.882 56741924 56277212 55826112 55387900 54961972 54548000 54145300 
3371.257 53752840 53369576 52993012 52620740 52250356 51880176 51510088 
3374.632 51140760 50774092 50411980 50055592 49705036 49359256 49016528 
3378.008 48675000 48333300 47990788 47647624 47303992 46960264 46616400 
3381.383 46271888 45926064 45578088 45227336 44873564 44516556 44157232 
3384.758 43796488 43435636 43076368 42719808 42366648 42016800 41669604 
3388.133 41323928 40978928 40634308 40290472 39948360 39608804 39272232 
3391.509 38938496 38606464 38275232 37944644 37615144 37287800 36964536 
3394.884 36646336 36333708 36025904 35721524 35419480 35119332 34821904 
3398.259 34528736 34241788 33962588 33691376 33427272 33168018 32911844 
3401.634 32656468 32400634 32144166 31886708 31628904 31371392 31114856 
3405.010 30860390 30608954 30361536 30118804 29880644 29646376 29414610 
3408.385 29184030 28953290 28722388 28491504 28261166 28032718 27807002 
3411.760 27584550 27366372 27152714 26944518 26742450 26546780 26357394 
3415.135 26173086 25992554 25813886 25636138 25458216 25280894 25104416 
3418.510 24929730 24757290 24587126 24419236 24253516 24090238 23930242 
3421.886 23774472 23623480 23477786 23336722 23199338 23064304 22930430 
3425.261 22797050 22663678 22530556 22397578 22264746 22131744 21998228 
3428.636 21864054 21729226 21594022 21459416 21325686 21193670 21063988 
3432.011 20937090 20813742 20694322 20579310 20468498 20361638 20257858 
3435.387 20156118 20055718 19955828 19855996 19756222 19656192 19555458 
3438.762 19453848 19351014 19246954 19142610 19038984 18937666 18839798 
3442.137 18745896 18655576 18567004 18477482 18384590 18285982 18180660 
3445.512 18068938 17952964 17836018 17721968 17614056 17514416 17423386 
3448.888 17339306 17258898 17178918 17095988 17008218 16914812 16816676 
3452.263 16715428 16612481 16508941 16405562 16302139 16198844 16095813 
3455.638 15993632 15893159 15795220 15700014 15607098 15515609 15424207 
3459.013 15331727 15237893 15142228 15045142 14947427 14850042 14754324 
3462.389 14661266 14571826 14486790 14405674 14327246 14249447 14170122 
3465.764 14087389 14000565 13910200 13818042 13726314 13636655 13549853 
3469.139 13465427 13381768 13297204 13211050 13123171 13034184 12945455 
3472.514 12857562 12770676 12684286 12597435 12510057 12422013 12334192 
3475.890 12247615 12163238 12081090 12000661 11920827 11840257 11758239 
3479.265 11674500 11589519 11504213 11419402 11336544 11257103 11182097 
3482.640 11112542 11048878 10990491 10935306 10880841 10824175 10762455 
3486.015 10694903 10621997 10545606 10468516 10393510 10321842 10254222 
3489.391 10189769 10127359 10066213 10005957 9946965 9890081 9835782 9784470 
3493.248 9735944 9690066 9646259 9604658 9564722 9526245 9488720 9451367 
3497.105 9413036 9373320 9332016 9289668 9246950 9204542 9162747 9121430 
3500.963 9080590 9039450 8998347 8958533 8921294 8889266 8864512 8848719 
3504.820 8842362 8844864 8854366 8867960 8882198 8893866 8900156 8899649 
3508.678 8892310 8879898 8865086 8851019 8840333 8834449 8833705 8837391 
3512.535 8844729 8855077 8868096 8883990 8902354 8922039 8941182 8957485 
3516.393 8968749 8974059 8973924 8970203 8965367 8961307 8958939 8957147 
3520.250 8954272 8948014 8936650 8919976 8898736 8874251 8847840 8819536 
3524.107 8788125 8751610 8707661 8654456 8591252 8518664 8438724 8353495 
3527.965 8265513 8176435 8087173 7998165 7909277 7820947 7733376 7647308 
3531.822 7563650 7483110 7404977 7328510 7251079 7170327 7083898 6990550 
3535.680 6890692 6785942 6679367 6574231 6473223 6377989 6289163 6206405 
3539.537 6129107 6056157 5986712 5919395 5853398 5787143 5719756 5650534 
3543.395 5579677 5507860 5436221 5366037 5297945 5232008 5168061 5105698 
3547.252 5044384 4984083 4925333 4867729 4810670 4752915 4693057 4629623 
3551.109 4562349 4491938 4419931 4348573 4279569 4214189 4152364 4093559 
3554.967 4037169 3982694 3929996 3879044 3829736 3781536 3733475 3684484 
3558.824 3633895 3581641 3528391 3475381 3423981 3375292 3330348 3289215 
3562.682 3251991 3217875 3185364 3151987 3114007 3067489 3008897 2936702 
3566.539 2852513 2761203 2670213 2586776 2515684 2458666 2413484 2376102 
3570.396 2342021 2307910 2271569 2232834 2191938 2149347 2105495 2059850 
3574.254 2012246 1962949 1912892 1863374 1815925 1771208 1728792 1687710 
3578.111 1646466 1604061 1560763 1517470 1476142 1438907 1407027 1381399 
3581.969 1361854 1347828 1338023 1330944 1324230 1314758 1298507 1271456 
3585.826 1230417 1174565 1106063 1030231 954679 887008 832362 792792 766967 
3590.166 751035 741111 733046 723753 711041 693950 671184 642745 608933 
3594.505 570943 530866 491656 455633 424820 400078 380081 362670 345228 
3598.845 325232 301292 273972 244863 217082 193612 176772 167657 166033 
3603.185 170441 178562 187778 195170 197722 193081 178894 153868 118370 
3607.524 74922 27767 -17494 -56257 -85576 -106115 -121452 -136822 -157258 
3611.864 -185676 -221842 -261613 -298733 -327340 -343563 -347966 -344192 
3615.721 -339391 -340881 -354919 -385012 -430926 -488551 -550570 -608709 
3619.579 -655029 -684407 -695522 -690494 -674019 -651224 -627171 -605930 
3623.436 -588492 -575421 -565561 -557751 -552456 -551960 -560795 -584951 
3627.293 -629388 -694960 -775835 -858912 -927953 -969181 -977744 -957809 
3631.151 -919621 -874983 -832919 -800277 -779209 -768195 -763829 -762407 
3635.008 -760885 -759099 -758405 -761216 -769617 -784269 -804312 -827099 
3638.866 -850314 -871444 -889301 -904015 -916017 -925672 -932814 -936318 
3642.723 -934632 -926862 -913141 -895451 -877330 -863310 -858316 -866584 
3646.581 -890227 -929772 -983066 -1045841 -1113002 -1178600 -1236457 
3649.956 -1280794 -1306529 -1310394 -1291795 -1254166 -1203284 -1146777 
3653.331 -1093404 -1050932 -1025049 -1018934 -1031264 -1056352 -1085273 
3656.706 -1108409 -1118753 -1113366 -1093536 -1064054 -1030900 -999596 
3660.082 -974901 -959627 -954469 -957809 -967066 -978471 -988389 -993513 
3663.939 -991992 -981975 -962669 -933475 -894591 -847470 -794026 -736805 
3667.796 -676666 -610231 -526611 -407821 -229558 32207 390859 847998 1392667 
3672.136 2009882 2682516 3392757 4119014 4820420 5432866 5874993 6063481 
3675.993 5951306 5546821 4906332 4107607 3226988 2334159 1484587 725113 
3679.851 91691 -399445 -751789 -987992 -1139408 -1238472 -1309931 -1367407 
3683.708 -1415199 -1452979 -1480685 -1500959 -1519582 -1544147 -1580001 
3687.083 -1628727 -1686623 -1745600 -1796550 -1833011 -1852675 -1857129 
3690.459 -1849970 -1834232 -1811861 -1784473 -1754213 -1723488 -1695468 
3693.834 -1673354 -1658963 -1652361 -1652064 -1655761 -1660547 -1664574 
3697.209 -1666687 -1667116 -1666951 -1668007 -1672232 -1682002 -1698933 
3700.584 -1723752 -1755104 -1789522 -1821463 -1845581 -1857426 -1855512 
3703.960 -1841391 -1818625 -1791436 -1763750 -1737712 -1713686 -1690880 
3707.335 -1667743 -1644010 -1620243 -1598456 -1582114 -1573861 -1575875 
3710.710 -1588255 -1609085 -1634405 -1659029 -1677381 -1685467 -1680846 
3714.085 -1664277 -1638597 -1607633 -1575974 -1547647 -1524799 -1508025 
3717.461 -1496072 -1486926 -1479133 -1472627 -1468764 -1470217 -1479232 
3720.836 -1496436 -1520209 -1547449 -1573795 -1596079 -1613047 -1625690 
3724.211 -1636055 -1647311 -1660910 -1676721 -1693059 -1706624 -1713950 
3727.586 -1713158 -1703587 -1686920 -1666225 -1645826 -1629816 -1621630 
3730.962 -1623016 -1632919 -1648136 -1664442 -1678503 -1690055 -1701508 
3734.337 -1717647 -1741672 -1773650 -1808561 -1837960 -1852675 -1847627 
3737.712 -1823442 -1785562 -1741177 -1697382 -1658699 -1626878 -1602021 
3741.087 -1585614 -1581190 -1596244 -1639587 -1717449 -1826643 -1949268 
3744.463 -2056458 -2117627 -2117792 -2063020 -1974963 -1878838 -1796913 
3747.838 -1744214 -1726921 -1741903 -1778335 -1822947 -1863167 -1891869 
3751.213 -1907077 -1909584 -1899226 -1874747 -1834759 -1780084 -1714610 
3754.588 -1645132 -1580199 -1525822 -1486893 -1464636 -1458197 -1464966 
3757.964 -1482072 -1507926 -1540119 -1575148 -1607534 -1630707 -1638531 
3761.339 -1628892 -1604860 -1573696 -1544873 -1527374 -1525261 -1537643 
3764.714 -1557915 -1577162 -1586802 -1583039 -1568017 -1548109 -1531138 
3768.089 -1522950 -1525988 -1538369 -1555141 -1569833 -1577459 -1576040 
3771.465 -1565904 -1549661 -1530379 -1510931 -1493728 -1479760 -1469193 
3774.840 -1461598 -1455720 -1450436 -1445846 -1443072 -1444987 -1454432 
3778.215 -1473717 -1502445 -1537345 -1571847 -1598456 -1612122 -1610802 
3781.590 -1596970 -1576073 -1554514 -1537610 -1528398 -1527176 -1532030 
3784.966 -1539855 -1547350 -1552038 -1552302 -1547085 -1535596 -1517832 
3788.341 -1495016 -1469556 -1445284 -1426559 -1416354 -1415463 -1422431 
3791.716 -1433462 -1444888 -1453871 -1460343 -1466749 -1476821 -1493134 
3795.091 -1515917 -1541770 -1564121 -1575809 -1572309 -1553953 -1526351 
3798.467 -1498120 -1480321 -1482039 -1508356 -1557089 -1618593 -1676919 
3801.842 -1714445 -1719198 -1689593 -1633282 -1564716 -1499044 -1450238 
3805.217 -1427583 -1433990 -1464438 -1507002 -1545897 -1567060 -1563956 
3808.592 -1537907 -1496469 -1448389 -1400865 -1358192 -1320799 -1287467 
3811.968 -1257106 -1230014 -1209562 -1201004 -1210289 -1241281 -1292687 
3815.343 -1357036 -1420153 -1467113 -1487025 -1477812 -1445912 -1402979 
3818.718 -1363708 -1340388 -1341412 -1368662 -1415265 -1466816 -1505813 
3822.093 -1519384 -1503535 -1463249 -1409485 -1354789 -1309403 -1279671 
3825.469 -1266720 -1267183 -1274715 -1282776 -1287104 -1287269 -1285617 
3828.844 -1286344 -1293050 -1306925 -1326844 -1349108 -1368959 -1382600 
3832.219 -1387456 -1383195 -1371536 -1355021 -1336820 -1320337 -1308544 
3835.594 -1304183 -1308874 -1322319 -1342171 -1363708 -1380982 -1388777 
3838.969 -1384846 -1370347 -1349141 -1326844 -1309469 -1301408 -1305108 
3842.345 -1320700 -1345838 -1376193 -1406380 -1431051 -1445549 -1447497 
3845.720 -1437194 -1416817 -1390792 -1363344 -1338274 -1317298 -1300153 
3849.095 -1285254 -1271246 -1259022 -1252712 -1260476 -1291564 -1354525 
3852.470 -1450766 -1569767 -1689098 -1781899 -1829216 -1826280 -1781866 
3855.846 -1710551 -1627505 -1543256 -1464603 -1394656 -1334244 -1283239 
3859.221 -1241941 -1210454 -1189174 -1178171 -1177080 -1185341 -1202226 
3862.596 -1227140 -1259749 -1298402 -1339661 -1376953 -1402781 -1410410 
3865.971 -1397265 -1366284 -1325986 -1288558 -1266291 -1268670 -1298204 
3869.347 -1349306 -1407206 -1453871 -1476293 -1469920 -1439968 -1397496 
3872.722 -1355252 -1323145 -1305835 -1302267 -1306463 -1310856 -1309204 
3876.097 -1299393 -1283635 -1267711 -1258362 -1261566 -1280926 -1316208 
3879.472 -1362882 -1411962 -1454168 -1480123 -1484614 -1467410 -1433330 
3882.848 -1390395 -1347589 -1313994 -1295363 -1293315 -1303886 -1317991 
3886.223 -1325886 -1319379 -1296618 -1261599 -1222778 -1190099 -1172090 
3889.598 -1174371 -1197237 -1235895 -1280926 -1322418 -1352048 -1365921 
3892.973 -1364798 -1351982 -1331700 -1306925 -1279836 -1251556 -1222976 
3896.349 -1196312 -1173941 -1158311 -1151900 -1155105 -1166142 -1181739 
3899.724 -1197997 -1212106 -1223042 -1232294 -1242008 -1254628 -1271147 
3903.099 -1290143 -1308313 -1321790 -1327010 -1321625 -1306364 -1283041 
3906.474 -1254628 -1224166 -1194230 -1166605 -1142283 -1121628 -1104806 
3909.850 -1091388 -1080745 -1072119 -1064715 -1057807 -1051130 -1045147 
3913.225 -1040552 -1038768 -1040751 -1047791 -1059658 -1075622 -1093536 
3916.600 -1111251 -1125991 -1135905 -1140069 -1138681 -1132600 -1122620 
3919.975 -1109598 -1094164 -1077374 -1060120 -1044585 -1032950 -1027529 
3923.351 -1030008 -1040652 -1057873 -1078828 -1099485 -1116902 -1129064 
3926.726 -1136103 -1139309 -1140730 -1142085 -1144101 -1146414 -1148132 
3930.101 -1148331 -1146315 -1142713 -1138053 -1133360 -1128800 -1123909 
3933.476 -1117762 -1109499 -1098824 -1086628 -1074333 -1063690 -1056451 
3936.852 -1053311 -1054138 -1057972 -1063690 -1070168 -1076713 -1083224 
3940.227 -1090099 -1097833 -1106558 -1115812 -1125297 -1133988 -1140532 
3943.602 -1144464 -1145290 -1142911 -1138152 -1132171 -1126189 -1121232 
3946.977 -1117828 -1115646 -1114060 -1111515 -1107020 -1099849 -1090033 
3950.353 -1078299 -1065806 -1053840 -1042999 -1033677 -1026206 -1020719 
3953.728 -1017777 -1017480 -1020223 -1026041 -1034206 -1043594 -1053014 
3957.103 -1061410 -1068152 -1073341 -1077341 -1080646 -1083687 -1086166 
3960.478 -1087818 -1088083 -1086166 -1081935 -1074961 -1065310 -1052783 
3963.854 -1037875 -1020719 -1002703 -985017 -969214 -956519 -947262 -941278 
3967.711 -937806 -935293 -932814 -930136 -927490 -925771 -925771 -927854 
3971.568 -932086 -937773 -944319 -950932 -957081 -962040 -965346 -965776 
3975.426 -962834 -955593 -944386 -929706 -913174 -896641 -881497 -869097 
3979.283 -859705 -852926 -848429 -846147 -846048 -848065 -852529 -858779 
3983.141 -866154 -873495 -879811 -884175 -886688 -887482 -887184 -886424 
3986.998 -885961 -885796 -886523 -887912 -889929 -892343 -894327 -895054 
3990.855 -893798 -890392 -885498 -880538 -877463 -877893 -882886 -892045 
3994.713 -903684 -916017 -926928 -935326 -941112 -945113 -948518 -952287 
3998.570 -957280 -963297 -970305 -977744 -985083 
##END=
