
##TITLE=Z240_3_e
##JCAMP-DX=5.01  $$ Nicolet v. 1
##DATATYPE=INFRARED SPECTRUM
##ORIGIN=UniL
##OWNER=Nicolet
##LONGDATE=2011/09/09
##TIME=11:59:11
##SPECTROMETER/DATA SYSTEM=Nicolet iS5
##DATA PROCESSING=
Ratio against background
%Transmittance->Absorbance
Truncated
ElementMultiply or ElementDivide
##COMMENTS=
Number of sample scans: 32
Collection length: 51.20 sec
Sample gain: 2.0
Background collected on: Ven Sep 09 11:46:17 2011 (GMT+02:00);
Number of background scans: 32
Background gain: 2.0
Sample spacing:  1.000
Number of scan points: 12415
Resolution points: 8192
Number of FFT points: 65536
Apodization: N-B fort;
Phase correction: Mertz;
Laser frequency: 15798.0 cm-1
Number of rejected sample scans: 0
Number of rejected background scans: 0
Bench serial number: ASB1000141;
##RESOLUTION=4.000
##XUNITS=1/CM
##YUNITS=ABSORBANCE
##FIRSTX=649.893372
##LASTX=4000.122314
##FIRSTY=0.086355
##MAXX=4000.122314
##MINX=649.893372
##MAXY=0.293976
##MINY=-0.001418
##XFACTOR=1.000000
##YFACTOR=1.000000E-009
##NPOINTS=6950
##DELTAX=0.482117
##ZPD=6100
##XYDATA=(X++(Y..Y))
649.893 86355128 86149696 85967152 85832568 85756664 85737656 85767608 
653.268 85844352 85976928 86186952 86495096 86911496 87427048 88016536 
656.643 88649160 89305416 89986760 90716816 91529544 92452456 93498048 
660.018 94660904 95926632 97285000 98739960 100305992 102001088 103831064 
663.393 105784056 107834328 109954976 112129312 114341224 116564496 
666.285 118728048 120674752 122177920 123001536 123021728 122302704 
669.178 121045096 119462992 117691672 115784648 113743472 111559056 
672.071 109247872 106861192 104470448 102153016 99961624 97915472 96007432 
675.446 94219840 92539336 90963880 89500648 88156592 86930888 85812016 
678.820 84780384 83815024 82900560 82028920 81198248 80407392 79653368 
682.195 78928864 78225800 77537136 76861152 76201184 75564384 74958112 
685.570 74386672 73850976 73349360 72878968 72437424 72022608 71631720 
688.945 71259256 70896664 70532192 70151792 69743704 69298264 68810768 
692.320 68281664 67714992 67119192 66504860 65885960 65278492 64697788 
695.694 64157808 63668296 63233600 62852560 62520496 62231732 61981412 
699.069 61768520 61594564 61464648 61384076 61356596 61381368 61452092 
702.444 61556688 61679532 61805768 61924172 62029228 62122572 62211008 
705.819 62303740 62408812 62532396 62676712 62841960 63027412 63233636 
709.194 63464432 63730224 64049744 64451852 64978188 65674536 66582524 
712.569 67726064 69092632 70622864 72202128 73686008 74915048 75748600 
715.943 76106504 75977456 75428952 74583848 73610712 72692744 71994728 
719.318 71667320 71825264 72534408 73806120 75574864 77694344 79920776 
722.693 81954360 83485168 84232448 84033856 82874168 80900904 78376664 
726.068 75626408 72967584 70623528 68718264 67271888 66232420 65512032 
729.443 65023176 64702636 64508320 64415260 64405584 64458616 64552948 
732.817 64670412 64799564 64937368 65086068 65246372 65413640 65577804 
736.192 65727228 65855728 65966368 66071480 66186688 66323548 66484272 
739.567 66660508 66838092 67004152 67153648 67291040 67427280 67573160 
742.942 67734504 67908880 68088336 68262824 68425504 68573976 68708984 
746.317 68830880 68937624 69024384 69087200 69126352 69149664 69170064 
749.692 69201928 69255008 69330600 69421296 69516048 69605768 69687920 
753.066 69768104 69856856 69965136 70099920 70262600 70450896 70661536 
756.441 70893120 71145144 71416232 71701592 71991640 72274992 72542664 
759.816 72792136 73029040 73264592 73510744 73773536 74052152 74341056 
763.191 74636224 74942920 75280968 75683360 76195736 76869816 77753976 
766.566 78892112 80310720 82007664 83936248 85996920 88044000 89894400 
769.940 91386720 92431264 93058944 93436256 93838728 94585096 95904936 
773.315 97858680 100259912 102710384 104644280 105479632 104818232 102525432 
776.690 98799688 94075880 88938312 83944368 79493424 75819064 72960528 
780.065 70824232 69241840 68042328 67091308 66297652 65616912 65031796 
783.440 64537300 64133956 63826120 63624792 63546540 63611708 63839132 
786.815 64240320 64820140 65579616 66521772 67657328 69005896 70593200 
790.189 72448776 74601048 77075680 79902256 83114480 86751576 90854760 
793.564 95452240 100543448 106077784 111949704 117988656 123955944 129584416 
796.939 134581200 138663136 141618656 143330448 143822480 143258880 
799.832 141944496 140269616 138615712 137326560 136610288 136499696 
802.724 136836400 137293872 137457488 136876992 135213584 132317008 
805.617 128265696 123348784 117989432 112653624 107698576 103328600 99560360 
808.992 96255120 93179168 90085496 86804088 83262440 79500832 75631928 
812.367 71805800 68160280 64788132 61741364 59029732 56638216 54539696 
815.742 52706288 51112172 49732940 48546968 47535160 46681772 45977080 
819.116 45416200 44997104 44718032 44574600 44559616 44665808 44888520 
822.491 45229768 45698628 46310556 47083400 48031756 49163664 50475580 
825.866 51949892 53549564 55217980 56881840 58446672 59816404 60907012 
829.241 61661236 62070852 62182976 62103232 61971020 61950272 62205844 
832.616 62866576 64016676 65668792 67754328 70108416 72475400 74554344 
835.990 76005208 76529816 75940560 74187584 71387880 67786744 63727072 
839.365 59556112 55568164 51987088 48928668 46421824 44431396 42889036 
842.740 41715452 40835008 40187888 39724100 39402096 39190416 39063912 
846.115 39005768 39007324 39063804 39170976 39322032 39506928 39714584 
849.490 39937968 40176472 40436784 40729900 41067052 41454956 41894760 
852.865 42383520 42918112 43499508 44133796 44830984 45602120 46456224 
856.239 47399068 48435080 49571312 50819492 52199088 53736000 55458784 
859.614 57400520 59596588 62082896 64897656 68070856 71610696 75482488 
862.989 79590640 83769408 87768632 91298720 94058440 95772352 96262640 
866.364 95466112 93455240 90415920 86629112 82426040 78114728 73975576 
869.739 70221544 66980996 64320920 62248864 60732676 59712524 59114196 
873.113 58860056 58863964 59041384 59311660 59594724 59826256 59961276 
876.488 59979380 59888544 59721272 59528596 59363360 59272316 59284316 
879.863 59403060 59607156 59855156 60098772 60289072 60391712 60394036 
883.238 60305972 60157336 59986796 59835456 59733628 59698040 59733096 
886.613 59835532 60003196 60240840 60562980 60991464 61550160 62255212 
889.987 63110432 64103812 65211760 66401720 67639248 68895336 70144584 
893.362 71366784 72545840 73665792 74710944 75665968 76512984 77231568 
896.737 77798400 78184224 78359480 78299480 77990520 77437288 76665040 
900.112 75719576 74656992 73538888 72425600 71366008 70400272 69559328 
903.487 68864112 68331264 67972232 67794032 67800344 67992504 68369928 
906.862 68932880 69682712 70622320 71754904 73082752 74606360 76324208 
910.236 78234880 80337864 82634160 85125216 87808904 90677128 93715576 
913.611 96905248 100229024 103680152 107268288 111023048 114987936 119217184 
916.986 123762792 128660352 133919176 139505824 145337088 151254592 
919.879 157029168 162375856 166951776 170433840 172576912 173270336 
922.771 172596784 170840432 168483712 166097696 164300192 163673520 
925.664 164637216 167433008 172060288 178282144 185608016 193336800 
928.557 200687408 206800528 210903680 212437632 211067120 206747120 
931.450 199684352 190300480 179150944 166851584 154063440 141382800 
934.342 129318136 118286664 108553696 100267344 93475744 88145424 84200912 
937.717 81548032 80096024 79752496 80410192 81935792 84130528 86724136 
941.092 89404936 91811288 93605328 94532336 94439416 93316624 91281464 
944.467 88560496 85426664 82151040 78978776 76079776 73554080 71440528 
947.841 69729280 68382528 67349960 66584064 66041432 65684436 65483020 
951.216 65408708 65435828 65542892 65712080 65931036 66193180 66494972 
954.591 66834540 67209376 67615432 68047872 68502280 68975952 69468256 
957.966 69979888 70511112 71061200 71627464 72206704 72796680 73397384 
961.341 74011288 74641968 75292824 75964632 76656224 77364512 78087000 
964.716 78823056 79574440 80344040 81134216 81945400 82775576 83621728 
968.090 84481560 85355032 86244416 87153360 88084384 89037008 90008120 
971.465 90993496 91990120 92997912 94020256 95062504 96129376 97222376 
974.840 98340320 99479984 100639392 101819288 103024000 104259224 105530328 
978.215 106839872 108188016 109573840 110998568 112466848 113987144 
981.108 115568720 117218528 118938496 120725064 122571040 124467168 
984.000 126404536 128372776 130355464 132328648 134254960 136086848 
986.893 137775488 139274928 140552272 141593856 142404624 143006336 
989.786 143431968 143726608 143941120 144129424 144348992 144650768 
992.678 145074480 145646048 146373520 147251504 148266224 149403392 
995.571 150652208 152007280 153466224 155026336 156681248 158421856 
998.464 160237616 162120224 164065616 166071664 168133488 170239664 
1001.356 172367296 174486032 176563792 178572368 180496080 182332080 
1004.249 184090160 185787040 187443872 189086464 190743424 192449712 
1007.142 194244688 196164496 198237856 200477680 202879520 205423152 
1010.035 208079552 210821776 213625152 216470336 219338880 222206448 
1012.927 225042128 227813584 230491600 233060576 235520448 237882352 
1015.820 240157376 242345312 244425984 246362688 248108512 249619024 
1018.713 250866800 251845504 252572960 253085680 253440880 253714352 
1021.605 253992320 254377424 254974640 255872672 257140912 258811856 
1024.498 260882320 263317200 266063008 269060192 272242496 275541856 
1027.391 278880800 282157824 285258208 288054880 290418816 292244224 
1030.284 293448960 293976096 293792768 292880512 291236768 288879296 
1033.177 285855456 282244416 278144672 273668320 268915808 263959952 
1036.070 258848544 253604864 248241024 242770720 237216432 231610640 
1038.963 225997248 220425568 214950784 209637296 204546752 199735232 
1041.856 195236560 191043744 187097760 183282496 179449904 175431952 
1044.750 171081328 166311376 161104384 155522384 149684512 143755712 
1047.643 137908480 132294488 127043992 122242984 117935488 114131952 
1050.536 110813368 107941080 105464384 103331248 101492144 99902568 98527768 
1053.911 97337656 96303872 95398792 94590376 93842432 93119712 92387360 
1057.286 91616600 90787944 89890160 88921520 87889216 86810040 85709720 
1060.661 84621240 83586176 82647864 81847496 81222888 80801800 80602024 
1064.037 80631464 80887664 81358384 82019072 82834792 83755472 84717800 
1067.412 85655480 86499824 87192368 87695152 87990400 88081712 87988576 
1070.787 87741176 87372104 86910968 86384264 85811856 85208624 84586536 
1074.162 83955576 83326616 82714080 82135232 81610808 81163296 80810856 
1077.538 80565328 80428336 80390968 80435272 80537520 80674672 80823672 
1080.913 80964664 81080256 81153464 81169080 81117360 80997888 80825552 
1084.288 80631976 80468968 80400496 80496520 80830344 81464008 82446592 
1087.663 83808312 85553184 87655336 90050968 92645096 95305648 97875784 
1091.039 100205024 102153816 103622936 104567976 104997528 104968584 
1093.932 104566752 103898704 103069320 102169408 101278768 100457712 
1096.825 99750792 99192976 98806144 98598696 98560112 98656576 98824192 
1100.200 98965112 98963744 98687848 98010000 96838864 95125808 92884224 
1103.575 90182376 87139880 83905296 80626280 77448064 74487312 71824872 
1106.950 69513056 67573232 66003820 64787596 63898548 63305816 62974164 
1110.326 62868612 62952212 63183620 63521184 63917704 64321348 64682180 
1113.701 64950832 65085760 65060436 64863144 64499436 63987964 63358180 
1117.076 62644368 61879272 61095188 60318648 59570248 58866316 58217660 
1120.451 57630876 57110076 56656448 56269820 55947716 55684308 55468304 
1123.827 55280408 55095264 54881504 54607024 54248044 53792852 53247640 
1127.202 52634876 51991980 51362748 50787428 50300132 49921428 49657224 
1130.577 49500752 49435512 49438220 49480252 49532616 49568416 49565296 
1133.952 49510964 49404732 49258664 49093840 48937604 48818128 48757144 
1137.328 48768636 48855984 49012560 49222444 49462540 49706192 49922468 
1140.703 50081176 50157036 50129740 49988336 49730524 49361928 48893768 
1144.078 48339852 47716556 47040272 46327844 45597372 44865740 44148468 
1147.453 43458304 42802112 42181920 41595176 41037372 40504036 39992968 
1150.829 39505000 39043140 38611388 38212632 37849412 37523268 37236068 
1154.204 36990728 36790964 36640064 36540072 36490300 36487956 36528356 
1157.579 36607368 36722052 36871248 37055096 37273904 37527208 37813444 
1160.954 38130252 38474848 38844276 39234440 39639004 40048888 40451264 
1164.330 40831224 41174068 41465928 41696156 41857508 41945048 41955848 
1167.705 41888924 41745728 41531000 41253676 40927224 40567036 40189560 
1171.080 39810340 39441316 39092552 38772648 38489364 38252140 38071256 
1174.455 37956792 37918212 37963192 38097048 38324844 38651628 39083848 
1177.831 39629204 40296180 41092548 42026180 43104032 44334032 45726968 
1181.206 47294716 49051396 51011324 53186400 55586012 58215652 61076540 
1184.581 64161920 67453400 70917688 74496952 78107984 81650592 85001040 
1187.956 88031096 90622672 92666544 94082304 94823032 94877568 94273560 
1191.332 93073104 91370320 89272904 86896488 84357488 81753368 79167072 
1194.707 76660920 74271664 72017648 69899672 67907256 66023804 64232060 
1198.082 62519036 60876288 59301520 57796368 56364652 55010032 53734312 
1201.457 52537488 51418212 50374804 49407256 48517548 47709528 46987988 
1204.833 46356080 45813860 45356756 44976856 44663640 44405960 44195348 
1208.208 44024728 43889000 43783808 43703700 43642732 43595544 43558876 
1211.583 43534008 43526940 43548696 43612728 43732868 43922400 44191456 
1214.958 44547980 44997508 45543092 46185316 46921760 47747320 48654764 
1218.333 49636796 50687736 51804796 52987848 54238844 55560292 56955088 
1221.709 58426164 59978504 61620644 63364432 65224968 67217304 69352256 
1225.084 71634648 74059584 76612264 79265928 81984656 84721232 87415784 
1228.459 90003840 92414624 94576904 96430912 97928336 99038744 99753752 
1231.834 100089192 100089272 99823344 99394248 98928792 98562688 98444920 
1235.210 98713424 99484224 100856008 102897624 105652360 109142720 113371128 
1238.585 118320160 123946384 130183368 136931248 144053424 151396080 
1241.478 158777952 166000704 172871776 179187376 184749344 189385904 
1244.371 192948848 195338000 196509456 196474208 195292384 193057984 
1247.264 189898208 185955904 181380832 176329904 170938384 165308992 
1250.157 159501472 153524256 147345088 140908944 134169880 127111168 
1253.050 119766424 112218832 104600352 97073976 89799296 82930912 76590640 
1256.426 70851920 65747312 61265132 57361948 53970540 51014712 48419224 
1259.801 46109628 44023480 42110356 40329952 38656444 37074404 35575852 
1263.176 34158012 32819174 31557456 30369992 29254238 28208550 27233176 
1266.551 26329158 25497008 24735156 24039386 23403786 22822996 22293870 
1269.927 21816946 21395540 21034878 20739188 20511152 20352264 20263204 
1273.302 20245986 20303652 20438906 20652310 20939490 21290294 21688682 
1276.677 22113128 22540220 22943982 23298054 23578420 23764218 23841988 
1280.052 23808700 23673722 23456592 23182002 22875836 22556766 22233150 
1283.427 21904684 21565118 21208664 20835226 20452314 20073866 19717144 
1286.803 19396778 19123150 18901636 18733786 18620504 18563718 18565310 
1290.178 18626592 18746172 18919046 19137590 19393072 19678138 19985768 
1293.553 20309382 20640704 20968074 21277978 21557982 21799980 22003490 
1296.928 22176516 22334576 22495868 22679318 22902452 23179870 23523780 
1300.304 23943548 24442686 25015012 25640286 26285472 26902462 27437202 
1303.679 27840632 28072090 28108996 27948396 27604638 27105522 26486060 
1307.054 25788290 25053060 24319530 23623584 22991702 22441118 21978256 
1310.429 21600602 21299622 21065692 20892170 20775264 20714130 20707772 
1313.805 20753124 20845134 20977844 21146218 21348100 21583260 21850988 
1317.180 22147436 22464078 22788356 23107354 23412494 23701470 23978876 
1320.555 24252988 24531902 24819172 25112562 25405484 25690518 25961880 
1323.930 26218206 26463064 26704254 26953932 27226896 27542078 27920552 
1327.306 28380952 28936608 29587564 30317938 31093926 31871554 32605604 
1330.681 33257290 33805612 34248136 34599920 34885276 35131980 35366024 
1334.056 35606924 35869408 36164456 36499960 36881708 37312752 37793740 
1337.431 38323760 38902508 39531964 40216968 40963160 41773816 42647208 
1340.807 43575324 44545336 45541620 46548604 47550536 48528808 49462912 
1344.182 50327512 51095548 51743912 52256744 52628256 52861640 52963624 
1347.557 52938176 52780772 52476464 52002400 51337392 50467912 49397564 
1350.932 48149124 46766160 45305816 43829876 42403760 41085228 39922096 
1354.308 38952668 38199496 37668620 37347272 37206900 37206720 37300692 
1357.683 37449400 37621896 37799200 37973248 38143096 38312576 38489508 
1361.058 38689440 38936540 39261752 39701700 40285492 41025500 41913296 
1364.433 42919356 44001076 45105644 46180192 47171520 48023020 48681748 
1367.809 49098476 49233728 49067092 48598692 47850448 46858604 45671240 
1371.184 44342028 42922576 41470228 40046488 38713816 37539416 36581416 
1374.559 35876532 35434292 35235852 35245804 35424836 35746352 36202808 
1377.934 36807876 37591476 38596144 39874224 41481056 43474528 45904628 
1381.310 48791840 52100828 55709852 59416696 62926516 65896212 68004864 
1384.685 68964024 68586624 66822836 63794380 59800092 55258768 50655492 
1388.060 46395864 42736588 39782124 37502712 35797188 34535840 33601652 
1391.435 32897368 32347408 31901006 31522326 31189256 30893260 30635192 
1394.811 30422158 30261236 30155704 30102822 30095934 30127008 30188912 
1398.186 30277826 30392130 30532448 30700158 30897032 31124004 31381294 
1401.561 31667854 31981818 32321028 32683582 33069998 33483028 33928192 
1404.936 34410292 34932100 35492356 36086280 36707920 37353552 38023372 
1408.312 38721024 39451336 40217764 41020072 41855536 42720208 43611080 
1411.687 44524632 45453316 46378864 47270336 48085496 48777900 49314040 
1415.062 49683376 49905964 50027448 50113604 50237972 50465568 50848700 
1418.437 51415080 52161796 53056168 54045136 55070660 56079388 57033140 
1421.813 57913492 58722456 59487672 60260024 61108920 62099332 63273272 
1425.188 64637376 66163892 67805880 69512784 71248360 72988752 74718976 
1428.563 76427992 78101280 79723472 81284336 82788888 84261488 85739592 
1431.938 87269200 88889840 90629736 92509160 94549880 96788640 99283664 
1435.313 102109888 105335904 108993552 113042896 117381656 121884208 
1438.207 126438096 130955712 135351680 139527424 143331568 146561360 
1441.100 149006992 150459712 150765632 149854416 147736288 144501888 
1443.993 140299536 135336368 129844696 124052536 118191520 112465128 
1446.886 107051888 102118360 97791904 94145680 91179592 88825032 86968656 
1450.261 85491536 84312944 83404056 82787320 82508976 82609464 83093976 
1453.636 83928688 85044648 86358760 87798440 89298624 90817152 92333264 
1457.011 93854688 95407088 97023344 98746624 100612456 102649608 104879608 
1460.387 107309440 109926216 112687512 115527648 118340704 120975928 
1463.280 123265424 125031424 126144768 126575544 126414072 125841456 
1466.173 125052776 124220280 123454312 122806744 122296464 121916104 
1469.066 121638480 121405200 121119928 120645224 119806456 118448320 
1471.959 116492176 113993560 111136872 108169192 105310864 102691832 
1474.852 100368488 98359264 96678968 95361312 94448104 93963024 93898120 
1478.227 94206096 94817720 95657576 96669152 97827848 99138352 100628952 
1481.603 102335792 104294352 106532976 109078952 111969600 115255720 
1484.496 118997192 123243112 128007112 133229208 138742304 144284592 
1487.389 149476912 153857744 156960816 158339936 157680608 154894016 
1490.282 150161184 143914336 136704736 129090160 121489088 114138248 
1493.175 107149120 100530416 94259896 88347088 82846584 77867576 73547360 
1496.550 69998968 67272160 65340304 64129120 63543736 63496948 63923656 
1499.925 64770216 65987044 67523224 69316960 71297992 73395848 75521088 
1503.301 77568712 79409400 80852328 81650592 81513528 80170376 77512936 
1506.676 73709248 69185688 64425372 59779824 55402768 51304052 47442972 
1510.051 43791024 40347076 37146836 34239960 31661228 29424360 27515142 
1513.426 25900996 24543752 23407318 22460764 21672694 21012620 20454120 
1516.802 19978968 19584158 19278648 19074088 18973422 18964906 19020152 
1520.177 19106218 19196876 19289524 19408246 19591784 19870078 20247166 
1523.552 20705476 21217118 21760474 22326866 22926308 23579748 24309824 
1526.927 25127272 26027064 26992678 28006810 29059274 30150874 31292048 
1530.302 32497608 33780436 35149764 36608268 38151780 39770212 41445916 
1533.678 43154896 44868716 46561920 48212804 49805692 51321880 52740704 
1537.053 54041908 55198680 56186548 56984404 57577420 57954496 58109240 
1540.428 58047616 57790008 57372384 56836972 56215360 55517480 54729640 
1543.803 53826308 52789008 51626948 50381912 49118692 47896764 46743428 
1547.179 45648748 44572652 43468744 42307544 41098048 39886136 38740372 
1550.554 37716504 36834568 36077248 35404416 34776964 34174964 33605948 
1553.929 33098426 32682330 32367862 32136210 31939842 31716936 31393834 
1557.304 30893902 30153538 29147708 27927054 26621140 25384512 24321632 
1560.680 23458376 22765554 22190918 21681680 21191130 20685842 20149524 
1564.055 19588318 19027940 18504554 18051322 17681794 17387516 17142310 
1567.430 16915122 16680306 16426552 16160360 15901821 15674250 15493014 
1570.805 15361934 15275987 15228182 15212156 15223343 15255670 15298296 
1574.181 15335469 15350605 15333031 15287587 15237139 15215142 15247228 
1577.556 15340994 15486490 15666280 15864154 16072122 16292162 16532999 
1580.931 16805448 17117288 17470192 17859804 18278552 18716870 19163282 
1584.306 19603570 20017134 20378548 20662526 20848052 20927182 20908894 
1587.682 20820520 20701758 20598940 20559126 20619926 20809364 21144546 
1591.057 21629890 22255294 22990410 23786406 24571102 25258104 25765928 
1594.432 26023722 25991394 25666474 25084512 24310102 23418298 22488294 
1597.807 21585664 20758756 20044926 19468054 19042550 18774404 18661282 
1601.183 18693798 18859176 19145276 19541838 20039582 20627954 21289878 
1604.558 21998716 22722188 23419418 24047126 24565492 24936470 25129834 
1607.933 25125834 24915168 24501158 23898838 23136814 22254770 21301500 
1611.308 20333408 19400798 18541830 17777470 17108982 16523154 15999202 
1614.684 15515986 15056668 14613117 14189259 13799503 13464094 13201417 
1618.059 13021927 12925588 12903264 12938149 13009841 13098072 13184886 
1621.434 13260957 13328294 13400426 13497110 13635664 13824130 14059016 
1624.809 14329814 14625180 14938408 15266893 15609674 15963485 16320441 
1628.185 16669219 16999740 17308272 17598666 17880554 18164386 18455874 
1631.560 18753368 19046876 19322224 19564748 19761146 19902788 19986602 
1634.935 20015574 19998260 19948404 19881768 19811534 19745438 19684066 
1638.310 19621906 19548284 19450936 19320632 19154488 18959332 18749112 
1641.686 18540756 18346742 18169778 18002070 17827214 17625478 17378930 
1645.061 17078516 16727995 16346311 15962970 15610910 15318066 15100303 
1648.436 14960664 14892833 14884089 14915363 14960870 14987621 14952948 
1651.811 14812876 14544656 14173546 13780897 13458044 13256482 13168731 
1655.187 13156265 13175630 13195372 13198412 13178807 13137925 13079905 
1658.562 13008236 12923403 12823741 12706769 12571206 12417206 12246763 
1661.937 12062183 11866987 11665787 11465768 11275806 11105165 10959567 
1665.312 10839360 10737627 10641690 10533894 10396191 10215549 9986868 
1668.688 9716935 9421839 9123832 8842362 8591218 8376430 8197369 8048895 
1672.545 7921188 7800908 7671791 7517765 7330026 7112762 6885709 6675901 
1676.402 6506924 6387942 6313469 6267884 6234337 6201464 6166443 6135156 
1680.260 6117413 6121109 6145742 6180962 6207951 6206304 6161638 6076686 
1684.117 5973309 5885673 5840939 5845943 5891618 5962592 6046312 6135727 
1687.975 6228253 6324295 6423620 6525255 6627889 6731827 6839828 6956442 
1691.832 7085582 7227596 7377139 7522721 7650309 7746565 7805799 7835150 
1695.689 7854582 7888897 7951221 8038768 8132983 8208444 8237417 8198821 
1699.547 8088455 7926553 7754694 7613586 7524170 7481121 7464738 7451053 
1703.404 7420919 7361400 7266274 7136878 6981594 6813776 6646528 6489434 
1707.262 6346652 6216791 6094999 5974887 5851451 5722509 5589746 5457695 
1711.119 5332392 5218863 5118606 5030037 4949060 4871315 4793584 4715465 
1714.977 4637828 4560306 4480388 4393053 4293121 4180799 4064293 3958317 
1718.834 3877673 3831140 3818738 3833245 3863699 3899036 3932504 3961627 
1722.691 3988178 4016468 4050447 4091619 4138983 4190334 4243097 4296635 
1726.549 4350146 4402024 4448887 4484740 4503857 4502785 4482832 4449991 
1730.406 4412133 4375013 4337362 4289674 4215494 4097138 3925449 3710349 
1734.264 3480224 3273357 3117078 3017271 2963757 2937970 2922892 2905580 
1738.121 2879863 2845275 2806222 2768673 2737862 2717423 2708388 2710888 
1741.979 2724158 2747265 2777576 2811591 2845409 2875893 2901610 2923626 
1745.836 2943808 2963824 2983874 3001724 3014102 3018139 3012133 2996552 
1749.693 2972998 2943374 2909015 2870690 2829700 2788814 2751333 2720291 
1753.551 2696118 2675881 2653145 2620075 2569977 2501221 2418581 2333326 
1757.408 2258479 2202195 2165763 2143187 2124407 2098170 2057719 2000861 
1761.266 1931763 1857917 1787144 1724534 1672043 1629503 1595847 1570939 
1765.123 1554079 1544004 1538085 1532266 1523122 1509955 1495093 1483855 
1768.980 1480830 1487479 1500213 1511352 1511651 1494262 1459519 1415570 
1772.838 1374817 1347861 1339186 1346233 1362685 1381930 1401044 1420357 
1776.695 1442796 1470856 1504436 1539914 1571438 1593652 1604028 1604460 
1780.553 1600203 1597310 1599505 1606522 1615468 1621987 1623417 1619925 
1784.410 1613972 1609449 1609549 1614903 1625047 1638683 1655778 1677099 
1788.268 1703942 1735977 1770410 1801651 1822113 1824709 1805976 1767648 
1792.125 1715984 1659836 1606556 1559766 1519830 1484886 1453302 1425177 
1795.982 1401210 1381930 1366740 1352847 1336760 1315822 1289567 1260091 
1799.840 1231580 1208255 1192506 1184432 1181774 1182372 1184698 1189416 
1803.697 1197390 1209085 1223572 1238425 1250720 1258662 1262583 1264776 
1807.555 1268731 1276706 1288670 1302993 1316453 1326490 1333270 1338854 
1811.412 1346798 1360159 1379936 1404600 1431460 1458521 1484753 1511651 
1815.270 1540912 1574065 1610646 1648262 1683652 1714720 1741034 1764687 
1819.127 1788875 1816723 1849398 1886469 1925972 1965512 2003158 2037379 
1822.984 2066741 2089847 2105295 2112454 2113053 2111721 2113686 2124640 
1826.842 2146783 2178151 2213051 2243858 2264275 2272302 2271569 2269771 
1830.699 2275933 2295552 2328962 2372437 2420247 2468197 2514984 2561911 
1834.557 2612375 2669213 2733361 2803621 2877928 2955250 3036190 3123752 
1838.414 3221547 3332085 3455876 3591429 3735848 3886466 4041550 4199969 
1842.271 4360756 4522304 4682138 4838579 4991256 5142578 5296267 5454943 
1846.129 5618007 5780964 5935182 6070672 6178744 6254034 6295618 6305905 
1849.986 6288760 6247480 6182979 6094596 5982513 5848294 5697430 5536820 
1853.844 5373351 5211451 5051926 4893364 4733184 4570854 4407982 4248651 
1857.701 4096569 3953569 3818939 3689998 3564803 3442918 3327343 3221914 
1861.559 3130160 3052373 2985709 2924727 2865087 2804888 2746298 2693518 
1865.416 2651411 2621675 2603308 2591642 2581642 2570376 2557644 2546479 
1869.273 2540147 2540047 2544546 2550112 2553245 2551878 2546979 2540547 
1873.131 2534481 2528482 2520416 2505953 2482226 2447970 2404921 2356712 
1876.988 2306877 2257214 2207090 2155207 2099968 2042339 1984784 1930365 
1880.846 1881211 1836454 1792035 1743196 1686911 1623417 1557671 1496223 
1884.703 1446054 1410517 1389044 1377543 1370895 1365344 1359361 1352847 
1888.561 1346631 1339918 1332007 1321339 1308743 1297543 1292359 1297643 
1892.418 1315224 1342842 1374585 1403769 1425809 1440037 1450243 1462178 
1896.275 1480896 1508093 1541044 1576060 1609150 1639747 1669981 1703510 
1900.133 1742631 1786579 1831530 1871627 1902908 1924175 1938086 1949269 
1903.990 1961551 1976030 1991341 2004689 2013377 2018271 2021699 2027292 
1907.848 2036546 2047998 2056720 2057852 2047765 2026593 1998132 1967509 
1911.705 1938552 1912194 1887301 1861477 1835024 1810667 1793499 1787843 
1915.563 1794963 1810501 1826472 1833759 1826439 1805610 1777762 1751313 
1919.420 1732717 1722770 1715785 1704076 1681124 1644603 1598474 1550521 
1923.277 1507794 1475244 1452338 1435583 1420922 1406429 1393265 1384856 
1927.135 1383227 1387614 1394396 1398949 1397454 1389941 1379404 1370662 
1930.992 1366840 1368435 1372324 1374319 1372324 1366873 1361721 1360491 
1934.850 1364713 1372025 1377144 1374917 1363416 1345867 1329747 1323034 
1938.707 1330645 1351152 1378474 1404102 1421521 1428335 1427272 1423216 
1942.564 1419692 1416368 1410085 1397088 1377410 1355871 1341347 1342909 
1946.422 1366109 1409952 1466866 1527810 1584839 1634792 1679993 1723835 
1950.279 1768946 1813895 1854057 1883540 1900712 1907401 1910163 1915422 
1954.137 1926138 1939418 1949236 1947472 1930864 1901677 1868599 1840980 
1957.994 1826306 1825108 1830698 1834724 1829800 1813662 1790405 1766783 
1961.852 1747754 1735312 1728026 1722072 1717781 1717182 1724999 1744460 
1965.709 1775799 1811932 1845172 1867933 1878615 1881643 1885470 1896120 
1969.566 1915156 1937254 1953929 1959088 1953630 1944443 1944909 1964280 
1973.424 2004789 2058851 2114485 2159670 2190539 2212918 2238696 2279264 
1977.281 2337790 2406587 2469963 2514318 2530181 2518717 2487558 2445204 
1981.139 2396625 2340655 2272069 2187009 2088049 1984884 1891693 1822346 
1984.996 1783218 1771707 1778261 1791436 1804279 1816523 1834757 1865471 
1988.854 1911694 1969240 2027924 2076230 2106294 2117781 2116383 2111788 
1992.711 2110956 2116649 2127370 2139324 2150179 2162167 2179883 2207357 
1996.568 2245823 2291521 2336125 2372404 2395026 2404488 2404188 2399190 
2000.426 2391894 2381999 2366407 2342354 2311274 2277232 2246090 2223109 
2004.283 2209321 2201196 2193803 2183646 2171957 2164997 2170558 2192870 
2008.141 2229770 2272668 2308776 2329962 2333993 2326364 2316670 2314838 
2011.998 2323133 2340255 2359677 2375669 2387063 2397125 2410319 2430143 
2015.855 2454134 2476127 2489624 2492790 2491790 2501187 2535847 2604742 
2019.713 2705754 2826799 2947911 3051205 3126856 3175384 3205291 3227589 
2023.570 3249053 3270853 3289315 3298730 3297027 3286978 3273557 3262407 
2027.428 3254528 3247317 3235934 3217241 3193074 3170110 3156626 3158796 
2031.285 3176352 3205224 3238304 3271521 3305507 3346542 3400772 3470305 
2035.143 3550137 3629050 3694943 3739324 3762083 3770941 3777759 3792298 
2039.000 3818237 3852734 3887569 3914416 3928626 3930632 3923711 3912076 
2042.857 3898167 3881250 3861426 3839028 3818504 3806270 3809345 3830036 
2046.715 3867176 3913747 3960657 4000550 4028608 4042019 4040882 4024194 
2050.572 3991354 3943069 3883758 3822281 3771041 3743000 3745941 3779965 
2054.430 3835953 3898301 3953000 3990251 4008977 4015733 4020716 4030113 
2058.287 4047002 4067905 4086735 4099345 4105165 4106838 4109614 4116237 
2062.145 4125068 4131825 4130688 4118311 4096669 4071216 4048841 4034461 
2066.002 4029210 4029478 4030983 4030347 4028374 4028006 4032922 4043156 
2069.859 4054962 4061684 4056199 4035330 4001754 3962263 3926552 3900641 
2073.717 3885663 3877306 3869382 3855810 3835619 3811785 3790460 3777157 
2077.574 3774049 3779831 3790059 3800889 3810014 3817601 3825323 3833981 
2081.432 3841770 3846349 3844477 3835518 3822215 3810081 3805200 3810716 
2085.289 3826593 3847753 3867109 3879077 3880682 3872759 3858952 3843040 
2089.146 3826827 3810950 3793268 3772612 3748982 3724218 3700290 3679772 
2093.004 3663098 3650033 3640243 3634162 3633393 3640844 3657183 3681243 
2096.861 3708912 3735113 3755299 3768701 3778227 3788154 3803262 3825223 
2100.719 3851230 3877306 3898434 3912677 3922206 3932771 3950158 3978915 
2104.576 4020013 4070882 4127911 4187992 4250123 4315308 4384619 4457490 
2108.434 4531009 4600522 4661674 4712718 4754723 4791004 4825512 4860961 
2112.291 4896480 4930091 4958879 4982072 5001210 5019780 5040830 5066206 
2116.148 5095473 5125579 5154112 5180333 5205851 5234389 5269268 5311898 
2120.006 5360502 5411260 5459540 5502591 5540478 5575381 5610220 5647378 
2123.863 5687527 5729560 5772839 5817465 5864682 5916204 5972267 6029950 
2127.721 6084818 6131157 6165872 6189298 6206405 6224018 6248118 6281767 
2131.578 6322412 6364708 6403107 6434549 6460309 6485197 6513819 6548228 
2135.436 6587956 6626880 6660289 6685322 6704065 6720957 6741518 6768475 
2139.293 6800549 6832995 6860059 6877697 6885743 6886854 6884699 6881367 
2143.150 6876856 6868575 6855548 6838751 6821820 6809973 6806674 6809905 
2147.008 6814887 6811487 6792134 6753331 6698210 6632498 6565182 6500702 
2150.865 6439223 6377250 6310242 6235715 6155992 6075241 5998672 5928700 
2154.723 5863977 5801582 5741781 5690380 5659261 5664196 5718178 5822335 
2158.580 5965179 6124201 6274338 6395071 6478134 6523674 6539954 6535817 
2162.438 6516577 6485735 6445008 6396416 6344803 6294744 6248925 6205599 
2166.295 6159588 6103568 6032134 5946099 5850645 5755312 5669231 5598003 
2170.152 5541250 5494202 5450648 5406060 5359563 5313843 5272086 5237173 
2174.010 5208936 5185832 5165177 5146367 5129804 5116058 5104659 5091618 
2177.867 5070095 5034160 4980765 4912029 4835664 4761356 4698081 4651325 
2181.725 4619644 4599317 4585186 4575408 4570686 4574303 4588534 4612712 
2185.582 4643187 4673865 4699286 4718077 4731007 4740822 4749665 4756734 
2189.439 4758006 4750034 4730772 4702267 4670717 4645129 4630829 4631097 
2193.297 4643087 4661104 4679559 4695770 4708766 4722733 4739917 4760519 
2197.154 4782227 4800318 4809732 4808693 4798374 4781925 4763969 4747521 
2201.012 4733452 4722030 4713087 4706689 4704009 4706254 4712215 4719518 
2204.869 4723805 4721327 4710440 4693124 4672860 4654708 4641646 4633207 
2208.727 4626576 4618706 4606717 4591816 4577182 4567171 4565128 4571691 
2212.584 4584985 4602431 4622156 4643455 4667099 4693626 4721226 4745846 
2216.441 4762763 4768324 4762227 4748895 4735730 4729064 4733285 4746751 
2220.299 4763902 4776666 4778843 4767989 4746115 4718613 4690544 4665425 
2224.156 4644359 4626241 4609296 4593089 4577752 4563554 4550262 4535462 
2228.014 4515976 4489260 4455347 4416818 4379230 4347536 4325247 4312263 
2231.871 4305268 4299613 4292519 4282681 4272575 4265247 4263440 4267623 
2235.729 4277193 4290009 4304867 4322168 4343653 4369759 4400551 4432384 
2239.586 4460235 4479484 4487485 4484506 4475065 4464654 4458026 4458695 
2243.443 4467298 4482866 4504493 4531344 4562784 4598011 4634245 4667300 
2247.301 4692721 4707124 4709603 4703205 4693492 4685655 4684248 4690410 
2251.158 4702770 4718513 4735763 4753852 4774321 4798844 4828159 4860760 
2255.016 4893364 4920909 4940045 4948189 4945206 4932404 4911359 4883345 
2258.873 4849937 4812613 4774187 4737974 4708196 4687899 4678420 4678755 
2262.730 4687228 4700961 4719283 4741994 4769630 4802328 4838311 4874130 
2266.588 4905293 4927545 4939207 4940681 4934984 4925299 4914140 4902847 
2270.445 4890750 4876576 4860793 4843404 4826350 4811809 4800418 4792612 
2274.303 4787453 4785008 4785744 4792277 4806482 4830303 4863307 4902746 
2278.160 4943999 4982106 5012908 5034193 5045724 5049077 5046361 5040361 
2282.018 5033891 5030070 5031512 5041367 5060239 5088533 5123568 5161220 
2285.875 5197937 5230164 5256222 5276278 5291404 5302506 5310321 5314782 
2289.732 5315654 5314246 5312334 5313105 5319679 5334002 5356343 5385394 
2293.590 5418875 5454541 5491450 5529336 5568534 5609045 5649762 5689239 
2297.447 5725799 5758837 5789225 5819077 5850645 5885136 5921847 5958629 
2301.305 5992726 6022256 6047286 6070067 6094025 6121949 6155420 6193902 
2305.162 6235480 6277801 6319992 6362590 6407949 6458930 6517350 6583684 
2309.020 6656689 6734317 6813911 6893688 6972604 7049682 7124517 7195962 
2312.877 7263073 7325073 7382093 7435379 7486481 7537588 7590657 7646634 
2316.734 7705922 7768625 7834307 7902528 7973090 8045215 8118433 8192068 
2320.592 8265546 8338025 8408657 8475043 8533938 8580911 8611801 8623563 
2324.449 8616566 8594058 8562932 8531437 8507513 8497073 8502817 8523564 
2328.307 8555565 8594463 8635493 8675176 8711617 8743632 8771084 8794177 
2332.164 8814397 8833976 8856497 8885411 8923357 8970880 9026120 9085326 
2336.021 9144575 9200379 9251520 9299146 9345524 9392382 9440836 9489804 
2339.879 9537151 9580608 9618445 9649952 9675192 9693115 9701179 9694437 
2343.736 9666349 9610417 9522519 9403860 9261099 9107861 8961341 8839758 
2347.594 8761279 8738459 8779199 8885039 9051595 9268715 9521063 9792299 
2351.451 10065331 10326422 10567673 10786436 10984476 11164996 11331068 
2354.826 11483834 11623618 11750239 11865182 11970620 12069745 12164873 
2358.202 12256681 12344077 12425525 12499519 12565919 12625849 12680738 
2361.577 12731301 12777092 12816506 12847938 12869985 12882750 12887700 
2364.952 12885856 12877665 12862033 12837460 12801900 12754400 12695272 
2368.327 12625645 12546752 12458803 12361498 12253989 12136489 12011153 
2371.703 11881663 11752996 11629778 11515033 11409468 11312057 11221298 
2375.078 11136100 11056695 10984713 10922394 10871362 10832463 10805423 
2378.453 10789323 10783887 10789459 10806748 10836913 10880025 10935067 
2381.828 10999768 11071310 11146672 11223848 11301072 11377018 11450527 
2385.204 11519899 11583019 11638184 11684235 11720759 11748536 11768316 
2388.579 11780504 11784963 11781082 11767907 11745268 11713644 11674160 
2391.954 11628553 11578186 11524118 11467571 11409740 11352257 11297672 
2395.329 11248399 11206202 11172237 11146570 11128791 11118729 11117131 
2398.705 11125833 11147216 11182878 11233471 11297740 11373753 11458352 
2402.080 11549433 11646386 11748911 11857998 11974026 12096864 12226383 
2405.455 12361974 12504395 12654640 12814731 12986113 13169585 13364717 
2408.830 13570330 13784796 14007170 14236950 14473669 14716310 14962173 
2412.206 15207489 15446695 15674731 15887592 16082471 16258450 16414955 
2415.581 16551552 16667325 16760675 16830590 16876574 16899862 16903100 
2418.956 16889596 16862968 16826594 16782958 16734401 16682647 16630245 
2422.331 16578883 16530521 16486431 16447542 16414439 16388047 16370086 
2425.707 16362585 16368056 16388735 16425863 16480580 16553409 16645325 
2429.082 16757714 16892318 17049844 17230144 17430766 17647770 17876826 
2432.457 18114364 18358286 18609472 18870076 19142990 19430456 19733614 
2435.832 20051658 20383618 20728066 21084058 21451896 21831650 22224290 
2439.208 22630514 23051096 23487300 23940116 24410720 24898852 25403588 
2442.583 25922416 26452392 26990704 27535934 28088706 28650746 29223898 
2445.958 29809982 30408264 31017122 31633142 32252860 32873600 33492978 
2449.333 34109264 34720536 35323796 35916336 36494696 37056796 37601772 
2452.708 38129456 38640508 39134972 39610872 40064656 40491084 40883608 
2456.084 41235784 41541720 41796360 41995372 42135364 42213320 42226908 
2459.459 42174216 42054140 41866480 41612020 41292628 40911352 40472392 
2462.834 39981236 39444368 38869244 38264120 37638012 37000360 36360940 
2466.209 35729368 35115380 34527448 33973304 33459016 32989234 32567136 
2469.585 32194796 31873654 31604848 31389094 31226816 31117418 31058264 
2472.960 31044668 31070792 31128916 31211578 31311988 31424534 31544414 
2476.335 31668320 31792652 31913772 32028470 32133854 32227128 32306750 
2479.710 32371040 32418660 32447868 32457042 32444370 32409344 32352976 
2483.086 32276734 32184020 32078270 31962168 31838678 31709664 31576838 
2486.461 31442524 31308606 31176866 31048298 30922790 30798282 30672458 
2489.836 30542402 30406096 30262656 30112056 29954764 29790996 29620374 
2493.211 29441096 29251082 29048610 28832176 28601446 28356688 28098708 
2496.587 27828516 27546490 27253884 26951500 26640658 26323738 26002720 
2499.962 25679550 25356234 25033684 24713058 24395578 24081936 23773526 
2503.337 23471524 23176516 22888304 22606918 22331680 22062924 21801616 
2506.712 21549102 21307486 21078492 20862584 20659920 20469192 20288826 
2510.088 20117004 19952256 19793258 19639136 19489056 19342872 19200406 
2513.463 19062282 18929014 18801632 18680620 18566416 18458674 18358218 
2516.838 18265178 18181006 18107662 18046660 17999272 17965396 17943708 
2520.213 17932036 17928618 17931864 17941360 17957556 17980520 18010084 
2523.589 18045348 18084622 18126006 18168672 18211964 18256160 18301294 
2526.964 18346742 18390744 18431086 18465070 18490344 18506008 18511572 
2530.339 18507390 18494286 18472848 18443602 18407338 18365408 18319230 
2533.714 18270950 18221744 18172576 18123516 18074604 18026386 17980280 
2537.090 17938632 17904654 17880624 17867952 17865640 17871404 17882246 
2540.465 17895020 17908038 17920470 17932660 17945298 17958590 17972440 
2543.840 17986082 17998548 18009254 18017648 18023588 18026904 18027386 
2547.215 18024796 18019856 18013088 18006320 18000898 17998272 17998790 
2550.591 18002106 18006768 18011362 18015160 18018026 18020616 18024036 
2553.966 18029320 18036748 18046350 18057608 18069526 18081546 18092428 
2557.341 18100614 18104068 18100544 18087108 18062272 18025246 17976238 
2560.716 17917016 17849722 17775918 17697636 17615986 17532044 17447116 
2564.092 17362928 17280860 17202462 17128490 17059424 16995054 16935656 
2567.467 16881708 16834380 16794908 16764017 16742012 16728409 16721936 
2570.842 16721936 16727755 16739497 16757509 16781752 16811302 16844850 
2574.217 16880502 16916844 16953398 16990712 17029786 17072106 17118322 
2577.593 17168024 17220318 17274000 17328306 17383138 17439182 17497098 
2580.968 17557506 17620714 17686558 17754758 17825488 17899440 17977550 
2584.343 18060510 18148150 18239676 18333540 18428252 18522328 18615732 
2587.718 18708604 18801840 18895788 18990866 19086414 19181914 19276568 
2591.094 19370206 19462614 19553656 19643054 19730562 19815592 19897792 
2594.469 19977408 20054818 20131094 20206794 20282646 20358964 20435642 
2597.844 20513376 20592480 20674062 20759172 20848644 20943244 21043016 
2601.219 21148094 21258350 21374204 21496110 21624736 21760264 21902456 
2604.594 22050166 22202634 22358470 22517154 22678654 22843114 23010674 
2607.970 23181792 23356302 23533994 23714838 23898490 24084072 24270648 
2611.345 24456216 24637972 24813242 24979002 25133100 25274468 25403096 
2614.720 25519356 25623978 25717658 25800596 25873354 25936132 25989914 
2618.095 26035544 26074632 26108056 26137052 26162530 26184984 26205430 
2621.471 26224578 26243090 26261500 26279732 26297686 26315040 26331904 
2624.846 26348592 26366372 26386688 26410840 26439646 26473416 26511558 
2628.221 26553824 26599616 26649114 26702808 26761268 26824564 26892378 
2631.596 26963486 27036508 27110214 27183648 27256354 27328578 27400746 
2634.972 27473486 27546948 27621410 27697158 27774116 27852362 27932072 
2638.347 28013102 28095172 28178356 28262226 28347316 28433908 28522570 
2641.722 28613266 28706246 28800842 28896342 28992324 29088468 29184916 
2645.097 29282416 29381494 29482690 29586570 29693454 29803452 29916742 
2648.473 30033828 30154888 30280314 30409864 30543254 30679710 30818912 
2651.848 30960294 31103714 31249390 31397570 31548832 31703818 31863172 
2655.223 32027938 32198902 32376714 32561746 32753676 32951414 33153854 
2658.598 33359430 33567396 33777356 33989572 34204072 34421196 34640612 
2661.974 34861288 35082476 35302804 35522272 35740736 35958772 36176948 
2665.349 36395708 36614972 36834568 37053836 37272424 37490360 37708120 
2668.724 37926020 38145336 38366936 38591800 38820980 39054956 39294176 
2672.099 39538392 39787208 40039180 40292940 40547248 40801160 41053976 
2675.475 41305308 41554736 41801540 42044832 42283656 42517320 42746276 
2678.850 42971952 43196468 43423188 43654968 43894832 44144908 44406988 
2682.225 44682628 44972704 45278600 45600944 45940428 46296768 46669632 
2685.600 47058104 47461192 47878380 48309188 48753064 49209420 49677732 
2688.976 50157072 50646444 51144824 51651836 52167216 52690948 53223144 
2692.351 53764164 54314120 54873348 55442668 56022652 56614020 57217300 
2695.726 57832592 58459484 59097112 59744308 60399864 61062620 61732004 
2699.101 62407168 63087864 63773468 64464116 65159516 65859624 66563904 
2702.477 67271080 67978856 68684264 69383544 70072544 70747552 71405288 
2705.852 72042096 72655064 73240776 73795680 74315936 74798752 75241560 
2709.227 75642776 76001968 76319112 76594672 76829312 77023888 77179600 
2712.602 77297720 77379712 77426400 77438160 77413960 77352152 77250536 
2715.978 77106984 76920560 76691128 76419816 76108720 75761024 75380632 
2719.353 74971464 74539080 74088976 73627120 73160072 72694112 72235112 
2722.728 71789112 71361240 70956864 70581384 70239032 69933728 69667880 
2726.103 69442328 69256800 69110240 69001008 68927880 68889744 68885976 
2729.479 68915872 68978360 69072472 69196136 69347712 69525224 69726984 
2732.854 69951168 70196032 70458768 70736872 71026816 71325824 71631096 
2736.229 71940600 72252768 72566200 72879320 73190504 73498024 73799920 
2739.604 74094784 74381640 74659944 74929336 75190344 75443424 75690184 
2742.979 75932904 76174456 76418464 76668120 76925664 77193096 77470120 
2746.355 77755880 78049248 78348528 78651976 78957632 79262912 79563696 
2749.730 79856176 80135312 80396952 80638528 80858920 81059256 81241872 
2753.105 81410208 81567904 81718176 81863608 82005784 82145152 82281056 
2756.480 82411464 82533768 82644576 82740504 82819120 82877624 82914312 
2759.856 82927392 82914592 82873616 82801952 82697008 82557256 82382216 
2763.231 82172376 81929152 81654464 81350792 81020800 80667768 80296048 
2766.606 79910464 79517064 79121912 78730536 78348288 77979176 77626824 
2769.981 77293952 76983016 76695984 76434592 76199368 75990448 75806912 
2773.357 75647152 75509064 75390560 75289400 75202912 75127784 75060232 
2776.732 74995368 74927640 74850912 74758880 74645584 74504976 74331936 
2780.107 74122656 73875208 73589904 73269256 72918584 72544904 72155456 
2783.482 71757720 71358080 70960920 70569144 70184472 69807280 69437392 
2786.858 69073600 68714424 68357632 68000480 67640712 67276456 66906540 
2790.233 66531352 66151960 65770632 65389796 65012248 64640528 64277312 
2793.608 63925072 63586124 63262880 62957236 62670784 62404568 62158816 
2796.983 61933456 61727956 61540956 61371480 61217936 61078828 60952840 
2800.359 60838780 60735652 60642524 60558560 60482344 60412276 60346596 
2803.734 60282748 60219484 60155280 60089448 60022520 59955260 59888472 
2807.109 59823212 59759596 59697436 59636156 59574356 59510548 59442720 
2810.484 59368604 59285568 59191656 59085152 58965284 58832316 58687560 
2813.860 58532616 58369344 58199888 58025804 57849284 57672916 57500176 
2817.235 57336048 57186004 57056604 56954520 56885244 56854160 56865224 
2820.610 56920864 57022296 57169528 57361040 57594216 57865336 58170036 
2823.985 58502360 58856640 59226440 59604112 59982308 60353028 60708288 
2827.361 61040884 61344384 61613964 61846568 62040768 62196320 62314104 
2830.736 62395272 62442252 62457512 62444356 62406940 62350020 62278880 
2834.111 62199192 62116572 62036108 61962844 61900824 61853716 61824564 
2837.486 61816120 61831248 61873388 61946792 62057284 62212076 62419296 
2840.862 62688812 63030048 63453348 63969492 64589700 65327472 66198656 
2844.237 67220520 68412208 69790784 71367024 73139880 75091264 77181936 
2847.612 79345200 81492504 83519184 85304912 86738224 87723496 88190808 
2850.987 88109832 87488816 86373800 84836256 82969096 80875960 78653448 
2854.363 76395200 74181768 72072992 70115112 68335872 66746436 65345504 
2857.738 64120820 63054152 62122304 61301648 60569952 59906384 59293432 
2861.113 58716804 58164736 57628080 57100592 56577896 56058388 55542820 
2864.488 55034104 54536952 54058380 53606616 53190032 52817220 52495536 
2867.864 52230176 52024324 51878684 51791020 51756640 51768660 51818536 
2871.239 51895300 51988020 52085848 52178684 52258948 52322148 52367268 
2874.614 52396272 52413544 52424460 52434592 52448612 52470260 52502156 
2877.989 52546056 52603648 52675648 52762592 52864256 52979724 53107688 
2881.365 53246664 53395352 53553048 53719656 53895212 54079888 54273308 
2884.740 54474480 54682252 54895044 55111400 55330536 55552196 55776300 
2888.115 56003504 56234744 56471016 56713080 56962076 57219156 57485424 
2891.490 57762492 58052616 58358964 58685856 59038804 59423764 59846904 
2894.865 60313812 60828184 61391176 62000292 62648848 63325556 64013572 
2898.241 64693368 65342344 65937556 66460064 66896728 67242528 67501240 
2901.616 67685632 67814680 67909392 67992808 68085736 68205752 68368416 
2904.991 68586240 68869472 69227576 69668232 70197744 70822712 71549040 
2908.366 72383520 73334176 74409560 75618568 76968384 78462592 80099048 
2911.742 81867736 83751448 85721792 87740440 89762536 91733072 93592952 
2915.117 95286248 96759984 97973880 98904904 99547064 99912200 100024400 
2918.492 99916832 99621904 99166872 98570880 97841376 96976616 95968496 
2921.867 94807864 93489632 92017312 90404976 88678664 86873856 85029336 
2925.243 83186144 81381560 79644936 77999000 76458096 75029000 73712672 
2928.618 72505352 71400456 70388472 69459984 68606064 67819168 67094596 
2931.993 66430488 65827236 65286844 64811908 64404124 64064184 63790620 
2935.368 63579948 63426852 63323372 63259624 63224516 63205464 63189752 
2938.744 63167112 63129404 63072384 62996268 62904612 62803588 62700412 
2942.119 62602236 62514140 62438692 62374768 62317588 62258880 62187108 
2945.494 62090612 61958564 61783876 61565128 61307944 61024752 60731496 
2948.869 60447920 60192576 59979800 59819752 59716328 59667400 59666148 
2952.245 59701768 59761836 59832452 59900488 59954388 59984744 59984932 
2955.620 59951192 59881856 59777084 59638436 59468596 59270604 59048864 
2958.995 58808340 58554568 58293176 58029816 57768928 57514208 57268484 
2962.370 57033896 56812084 56604620 56412868 56237876 56080368 55940596 
2965.746 55818800 55715200 55629960 55563152 55514428 55482388 55464544 
2969.121 55457688 55457992 55461568 55466048 55469816 55472900 55475952 
2972.496 55480392 55487508 55498652 55514844 55537208 55566092 55600660 
2975.871 55638284 55673536 55697608 55699112 55665480 55583524 55443236 
2979.247 55238300 54967424 54634940 54250408 53827244 53380100 52925072 
2982.622 52476768 52046660 51643288 51271092 50930768 50619860 50333316 
2985.997 50066416 49814016 49572796 49341212 49118512 48903560 48693088 
2989.372 48479828 48252604 47996116 47692884 47327196 46888536 46374000 
2992.748 45790148 45153028 44485500 43811000 43152664 42527000 41942348 
2996.123 41399220 40892200 40412424 39950212 39497852 39050496 38605852 
2999.498 38163752 37724780 37290040 36860140 36436068 36018924 35610160 
3002.873 35211780 34825424 34452720 34093996 33748960 33416680 33095852 
3006.249 32785404 32484680 32193620 31912488 31641946 31382150 31133436 
3009.624 30895396 30667122 30447286 30234416 30026726 29822970 29622146 
3012.999 29423616 29227230 29033448 28842800 28656160 28474486 28298616 
3016.374 28129780 27968574 27815270 27669822 27531274 27398344 27269690 
3019.750 27144002 27020852 26900170 26782448 26668208 26557134 26448414 
3023.125 26340670 26232426 26123188 26014260 25908242 25809598 25722788 
3026.500 25651816 25598638 25562966 25542126 25531162 25524416 25515350 
3029.875 25497254 25464682 25412510 25337230 25237384 25113264 24967000 
3033.250 24802402 24624224 24437184 24245806 24053850 23864288 23679602 
3036.626 23501988 23333086 23174244 23026080 22888236 22759410 22637846 
3040.001 22521656 22409266 22299902 22193604 22090676 21992058 21897926 
3043.376 21808376 21722780 21640304 21559860 21480720 21402292 21325026 
3046.751 21249548 21177214 21109518 21047536 20991894 20941994 20896204 
3050.127 20852052 20806896 20758616 20705720 20648070 20586538 20522372 
3053.502 20456792 20390702 20324206 20257720 20191242 20125228 20060404 
3056.877 19997704 19937790 19881108 19827834 19778068 19731774 19689614 
3060.252 19652276 19620208 19594072 19573760 19558958 19549186 19544366 
3063.628 19544576 19550016 19560798 19576150 19594696 19614246 19632618 
3067.003 19648184 19660282 19669124 19675470 19680184 19683062 19683130 
3070.378 19678762 19668326 19650646 19626136 19596498 19564020 19531544 
3073.753 19501496 19475262 19453640 19436660 19423736 19414138 19407174 
3077.129 19401490 19396294 19390092 19381534 19369790 19354234 19335250 
3080.504 19313460 19289628 19264826 19239438 19213706 19187178 19159336 
3083.879 19129660 19097772 19064152 19030192 18997824 18969716 18948466 
3087.254 18935970 18932992 18939016 18951754 18968782 18987058 19004712 
3090.630 19020462 19034482 19047050 19059064 19070834 19082570 19094342 
3094.005 19106218 19118824 19133538 19151682 19174468 19202588 19235456 
3097.380 19272066 19310792 19350076 19388914 19426576 19463410 19499624 
3100.755 19535980 19572824 19610190 19648184 19686076 19723696 19760766 
3104.131 19797212 19833696 19870738 19909482 19950834 19995276 20042394 
3107.506 20091044 20139736 20186558 20229982 20269662 20305874 20339832 
3110.881 20373200 20407546 20444500 20484788 20529008 20577262 20629620 
3114.256 20685320 20743568 20802794 20861264 20917204 20969464 21017176 
3117.632 21060682 21100612 21137590 21172170 21204628 21234724 21262700 
3121.007 21289148 21314898 21341522 21370096 21401110 21434630 21469546 
3124.382 21504362 21538272 21570654 21601752 21632468 21664056 21697354 
3127.757 21733300 21771934 21812592 21854716 21897368 21939394 21980104 
3131.133 22018932 22055638 22091164 22126342 22163020 22202634 22246750 
3134.508 22295752 22349576 22407416 22467848 22529264 22590306 22649400 
3137.883 22705710 22758432 22807492 22853380 22897386 22941154 22987022 
3141.258 23036492 23090406 23148520 23209754 23272288 23334694 23396198 
3144.634 23456872 23517520 23579014 23641848 23706160 23771322 23836458 
3148.009 23901010 23964800 24028320 24092724 24158854 24227658 24299486 
3151.384 24374444 24452256 24532288 24613916 24695874 24776828 24855588 
3154.759 24930854 25002096 25069488 25134258 25197878 25262176 25328624 
3158.135 25398036 25470936 25547222 25626580 25708656 25793424 25880036 
3161.510 25968072 26057004 26146308 26235522 26325040 26415418 26506874 
3164.885 26599792 26693858 26787980 26881240 26972548 27061476 27148162 
3168.260 27233034 27316334 27398238 27478148 27555280 27628790 27698462 
3171.635 27764402 27827668 27889248 27949880 28009532 28067214 28121508 
3175.011 28171110 28215268 28253704 28287618 28318986 28349898 28382404 
3178.386 28418272 28458106 28502012 28549284 28598544 28649012 28700122 
3181.761 28751380 28803390 28856644 28911462 28967988 29025584 29083330 
3185.136 29139950 29194874 29247786 29299428 29351254 29404542 29460386 
3188.512 29519218 29581002 29645028 29710698 29777368 29844834 29913016 
3191.887 29981850 30051334 30121396 30191932 30263224 30335384 30408868 
3195.262 30483930 30560390 30637932 30715628 30792946 30869248 30944460 
3198.637 31018582 31091682 31163766 31234542 31303764 31371464 31438000 
3202.013 31504762 31572956 31643976 31718574 31796966 31878222 31961274 
3205.388 32044702 32127146 32207466 32285194 32359902 32431622 32500536 
3208.763 32567066 32632354 32697372 32762826 32828822 32894940 32959886 
3212.138 33022624 33082586 33140048 33196628 33254680 33316356 33383294 
3215.514 33455722 33532638 33612500 33693272 33773488 33852536 33930344 
3218.889 34007128 34082884 34157328 34229956 34300408 34368972 34436116 
3222.264 34502872 34570640 34640328 34712784 34788092 34866428 34947000 
3225.639 35029532 35113296 35197332 35280520 35361392 35438788 35512024 
3229.015 35580600 35645412 35707208 35767468 35827592 35888588 35950564 
3232.390 36013916 36078288 36142704 36206592 36269264 36330136 36389260 
3235.765 36447020 36504100 36561444 36619768 36679292 36739792 36800916 
3239.140 36862304 36923912 36986324 37050336 37116880 37185964 37256972 
3242.516 37328316 37398080 37464572 37526772 37584900 37640216 37694312 
3245.891 37748776 37804912 37862788 37922548 37983552 38045720 38109308 
3249.266 38174784 38243024 38314528 38389632 38467856 38548128 38629352 
3252.641 38709868 38788188 38863556 38935632 39004460 39071344 39137584 
3256.017 39204304 39272412 39341476 39410948 39479276 39545756 39609852 
3259.392 39671712 39732560 39793492 39855448 39918716 39982724 40046884 
3262.767 40110696 40174004 40237652 40302940 40370860 40442352 40517204 
3266.142 40594356 40672732 40750748 40827184 40901520 40973720 41043964 
3269.518 41112872 41180952 41248572 41316056 41384096 41452440 41521668 
3272.893 41592000 41663660 41737192 41813032 41891440 41973040 42057788 
3276.268 42145920 42237280 42331652 42429116 42530144 42634996 42743168 
3279.643 42854328 42966944 43079296 43190356 43299432 43407516 43515952 
3283.019 43627640 43744116 43866860 43995616 44129248 44266368 44405520 
3286.394 44546144 44688688 44833740 44982220 45134504 45290332 45449012 
3289.769 45609848 45772436 45936524 46102772 46271740 46444388 46621676 
3293.144 46804424 46993676 47190248 47394372 47605880 47823924 48046596 
3296.520 48272116 48498872 48725780 48952880 49180920 49411044 49644448 
3299.895 49882140 50124572 50372424 50626784 50888000 51157200 51434696 
3303.270 51720620 52014616 52315420 52622460 52935032 53253068 53576252 
3306.645 53904816 54238580 54577376 54921208 55270812 55627176 55992080 
3310.021 56366424 56750080 57141860 57539364 57939804 58340920 58742788 
3313.396 59146620 59555200 59971656 60398108 60835504 61282952 61738956 
3316.771 62201412 62668832 63140012 63614584 64092136 64572172 65054200 
3320.146 65537924 66023336 66511228 67002764 67498608 67999128 68504064 
3323.521 69012072 69522272 70033616 70545560 71057880 71570256 72081592 
3326.897 72590912 73095960 73595320 74087200 74570824 75044520 75507448 
3330.272 75957768 76393584 76813664 77217008 77603568 77974344 78329672 
3333.647 78669256 78991296 79293216 79571976 79825440 80053032 80255512 
3337.022 80435384 80594360 80733560 80852528 80949216 81020720 81064128 
3340.398 81077344 81058936 81008584 80926576 80813656 80670880 80499232 
3343.773 80299592 80072312 79816360 79529840 79210104 78854120 78460288 
3347.148 78028744 77561896 77064048 76539464 75992816 75427104 74844216 
3350.523 74244736 73629008 72997560 72351184 71691352 71019368 70336616 
3353.899 69644976 68946120 68243208 67539560 66839060 66145016 65459632 
3357.274 64783716 64116752 63458368 62808604 62168756 61540576 60926916 
3360.649 60329348 59748836 59184176 58633744 58095224 57567092 57048520 
3364.024 56539964 56042252 55555924 55081420 54619044 54168200 53729628 
3367.400 53304012 52892064 52494564 52111400 51741596 51383636 51035360 
3370.775 50694884 50360852 50032468 49708904 49389624 49073804 48760364 
3374.150 48448344 48137280 47826956 47517596 47209712 46903268 46597996 
3377.525 46293340 45988828 45684232 45379412 45074400 44768792 44462188 
3380.901 44153160 43840544 43523020 43200020 42871992 42539972 42205472 
3384.276 41870424 41536072 41203540 40873448 40545864 40220784 39898264 
3387.651 39577840 39259064 38941504 38624500 38308016 37992232 37677328 
3391.026 37364168 37053188 36745020 36440100 36139140 35842272 35550248 
3394.402 35263200 34981008 34703020 34428548 34156252 33885492 33616188 
3397.777 33348768 33084624 32824714 32569208 32317958 32069352 31821672 
3401.152 31573668 31324562 31075274 30826880 30581294 30339612 30102432 
3404.527 29869110 29638360 29408902 29179636 28949820 28719626 28489416 
3407.903 28259928 28032116 27807002 27585714 27369760 27160086 26957210 
3411.278 26760810 26569710 26381934 26195894 26010108 25824156 25638880 
3414.653 25455898 25276856 25103434 24936398 24774968 24618018 24463648 
3418.028 24309718 24154720 23997608 23838314 23677292 23515734 23355042 
3421.404 23196716 23042082 22891904 22746734 22606746 22471684 22340994 
3424.779 22214456 22091092 21969890 21850116 21730374 21610214 21489528 
3428.154 21368460 21248120 21129276 21012620 20898046 20785032 20672360 
3431.529 20559058 20444742 20329622 20214952 20102324 19993124 19888290 
3434.905 19787744 19690898 19596498 19503574 19411436 19319972 19229428 
3438.280 19140222 19052866 18966982 18882362 18797930 18712406 18625070 
3441.655 18534914 18441562 18345324 18246968 18147354 18047454 17948092 
3445.030 17849310 17751064 17652704 17554330 17456082 17358996 17264518 
3448.406 17174022 17087924 17005874 16926768 16848812 16770318 16689774 
3451.781 16607214 16522707 16436428 16348515 16258417 16165104 16068168 
3455.156 15967231 15863569 15759107 15655871 15555719 15459571 15366876 
3458.531 15276502 15186626 15096118 15004325 14911419 14817950 14724674 
3461.906 14632033 14539996 14448766 14358307 14268964 14181317 14096219 
3465.282 14013911 13934492 13857927 13783325 13710104 13637647 13565100 
3468.657 13491744 13417068 13340013 13260035 13176928 13090832 13002159 
3472.032 12911798 12820840 12730072 12640484 12552413 12466543 12383487 
3475.407 12303649 12227235 12154242 12084088 12015752 11948481 11880710 
3478.783 11811826 11741013 11667761 11591867 11513468 11433042 11352121 
3482.158 11272303 11195900 11124440 11058667 10998443 10942271 10888247 
3485.533 10834196 10779099 10722853 10666242 10610758 10557217 10505650 
3488.908 10455075 10403691 10349835 10292492 10231900 10169552 10107621 
3492.284 10048275 9993378 9943507 9898115 9856660 9817547 9779963 9743466 
3496.141 9708430 9675700 9646293 9621088 9600052 9583115 9568718 9555001 
3499.999 9539691 9520894 9497389 9468841 9436333 9401422 9366244 9333370 
3503.856 9304833 9282424 9267632 9261065 9262892 9272201 9287332 9305814 
3507.713 9325009 9342511 9356934 9368580 9378026 9387676 9398612 9412155 
3511.571 9427697 9444696 9461323 9477646 9493664 9510259 9528751 9549751 
3515.428 9572715 9596427 9619293 9639584 9656423 9669500 9679088 9685491 
3519.286 9688914 9688372 9682951 9672244 9655778 9634097 9608419 9579320 
3523.143 9547142 9511817 9471855 9426275 9373896 9314142 9247018 9173509 
3527.000 9094293 9010762 8924068 8835261 8745424 8655334 8565737 8477037 
3530.858 8389401 8302561 8216345 8130248 8044034 7956958 7868248 7777227 
3534.715 7683527 7587151 7489144 7391024 7294746 7201892 7112930 7027153 
3538.573 6942807 6858005 6770595 6680343 6587822 6494816 6403780 6316730 
3542.430 6235244 6159218 6087708 6018896 5950701 5881039 5808735 5733051 
3546.288 5654696 5574676 5495242 5418574 5345978 5278122 5213933 5151028 
3550.145 5087025 5019277 4946748 4869874 4790937 4712953 4639369 4572629 
3554.002 4513700 4462578 4418559 4380402 4347402 4318487 4292284 4267020 
3557.860 4239951 4208635 4170998 4126272 4075297 4020682 3965807 3913747 
3561.717 3867009 3826660 3792131 3761515 3732138 3700257 3662329 3614582 
3565.575 3553946 3479222 3391288 3293989 3193842 3097755 3012133 2940305 
3569.432 2883031 2838105 2801920 2770540 2739930 2707354 2671014 2630609 
3573.290 2586709 2540580 2494289 2449536 2408219 2371338 2339556 2311974 
3577.147 2287058 2262710 2237097 2208855 2177318 2142820 2106161 2068006 
3581.004 2029223 1990642 1953130 1917885 1886369 1859880 1838750 1822113 
3584.862 1807473 1790405 1765885 1729224 1677698 1611843 1536356 1458521 
3588.719 1386218 1326490 1283419 1257532 1247098 1247929 1254974 1263514 
3592.577 1269595 1270459 1265109 1254043 1239057 1221911 1204334 1187588 
3596.434 1172173 1158119 1145461 1134233 1123802 1113969 1103737 1091314 
3600.292 1075104 1053414 1025382 991706 954181 915397 878276 846172 820444 
3604.631 801987 790004 781904 773971 761955 742040 711606 670653 621508 
3608.971 568454 516900 470592 431321 398885 370066 341912 311803 279409 
3613.310 246421 216220 192783 178894 175115 180087 190628 203159 213468 
3617.650 218739 217347 209656 197324 182441 167524 154498 143692 134942 
3621.990 127717 120790 113797 107168 102064 100407 103854 112836 126225 
3626.329 140113 148929 144886 121884 76645 12259 -62221 -134437 -194055 
3630.669 -236082 -261150 -273832 -279793 -285223 -293965 -307739 -325784 
3634.526 -345947 -364718 -379583 -389084 -394016 -395970 -397724 -401365 
3638.384 -408284 -418645 -430793 -442875 -452805 -459226 -461974 -461510 
3642.241 -459425 -456744 -454261 -451580 -448006 -442577 -434832 -425365 
3646.098 -415831 -409641 -410502 -422419 -448734 -490934 -548221 -616484 
3649.956 -689171 -757214 -811853 -846577 -857688 -845353 -813572 -768327 
3653.813 -717157 -667502 -626609 -598915 -585679 -583893 -587830 -591205 
3657.671 -588657 -578201 -561259 -540874 -521250 -506125 -497818 -496792 
3661.528 -501790 -510130 -519165 -526445 -529722 -527637 -518072 -498910 
3665.385 -467567 -422055 -361739 -288071 -204488 -114761 -21370 78236 193347 
3669.725 339922 538596 805506 1151442 1578887 2085885 2667580 3316392 
3673.583 4017137 4732916 5399082 5926718 6217598 6207481 5891081 5318036 
3677.440 4566602 3718102 2847577 2014576 1268465 646893 166663 -174481 
3681.297 -397890 -533660 -614036 -664028 -698499 -722979 -738095 -743752 
3685.155 -741105 -734788 -730521 -733762 -748349 -774116 -808843 -848660 
3689.012 -890094 -931425 -971595 -1009711 -1044420 -1073771 -1095651 
3692.387 -1109664 -1117001 -1120042 -1122322 -1126189 -1133162 -1142647 
3695.763 -1153717 -1163862 -1171727 -1176618 -1178865 -1179096 -1178799 
3699.138 -1179063 -1180880 -1184680 -1190661 -1198327 -1206819 -1214980 
3702.513 -1221556 -1226049 -1228098 -1228296 -1227172 -1225124 -1221952 
3705.888 -1216996 -1209529 -1199087 -1185705 -1170537 -1155039 -1141424 
3709.264 -1131609 -1127643 -1131344 -1144200 -1167167 -1200012 -1240091 
3712.639 -1283305 -1323442 -1354657 -1372725 -1375466 -1363708 -1340322 
3716.014 -1310030 -1277259 -1246435 -1220663 -1201466 -1189141 -1182764 
3719.389 -1180880 -1181211 -1180880 -1177212 -1167398 -1150446 -1126486 
3722.765 -1098725 -1071689 -1050370 -1038999 -1039429 -1050898 -1070466 
3726.140 -1093437 -1114919 -1130452 -1137392 -1134352 -1121992 -1101964 
3729.515 -1077176 -1051626 -1029512 -1015463 -1012885 -1022471 -1042932 
3732.890 -1070962 -1103352 -1138317 -1176122 -1217558 -1262888 -1309964 
3736.266 -1353964 -1388777 -1410509 -1417676 -1411764 -1396208 -1373881 
3739.641 -1346069 -1312442 -1271742 -1223703 -1170703 -1118588 -1076647 
3743.016 -1055030 -1060484 -1091850 -1137590 -1178732 -1199352 -1193569 
3746.391 -1166704 -1130056 -1096544 -1077242 -1078101 -1100113 -1137789 
3749.767 -1182665 -1226148 -1261963 -1288491 -1306264 -1316538 -1319841 
3753.142 -1316175 -1305637 -1289482 -1270487 -1251324 -1234309 -1220564 
3756.517 -1209892 -1201764 -1196345 -1194230 -1197270 -1206522 -1221390 
3759.892 -1238538 -1252382 -1256974 -1249111 -1229287 -1201764 -1173908 
3763.268 -1153387 -1145852 -1153816 -1175065 -1204209 -1233747 -1256809 
3766.643 -1269760 -1271841 -1265168 -1252976 -1240124 -1230377 -1227073 
3770.018 -1231864 -1244353 -1262161 -1281488 -1299195 -1312607 -1321163 
3773.393 -1325986 -1329025 -1332262 -1336391 -1340487 -1341808 -1338108 
3776.769 -1327736 -1311847 -1293348 -1276797 -1266357 -1263516 -1266919 
3780.144 -1272898 -1277259 -1277490 -1273063 -1266192 -1259584 -1255884 
3783.519 -1255884 -1258296 -1260939 -1260674 -1255421 -1244684 -1229386 
3786.894 -1211478 -1193206 -1177080 -1165514 -1160822 -1164391 -1176684 
3790.270 -1196411 -1220300 -1243395 -1260674 -1268636 -1266059 -1255785 
3793.645 -1242668 -1232888 -1231501 -1239992 -1256512 -1275277 -1288723 
3797.020 -1291068 -1279638 -1256379 -1226776 -1198691 -1180550 -1178633 
3800.395 -1196047 -1229948 -1272865 -1312508 -1337118 -1340487 -1322220 
3803.771 -1287533 -1244882 -1204143 -1173941 -1159996 -1163862 -1181673 
3807.146 -1205299 -1224529 -1232195 -1224694 -1203317 -1171463 -1133162 
3810.521 -1092214 -1050568 -1009579 -969743 -932384 -899320 -873693 -859342 
3814.378 -859606 -876074 -906759 -944948 -981380 -1006373 -1013744 -1002868 
3818.236 -978174 -948419 -924085 -916216 -932748 -976091 -1039429 -1109400 
3822.093 -1170802 -1212205 -1229651 -1226512 -1209727 -1187720 -1166473 
3825.469 -1149322 -1135773 -1123809 -1110028 -1093139 -1073606 -1054105 
3828.844 -1037611 -1026206 -1019331 -1015265 -1009711 -999100 -980686 
3832.219 -954139 -920779 -883415 -845386 -810133 -781326 -762341 -757479 
3836.076 -770080 -802129 -852562 -916117 -984224 -1046668 -1094792 -1123545 
3839.934 -1131807 -1122719 -1101666 -1074631 -1047791 -1026239 -1013909 
3843.309 -1012422 -1020686 -1035859 -1052452 -1064616 -1067425 -1057641 
3846.684 -1035330 -1002604 -963131 -920911 -878455 -837185 -796705 -757082 
3850.542 -719604 -688939 -672563 -681198 -723442 -801865 -907388 -1021612 
3854.399 -1122983 -1195981 -1235234 -1243792 -1228626 -1197435 -1156857 
3857.774 -1112507 -1067921 -1026570 -990934 -962007 -940286 -924548 -912777 
3861.632 -902428 -892045 -881232 -871907 -866848 -868072 -876239 -888904 
3865.489 -902527 -912248 -916546 -915852 -914529 -917604 -929706 -952287 
3869.347 -982339 -1011794 -1031165 -1033545 -1018075 -989480 -956056 -927028 
3873.204 -909702 -907288 -918398 -937938 -958371 -973314 -979033 -974967 
3877.062 -964123 -950271 -937707 -929772 -928119 -932483 -940154 -948088 
3880.919 -951824 -948882 -938434 -921969 -903519 -887383 -878984 -882059 
3884.776 -897732 -923358 -951924 -975826 -987662 -984091 -966074 -938137 
3888.634 -906032 -876405 -854547 -843535 -844295 -854679 -870915 -888342 
3892.491 -902593 -910992 -911421 -903453 -887251 -864103 -835829 -805304 
3896.349 -776001 -751392 -734490 -727312 -729991 -741304 -758636 -778945 
3900.206 -799550 -818731 -836193 -852100 -867972 -884704 -902626 -921241 
3904.063 -939228 -954767 -966371 -972587 -973578 -969347 -961214 -949808 
3907.921 -935558 -918332 -897567 -872569 -843005 -809670 -774182 -738922 
3911.778 -706737 -679808 -659859 -647387 -642523 -644541 -653276 -668031 
3915.636 -687616 -710673 -734655 -756453 -773818 -785129 -790719 -791645 
3919.493 -790057 -787213 -783740 -778713 -771238 -760522 -747456 -733696 
3923.351 -722350 -716197 -716826 -723309 -733498 -743752 -751326 -754171 
3927.208 -752782 -748647 -743586 -739286 -736309 -734490 -733299 -732538 
3931.065 -732571 -734027 -737533 -742958 -749209 -754336 -756189 -753609 
3934.923 -746232 -734887 -721424 -707233 -693901 -682190 -672497 -664921 
3938.780 -659694 -657047 -656849 -659330 -663829 -669255 -675111 -680735 
3942.638 -685499 -689832 -693967 -697937 -702039 -705943 -709581 -712691 
3946.495 -715734 -719075 -722912 -727444 -732274 -736772 -740113 -741833 
3950.353 -741668 -739518 -735118 -728966 -720895 -711533 -701344 -691784 
3954.210 -683613 -677890 -675144 -674515 -675045 -675111 -673589 -669917 
3958.067 -664392 -657676 -650794 -644608 -639115 -634947 -631671 -629752 
3961.925 -628991 -629355 -630381 -631274 -630679 -628065 -622738 -615393 
3965.782 -606922 -598650 -591503 -585977 -581742 -577969 -574296 -570292 
3969.640 -566487 -563740 -562615 -563443 -566123 -569928 -574197 -578433 
3973.497 -582403 -585878 -588260 -588988 -586837 -580947 -570921 -557188 
3977.354 -540874 -523500 -506853 -491927 -479350 -469156 -461245 -455354 
3981.212 -451481 -449661 -449628 -450753 -452607 -454692 -457009 -460054 
3985.069 -464456 -470347 -477861 -485539 -491861 -495435 -495336 -491596 
3988.927 -485870 -479780 -474584 -471340 -469123 -467336 -465449 -463331 
3992.784 -461808 -462636 -467236 -476107 -488750 -503709 -518966 -532965 
3996.642 -544779 -553879 -560795 -565660 -568770 -569796 -568770 -565296 
4000.499 -560134 
##END=
