
##TITLE=Z240_2_a
##JCAMP-DX=5.01  $$ Nicolet v. 1
##DATATYPE=INFRARED SPECTRUM
##ORIGIN=UniL
##OWNER=Nicolet
##LONGDATE=2011/09/09
##TIME=11:33:03
##SPECTROMETER/DATA SYSTEM=Nicolet iS5
##DATA PROCESSING=
Ratio against background
%Transmittance->Absorbance
Truncated
ElementMultiply or ElementDivide
##COMMENTS=
Number of sample scans: 32
Collection length: 51.20 sec
Sample gain: 2.0
Background collected on: Ven Sep 09 11:29:40 2011 (GMT+02:00);
Number of background scans: 32
Background gain: 2.0
Sample spacing:  1.000
Number of scan points: 12415
Resolution points: 8192
Number of FFT points: 65536
Apodization: N-B fort;
Phase correction: Mertz;
Laser frequency: 15798.0 cm-1
Number of rejected sample scans: 0
Number of rejected background scans: 0
Bench serial number: ASB1000141;
##RESOLUTION=4.000
##XUNITS=1/CM
##YUNITS=ABSORBANCE
##FIRSTX=649.893372
##LASTX=4000.122314
##FIRSTY=0.088759
##MAXX=4000.122314
##MINX=649.893372
##MAXY=0.283932
##MINY=0.000539
##XFACTOR=1.000000
##YFACTOR=1.000000E-009
##NPOINTS=6950
##DELTAX=0.482117
##ZPD=6100
##XYDATA=(X++(Y..Y))
649.893 88759424 88536816 88374864 88298840 88311104 88393304 88515280 
653.268 88654848 88808280 88994672 89244904 89587792 90037512 90588752 
656.643 91223208 91923376 92684176 93513912 94428536 95439448 96544944 
660.018 97733016 98990504 100315640 101725728 103249456 104912048 106717296 
663.393 108636792 110613312 112581520 114484944 116272776 117904880 
666.285 119327904 120461280 121208760 121494776 121311568 120730184 
669.178 119855448 118765808 117486296 116001632 114285304 112331640 
672.071 110173944 107887344 105562064 103288456 101124712 99091728 97185320 
675.446 95393672 93712040 92148016 90713016 89414496 88245496 87186776 
678.820 86213144 85301848 84439504 83623696 82855928 82136024 81456336 
682.195 80802920 80160096 79516464 78869144 78223256 77589232 76975384 
685.570 76385800 75819728 75275528 74754480 74262304 73807896 73397336 
688.945 73029632 72692360 72363640 72015728 71625112 71176608 70667544 
692.320 70105920 69506832 68886904 68259720 67635800 67023872 66431336 
695.694 65867068 65340644 64860152 64432444 64060300 63743956 63481300 
699.069 63270204 63108520 62994464 62926480 62900664 62911080 62949920 
702.444 63007988 63077332 63153236 63234596 63323028 63420640 63528052 
705.819 63643204 63762188 63881240 64000056 64123204 64260916 64427024 
709.194 64635724 64903504 65248340 65692304 66265264 67001568 67931584 
712.569 69070568 70402496 71867648 73356456 74733024 75848848 76576456 
715.943 76845368 76651200 76061696 75195856 74213840 73290952 72585896 
719.318 72247680 72392208 73089376 74354544 76124824 78253928 80496920 
722.693 82551848 84108568 84886656 84725296 83610472 81689464 79221912 
726.068 76529656 73926592 71634528 69778416 68381296 67393768 66730016 
729.443 66300892 66039616 65897488 65843000 65852912 65903508 65973276 
732.817 66047488 66120596 66197380 66287652 66399716 66533432 66680096 
736.192 66825652 66958344 67073480 67175960 67275416 67381840 67499424 
739.567 67626048 67755488 67883896 68013776 68155160 68321224 68521520 
742.942 68756848 69016152 69281400 69531408 69749664 69929056 70070680 
746.317 70180920 70267120 70335448 70389800 70433984 70473928 70517072 
749.692 70570392 70638184 70719552 70808472 70897992 70983816 71067480 
753.066 71156896 71262416 71393424 71554280 71743488 71955192 72182600 
756.441 72421368 72669088 72924464 73185096 73446192 73701752 73947992 
759.816 74185688 74421864 74667544 74933624 75226112 75544312 75881992 
763.191 76233960 76600688 76994696 77441528 77980968 78662864 79539984 
766.566 80665048 82075912 83779584 85734144 87835232 89925368 91798352 
769.940 93262736 94194320 94585800 94570888 94403712 94400168 94812320 
773.315 95755456 97132728 98654080 99874968 100319024 99645040 97715792 
776.690 94661488 90810328 86620504 82538784 78890992 75871544 73516000 
780.065 71749432 70434800 69430976 68627920 67951192 67366256 66861288 
783.440 66435972 66093548 65840072 65685324 65642276 65725340 65947428 
786.815 66315712 66832876 67500112 68321768 69309648 70483824 71868696 
790.189 73491480 75376848 77545576 80019168 82821040 85977696 89517664 
793.564 93460408 97806176 102520112 107527920 112708304 117888928 122874848 
796.939 127448168 131395016 134552784 136827952 138235184 138898112 
799.832 139050112 138991056 139009440 139353200 140147168 141360736 
802.724 142788416 144081600 144824944 144588192 143067424 140154208 
805.617 135973232 130852592 125244784 119633952 114382872 109693040 
808.510 105572120 101873376 98357936 94783176 90992104 86934128 82675920 
811.885 78354200 74139792 70182096 66577344 63373560 60571932 58147156 
815.259 56061820 54279316 52767004 51494272 50432632 49555492 48837740 
818.634 48260864 47812496 47485736 47276616 47181936 47197120 47318104 
822.009 47542624 47873904 48320520 48895700 49614692 50489128 51525532 
825.384 52720652 54060408 55516048 57043152 58583840 60062928 61402396 
828.759 62533164 63407564 64018832 64407544 64666524 64920472 65317848 
832.133 66011192 67120848 68725792 70833512 73369008 76155776 78919720 
835.508 81337160 83040816 83707448 83133376 81264960 78230320 74298512 
838.883 69845144 65251804 60843052 56867984 53458680 50652324 48416408 
842.258 46680000 45358776 44370544 43649364 43138940 42791944 42571112 
845.633 42445664 42393204 42400692 42460208 42566288 42713156 42892656 
849.008 43096820 43320848 43565252 43836584 44144064 44496252 44897520 
852.382 45346384 45838492 46370348 46942988 47563032 48241460 48990120 
855.757 49819296 50735772 51745068 52854756 54076168 55427912 56934272 
859.132 58621988 60522148 62667912 65093652 67836056 70923424 74363200 
862.507 78120832 82102640 86147760 90013128 93418384 96071872 97706872 
865.882 98150832 97342216 95351040 92358224 88638104 84515288 80291944 
869.256 76244072 72581160 69428840 66851780 64856188 63408600 62449020 
872.631 61903956 61696904 61744000 61963224 62276280 62606668 62893040 
876.006 63093996 63192056 63197760 63144728 63083304 63063956 63129364 
879.381 63302136 63578764 63929260 64302408 64640648 64886272 64997628 
882.756 64958952 64781404 64501472 64168140 63837060 63553824 63347944 
886.131 63234560 63216388 63291936 63462584 63736320 64126080 64646488 
889.505 65305412 66100532 67016408 68029160 69109296 70227664 71361400 
892.880 72492080 73605256 74688792 75729632 76714176 77628688 78458624 
896.255 79188392 79800352 80272168 80579680 80701000 80620896 80338296 
899.630 79868760 79245256 78511264 77715624 76908416 76131136 75419336 
903.005 74802136 74300720 73933384 73714632 73655112 73762848 74043312 
906.379 74501008 75140112 75966056 76984608 78201840 79621176 81243624 
909.754 83067616 85090552 87310192 89725096 92333512 95130968 98106640 
913.129 101245720 104529952 107944736 111486872 115169272 119023120 
916.022 123090744 127420840 132055160 137015696 142293664 147835696 
918.914 153539600 159230320 164668288 169568000 173598336 176460064 
921.807 177942448 177976096 176682368 174375504 171556352 168798976 
924.700 166711136 165852912 166613296 169194688 173550464 179399568 
927.593 186212368 193267248 199793232 204983968 208163552 208892768 
930.485 206967904 202446048 195580960 186779936 176523792 165315792 
933.378 153684896 142110800 131014032 120757488 111590928 103673872 97084128 
936.753 91823360 87850280 85099016 83497696 82966856 83410200 84706168 
940.128 86672928 89063288 91590704 93918480 95725560 96761720 96862720 
943.502 95994496 94242600 91799616 88911712 85834016 82807336 80006968 
946.877 77544344 75471368 73788376 72464440 71452248 70704464 70176872 
950.252 69831800 69639488 69573024 69608096 69724880 69905512 70137416 
953.627 70412944 70727552 71078368 71462632 71876168 72314632 72774424 
957.002 73253568 73751848 74270016 74808040 75364120 75934488 76515040 
960.377 77103424 77700088 78308520 78933632 79579064 80245504 80930848 
963.751 81630320 82339968 83058512 83787776 84531672 85293536 86074760 
967.126 86873576 87686920 88512272 89350152 90203832 91078608 91978816 
970.501 92905360 93855264 94823368 95804664 96796832 97801488 98822744 
973.876 99865456 100931872 102022208 103134816 104268656 105425696 106610472 
977.251 107828776 109085080 110380968 111714544 113082824 114485112 
980.143 115924304 117408272 118945992 120545152 122208256 123932408 
983.036 125710160 127532152 129389408 131271360 133162904 135041824 
985.929 136873856 138614976 140220112 141646192 142863536 143860400 
988.821 144642400 145231312 145658752 145967408 146204672 146420144 
991.714 146667056 146991552 147429616 148003952 148720704 149573600 
994.607 150548592 151632128 152814800 154092688 155465040 156930560 
997.500 158483904 160116432 161817568 163578784 165395952 167266608 
1000.392 169186512 171145104 173120928 175085344 177007840 178862032 
1003.285 180632864 182318816 183929520 185482048 186996896 188498976 
1006.178 190015248 191577776 193222880 194983424 196885424 198940672 
1009.070 201145344 203481936 205925792 208454432 211047360 213687520 
1011.963 216356192 219026144 221661280 224223040 226674544 228993680 
1014.856 231175184 233227216 235160992 236979920 238671888 240210448 
1017.748 241561840 242695552 243596480 244268496 244736160 245038720 
1020.641 245231472 245384752 245576640 245899696 246448544 247303056 
1023.534 248525328 250143104 252149696 254508256 257163936 260056464 
1026.427 263119616 266287424 269485792 272620128 275583968 278258432 
1029.320 280521632 282272512 283429216 283931936 283741920 282831776 
1032.213 281188096 278817312 275754528 272068160 267850336 263212176 
1035.106 258262016 253087936 247762048 242336880 236854080 231357104 
1037.999 225891728 220506320 215253280 210181344 205337360 200768720 
1040.892 196515312 192605600 189043040 185792064 182765104 179818960 
1043.785 176783120 173467648 169707312 165402912 160530256 155152528 
1046.678 149398480 143449984 137502544 131732432 126295416 121299384 
1049.571 116804728 112833008 109369536 106376368 103799760 101583904 
1052.464 99675384 98026656 96601312 95368704 94300648 93370680 92547816 
1055.840 91797200 91084744 90376048 89642248 88862800 88024976 87124888 
1059.215 86167640 85168224 84150880 83147544 82199208 81348472 80635688 
1062.590 80097776 79760896 79641472 79746168 80072192 80607328 81327608 
1065.965 82198808 83171056 84179592 85156416 86029360 86736320 87236352 
1069.341 87509568 87559912 87408656 87089992 86641984 86099360 85494360 
1072.716 84851440 84188248 83518744 82853080 82200768 81573536 80985344 
1076.091 80453256 79995984 79629168 79363016 79199080 79129632 79138648 
1079.466 79205488 79309480 79430600 79551608 79657312 79732424 79762648 
1082.842 79737808 79655320 79526176 79376544 79251176 79205968 79302680 
1086.217 79606440 80172248 81043520 82247656 83790112 85651080 87779176 
1089.592 90097360 92497024 94848424 97026784 98915104 100428816 101528016 
1092.967 102214184 102526944 102527320 102291384 101892648 101394504 
1095.860 100853664 100316392 99822800 99412528 99120360 98973528 98984096 
1099.236 99139312 99392576 99656592 99816664 99733120 99262256 98292992 
1102.611 96755800 94646152 92022272 89001296 85737296 82388584 79114128 
1105.986 76044608 73271888 70856408 68823656 67172824 65885768 64934052 
1109.361 64284420 63899548 63742920 63776500 63958972 64248964 64600580 
1112.737 64964184 65292352 65539272 65666860 65651180 65482476 65166756 
1116.112 64721444 64173596 63553788 62890784 62212424 61541648 60896000 
1119.487 60290020 59733324 59232136 58789864 58407664 58085072 57819760 
1122.862 57607080 57437544 57294684 57156484 56994152 56777152 56481088 
1126.238 56091792 55611168 55056668 54461260 53865468 53307984 52822684 
1129.613 52431304 52141064 51947316 51834996 51783068 51765600 51757276 
1132.988 51735176 51681136 51586124 51451220 51287796 51114668 50955472 
1136.363 50833724 50767200 50766536 50832832 50958636 51128420 51320536 
1139.739 51510720 51671764 51777620 51807260 51744508 51581608 51318372 
1143.114 50961504 50521844 50012168 49447204 48840968 48207804 47563032 
1146.489 46920468 46293192 45691596 45121448 44584476 44078192 43598696 
1149.864 43141868 42705368 42289136 41895124 41526040 41184344 40872104 
1153.240 40591268 40344316 40134464 39965140 39839176 39757832 39719596 
1156.615 39721560 39759284 39829408 39930048 40060984 40223000 40416968 
1159.990 40642784 40899408 41184816 41497280 41834264 42192652 42566872 
1163.365 42948800 43326308 43685524 44012772 44295320 44523640 44691516 
1166.740 44794764 44831204 44800312 44703268 44544492 44331940 44077608 
1170.116 43795388 43500168 43206096 42924512 42664900 42435472 42244000 
1173.491 42099116 42010704 41987856 42039904 42174180 42396748 42713080 
1176.866 43129244 43652260 44290256 45051720 45944372 46975956 48153532 
1180.241 49485228 50981252 52652944 54512684 56572800 58843056 61330608 
1183.617 64038760 66965960 70102456 73424416 76892360 80439896 83974552 
1186.992 87387864 90549440 93328248 95607648 97285128 98291168 98593456 
1190.367 98198264 97150464 95527008 93434360 90987160 88304040 85500408 
1193.742 82671472 79896848 77236472 74726376 72385040 70213992 68203504 
1197.118 66336096 64592392 62955356 61411668 59953248 58576636 57281152 
1200.493 56066532 54932156 53875368 52892624 51980928 51138932 50367884 
1203.868 49671600 49055332 48523028 48075760 47709936 47418580 47191724 
1207.243 47019112 46892488 46805492 46753244 46731948 46736340 46761064 
1210.619 46800808 46852404 46916592 46998180 47106632 47253340 47450068 
1213.994 47708456 48037972 48446344 48939640 49521584 50193004 50951032 
1217.369 51789864 52700936 53675336 54706116 55788884 56923092 58110112 
1220.744 59352684 60654224 62018564 63451776 64962760 66562980 68265656 
1224.120 70082088 72018896 74075144 76241232 78498760 80819240 83167728 
1227.495 85500848 87766000 89908784 91872240 93603056 95061344 96220712 
1230.870 97073856 97631728 97925432 98006848 97943160 97825472 97759944 
1234.245 97857024 98236360 99007440 100261744 102074672 104496488 107554656 
1237.621 111256504 115590808 120527312 126009880 131962208 138278336 
1240.514 144822976 151451440 158004096 164316448 170238592 175620608 
1243.407 180323392 184229296 187238064 189280800 190325024 190371504 
1246.300 189450784 187615376 184940384 181516288 177445504 172843712 
1249.193 167818992 162461008 156831376 150953968 144822592 138415888 
1252.086 131719408 124743776 117539544 110193624 102830232 95595512 88628072 
1255.461 82060976 75998224 70501480 65597916 61276236 57497224 54200856 
1258.836 51318560 48782352 46524116 44486452 42622280 40893836 39276440 
1262.212 37754708 36320412 34970056 33701224 32511354 31397108 30355068 
1265.587 29382806 28479368 27644080 26876164 26172630 25528596 24938224 
1268.962 24396594 23901568 23454844 23060914 22725924 22455006 22251700 
1272.337 22117800 22054628 22064040 22149456 22313716 22557846 22878002 
1275.713 23265332 23704094 24172482 24646178 25096202 25491772 25804534 
1279.088 26008348 26085750 26031954 25856192 25580854 25234856 24849976 
1282.463 24451660 24054410 23663542 23276624 22889844 22502880 22121180 
1285.838 21755526 21419556 21124302 20877324 20681638 20537310 20443978 
1289.214 20402372 20413658 20478258 20594596 20758270 20962684 21201080 
1292.589 21467840 21758034 22066062 22384914 22702986 23007772 23287252 
1295.964 23534274 23749484 23941868 24127364 24323944 24549924 24821908 
1299.339 25152762 25553724 26032868 26592818 27226366 27912144 28615000 
1302.715 29284508 29863182 30298574 30546526 30581968 30400234 30016430 
1306.090 29460528 28771666 27996810 27182200 26371194 25603558 24908010 
1309.465 24302640 23794000 23378644 23047358 22789438 22596728 22464672 
1312.840 22390984 22373612 22408636 22489900 22610410 22764612 22949398 
1316.216 23164074 23407878 23677222 23964660 24258876 24548768 24826574 
1319.591 25091042 25346854 25601870 25863612 26135010 26413834 26693648 
1322.966 26967540 27230142 27480194 27720538 27958362 28203602 28469284 
1326.341 28771880 29129992 29560536 30075374 30675122 31345680 32057542 
1329.717 32772362 33451464 34062852 34590164 35033408 35406612 35730304 
1333.092 36026412 36313820 36605676 36911540 37238956 37593860 37981636 
1336.467 38405556 38866560 39364292 39898556 40471628 41088836 41757108 
1339.842 42481324 43262244 44094368 44967376 45867948 46782432 47697580 
1343.218 48597988 49466700 50284060 51028836 51684080 52239928 52695400 
1346.593 53056132 53329152 53514784 53602008 53565044 53367776 52974184 
1349.968 52355192 51500500 50422400 49157876 47762560 46301044 44846340 
1353.343 43466032 42218324 41152284 40299088 39671820 39263128 39048396 
1356.719 38989892 39043792 39171920 39343292 39537228 39743088 39955984 
1360.094 40175240 40405588 40659232 40958644 41333548 41819012 42442704 
1363.469 43214512 44122680 45134136 46202340 47270148 48280748 49177804 
1366.844 49903064 50405836 50643464 50587956 50233324 49595976 48712472 
1370.219 47629356 46399624 45076164 43704764 42333112 41010824 39789024 
1373.595 38724284 37867164 37250040 36881420 36743400 36802864 37022440 
1376.970 37376916 37859316 38483028 39276800 40281128 41545948 43123388 
1380.345 45068372 47428852 50225176 53425776 56917160 60508816 63920432 
1383.720 66822788 68905200 69883328 69566992 67896488 64977580 61091264 
1387.096 56641044 52102020 47877564 44228876 41268468 38975500 37255456 
1390.471 35983824 35045728 34344588 33804432 33373278 33013832 32702622 
1393.846 32429588 32194156 32002434 31861034 31773790 31738464 31748944 
1397.221 31797000 31875298 31979252 32107058 32260068 32440976 32653612 
1400.597 32900908 33183754 33500962 33849420 34224404 34621592 35038832 
1403.972 35477040 35940200 36432464 36956744 37511712 38093176 38695996 
1407.347 39317608 39959656 40627760 41328848 42068376 42848148 43666476 
1410.722 44519784 45404352 46315276 47243404 48168600 49058892 49872140 
1414.098 50563012 51100316 51475992 51713196 51859452 51981972 52154772 
1417.473 52442292 52894984 53536592 54358696 55321692 56365408 57426312 
1420.848 58447276 59388316 60231248 60980216 61667232 62349560 63105180 
1424.223 64007044 65102892 66401296 67871848 69461968 71113656 72784296 
1427.599 74445664 76081792 77684160 79245496 80760856 82232240 83677400 
1430.974 85131424 86637808 88243264 89982032 91872072 93918728 96127312 
1434.349 98516792 101125632 104009416 107219304 110775984 114639624 
1437.242 118719336 122906992 127106728 131243976 135244672 139022032 
1440.135 142443072 145330288 147500864 148771984 149006288 148135760 
1443.028 146159712 143147376 139222880 134568848 129398912 123929232 
1445.921 118385176 112967680 107853360 103204320 99140056 95723944 92945784 
1449.297 90730656 88962752 87525128 86342384 85393352 84709992 84347832 
1452.672 84355840 84744056 85479064 86485224 87667096 88935784 90208848 
1456.047 91434280 92598752 93738232 94918464 96207808 97669568 99342976 
1459.422 101249608 103399640 105786176 108382152 111128144 113942000 
1462.315 116700632 119238816 121379920 122946480 123821216 123994648 
1465.208 123583064 122791144 121829072 120877784 120050272 119397816 
1468.102 118936360 118654976 118522056 118475824 118418856 118216312 
1470.995 117697624 116709392 115167720 113113056 110707616 108177648 
1473.888 105730376 103492728 101525504 99853112 98493888 97480256 96848216 
1477.263 96614392 96763008 97240648 97973920 98883480 99909160 101022384 
1480.638 102225552 103546344 105023016 106694976 108594408 110750976 
1483.531 113201968 115995408 119187936 122827320 126929256 131442592 
1486.424 136218320 141019552 145500656 149240128 151811696 152807504 
1489.317 151941616 149135520 144558368 138609376 131795792 124629640 
1492.210 117493248 110601344 104052776 97853000 91980576 86446168 81305880 
1495.586 76669184 72673240 69431560 66995532 65341300 64397396 64070052 
1498.961 64272320 64937248 66008524 67433120 69157632 71117128 73238664 
1502.336 75448672 77652928 79740112 81572504 82948920 83612408 83268856 
1505.711 81659184 78707064 74628232 69895624 65015480 60337188 55995396 
1509.087 51977748 48224540 44692216 41370392 38288368 35491708 33012722 
1512.462 30864446 29032352 27484572 26183504 25094272 24186740 23430608 
1515.837 22796458 22259236 21801478 21420950 21127258 20932640 20841344 
1519.212 20842386 20909032 21009072 21116126 21226166 21361048 21557284 
1522.588 21843846 22225406 22685600 23197556 23740350 24305268 24901484 
1525.963 25549718 26273082 27083620 27978186 28941814 29957354 31014168 
1529.338 32110736 33255540 34461260 35739692 37099304 38542804 40066108 
1532.713 41658448 43301592 44971124 46639456 48282304 49879984 51417912 
1536.089 52878628 54241808 55487396 56589404 57524500 58273052 58821696 
1539.464 59159908 59279532 59183148 58887832 58427604 57844932 57173340 
1542.839 56425660 55590832 54646212 53574640 52385880 51121192 49843860 
1546.214 48611552 47449956 46347676 45263780 44151216 42980004 41758784 
1549.590 40533572 39373692 38335992 37441888 36675108 35996136 35366348 
1552.965 34765368 34200668 33700468 33295140 32996242 32786726 32621284 
1556.340 32439478 32168500 31729874 31055308 30109926 28932926 27645986 
1559.715 26403904 25318510 24424774 23700212 23096520 22561686 22049538 
1563.091 21526400 20975688 20402822 19832308 19299048 18834434 18450896 
1566.466 18139374 17873718 17623786 17364860 17087028 16798214 16519748 
1569.841 16276028 16082678 15943961 15854325 15806077 15792780 15808757 
1573.216 15847864 15898798 15945610 15971666 15965754 15931450 15889585 
1576.592 15871406 15900617 15984489 16114071 16273241 16447887 16631484 
1579.967 16826526 17041228 17285032 17562612 17873130 18209718 18563858 
1583.342 18926938 19290874 19646000 19978172 20268586 20497364 20647584 
1586.717 20713332 20702836 20640566 20561210 20504204 20508548 20604084 
1590.093 20811866 21144096 21602728 22178294 22844368 23559040 24259926 
1593.468 24872816 25327922 25565424 25553020 25291536 24814540 24179732 
1596.843 23453200 22703092 21985156 21340896 20801750 20388168 20112214 
1600.218 19978554 19984312 20121202 20378444 20746904 21219484 21789458 
1603.594 22447086 23174558 23942846 24715970 25449716 26098240 26620366 
1606.969 26979210 27148092 27112364 26869326 26428800 25810722 25047022 
1610.344 24178156 23251384 22319784 21429408 20614332 19892036 19261328 
1613.719 18708084 18210756 17748232 17303756 16869410 16450090 16061464 
1617.094 15725506 15461974 15282268 15186490 15165387 15202205 15277188 
1620.470 15371408 15468875 15562450 15655838 15762612 15899999 16081268 
1623.845 16309500 16577506 16872992 17185778 17511690 17851898 18208854 
1627.220 18581354 18962206 19338748 19698662 20035002 20349520 20650468 
1630.595 20948182 21248714 21551122 21846318 22120728 22360004 22551110 
1633.971 22685740 22761050 22780498 22753334 22693526 22617462 22538232 
1637.346 22463554 22393426 22321738 22236566 22123934 21973306 21780608 
1640.721 21552478 21303902 21054388 20819304 20604360 20404316 20203530 
1644.096 19982438 19721060 19407588 19042654 18641394 18231730 17846616 
1647.472 17516244 17258414 17079378 16974174 16930970 16931658 16951158 
1650.847 16958290 16912642 16773624 16519988 16176144 15817314 15527627 
1654.222 15352940 15284876 15286180 15315663 15343946 15355480 15345354 
1657.597 15315972 15272486 15218745 15155436 15079720 14987347 14874660 
1660.973 14739858 14583340 14407730 14217708 14020311 13824370 13640143 
1664.348 13475988 13336734 13220956 13121157 13024556 12914664 12775488 
1667.723 12595968 12373293 12115262 11837125 11558927 11296787 11061216 
1671.098 10855734 10678637 10524388 10384143 10246080 10095648 9919302 
1674.474 9710531 9475479 9234902 9015261 8838811 8712867 8630559 8575842 
1678.331 8531809 8487578 8440819 8398320 8370113 8364269 8380349 8407745 
1682.188 8427271 8418116 8365587 8271659 8158675 8061079 8007481 8006197 
1686.046 8048692 8119750 8206554 8300906 8399164 8499844 8601932 8703537 
1689.903 8803509 8902659 9004808 9115576 9239606 9377722 9525025 9670482 
1693.761 9800602 9902928 9972561 10016672 10055090 10110809 10196485 
1697.136 10308608 10429280 10533860 10595411 10592966 10520383 10394528 
1700.511 10253476 10136042 10064145 10034711 10030167 10027489 10007381 
1703.886 9955711 9864659 9734622 9573562 9395768 9215643 9044186 8887102 
1707.744 8743530 8609333 8478692 8346942 8211990 8075088 7939748 7810759 
1711.601 7691824 7583779 7485638 7394192 7307179 7223250 7143143 7067497 
1715.459 6995870 6923751 6844877 6753297 6649085 6541064 6444873 6375636 
1719.316 6341710 6342786 6370760 6413901 6461318 6505579 6544259 6579344 
1723.174 6614869 6654973 6701306 6752826 6806809 6861102 6914391 6966341 
1727.031 7015502 7059515 7093564 7113065 7115524 7102489 7079250 7052612 
1730.888 7026109 6996712 6953513 6878000 6752792 6569219 6339289 6095033 
1734.746 5877747 5715828 5615087 5562796 5538230 5522356 5500443 5465211 
1738.603 5416963 5361072 5305491 5257630 5221613 5198541 5187677 5187509 
1742.461 5197066 5214738 5238783 5266585 5296234 5326556 5357383 5388816 
1746.318 5420821 5451655 5477961 5495343 5500041 5489168 5462124 5419849 
1750.176 5364494 5299219 5228252 5156995 5091718 5037981 4999166 4974967 
1754.033 4960824 4948389 4928215 4892023 4836502 4765510 4688870 4618773 
1757.890 4563655 4525284 4498500 4473994 4441422 4393957 4329932 4254172 
1761.748 4174443 4099513 4035631 3985335 3947884 3921236 3903082 3890544 
1765.605 3880415 3869249 3853436 3831374 3804532 3777859 3757872 3748648 
1769.463 3750286 3757338 3760379 3749383 3718904 3670884 3616186 3569614 
1773.320 3541987 3537744 3552443 3578567 3608001 3637069 3665170 3694609 
1777.177 3727292 3762485 3796476 3823886 3839931 3843675 3838059 3829635 
1781.035 3825423 3828933 3840132 3854807 3868480 3877473 3881284 3882320 
1784.892 3883925 3888605 3896897 3907796 3919765 3932403 3946748 3963934 
1788.750 3984566 4006168 4023959 4031016 4020716 3990418 3942133 3883524 
1792.607 3823618 3770606 3727961 3694910 3668578 3646057 3625842 3607934 
1796.465 3593000 3580839 3570115 3558790 3545026 3528090 3509484 3491547 
1800.322 3476517 3465829 3459015 3454707 3452236 3451768 3454941 3463224 
1804.179 3477285 3495756 3516065 3534804 3549971 3561863 3571885 3582676 
1808.037 3595472 3609337 3621833 3629584 3631055 3627112 3621732 3619628 
1811.894 3624071 3636100 3653374 3671986 3688928 3702964 3715596 3730434 
1815.752 3751322 3780366 3817735 3861560 3909401 3958952 4009279 4059912 
1819.609 4110316 4159155 4204352 4243498 4275486 4299579 4316546 4327523 
1823.467 4333412 4335420 4335287 4335755 4340876 4354296 4378394 4411932 
1827.324 4450560 4486582 4512461 4523409 4519793 4508343 4499002 4501881 
1831.181 4522170 4559068 4607321 4660568 4714024 4766247 4818945 4875168 
1835.039 4937498 5005602 5077739 5151162 5225000 5300930 5383448 5477894 
1838.896 5588404 5716231 5859678 6014697 6176997 6343223 6510825 6677954 
1842.754 6843363 7005501 7163960 7319580 7475188 7633819 7796657 7961379 
1846.611 8122079 8269768 8394637 8489234 8549921 8577328 8575469 8548738 
1850.469 8500181 8429838 8336167 8217662 8075290 7913664 7739482 7559671 
1854.326 7379599 7201218 7024459 6848917 6675801 6508505 6351562 6208354 
1858.183 6079139 5960644 5847521 5734831 5620290 5505678 5395156 5293484 
1862.041 5202967 5123098 5050887 4983983 4921948 4867361 4823837 4794354 
1865.898 4778676 4772411 4767955 4758341 4739750 4713455 4685554 4663415 
1869.756 4652732 4654674 4666229 4682439 4698751 4712651 4722767 4728729 
1873.613 4729399 4722231 4705182 4676812 4638331 4593390 4546445 4501580 
1877.470 4459934 4419831 4377590 4330367 4276758 4218237 4157984 4099245 
1881.328 4043022 3988679 3934109 3878476 3822816 3771141 3727760 3696013 
1885.185 3675060 3661026 3647393 3628415 3601419 3567609 3531230 3496958 
1889.043 3468601 3447460 3432898 3423915 3420608 3424716 3437908 3460585 
1892.900 3490412 3523013 3553044 3577565 3596508 3613413 3632859 3657919 
1896.758 3688227 3719873 3747278 3766629 3777759 3784310 3792031 3806404 
1900.615 3829368 3859487 3892718 3924613 3953234 3978948 4003660 4028976 
1904.472 4054460 4077103 4093224 4100248 4098241 4090281 4081050 4073992 
1908.330 4070715 4069510 4067336 4062119 4054092 4045330 4039243 4038006 
1912.187 4042119 4049377 4057805 4065765 4073691 4082855 4093793 4104329 
1916.045 4110149 4104764 4084294 4049310 4006135 3964704 3933975 3917525 
1919.902 3911574 3908331 3897532 3872525 3833212 3785012 3737519 3698486 
1923.760 3672086 3656549 3647293 3639708 3632257 3626644 3626343 3632625 
1927.617 3643852 3654310 3657585 3649665 3631088 3606965 3584881 3570783 
1931.474 3566841 3570148 3575326 3577632 3574825 3568177 3560560 3553979 
1935.332 3548801 3542822 3534170 3523447 3514461 3513526 3525952 3552777 
1939.189 3589358 3626811 3655446 3668545 3665871 3652172 3635665 3622434 
1943.047 3614716 3610673 3607165 3603390 3601753 3608168 3628248 3663332 
1946.904 3709647 3758741 3802092 3834884 3858585 3879144 3903884 3937051 
1950.761 3976507 4015833 4046567 4064326 4070313 4071283 4075063 4086067 
1954.619 4102590 4118277 4124465 4116505 4094964 4067738 4045129 4034427 
1958.476 4037337 4049008 4060614 4064761 4059443 4047203 4033992 4024361 
1962.334 4019177 4015231 4008643 3998845 3988378 3983295 3989114 4006503 
1966.191 4030848 4052788 4063256 4059811 4045798 4030949 4024361 4031183 
1970.049 4048875 4069878 4085130 4090381 4088107 4086635 4094663 4117842 
1973.906 4154906 4200404 4249152 4301018 4361693 4441255 4546210 4674434 
1977.763 4812580 4939575 5036171 5089539 5098356 5070900 5020282 4958946 
1981.621 4893565 4827522 4760586 4694798 4633977 4583746 4548587 4528666 
1985.478 4519659 4513934 4505464 4492541 4478212 4468939 4469106 4478480 
1989.336 4490365 4495889 4487385 4463650 4431279 4402660 4390309 4402191 
1993.193 4438711 4492406 4554949 4618874 4680765 4741291 4800619 4856404 
1997.051 4902847 4932002 4937900 4920072 4885020 4842600 4803500 4774120 
2000.908 4754623 4739783 4723303 4701229 4673831 4645799 4622758 4608024 
2004.765 4601929 4600757 4601494 4604139 4612075 4630862 4664085 4708966 
2008.623 4757437 4798408 4822731 4826383 4813317 4791674 4771172 4758676 
2012.480 4755595 4760418 4770569 4785912 4809129 4844677 4895575 4960622 
2016.338 5034663 5109922 5180802 5246328 5309181 5373351 5441187 5510041 
2020.195 5573770 5625190 5660369 5679974 5690515 5698706 5708543 5718715 
2024.052 5723583 5717305 5698169 5671245 5646707 5636267 5647177 5678094 
2027.910 5719622 5758669 5785061 5794665 5792347 5786975 5788520 5802656 
2031.767 5829051 5864213 5905456 5951037 6003308 6064590 6134080 6206540 
2035.625 6274439 6330817 6372946 6404620 6434078 6469222 6514256 6566225 
2039.482 6616181 6654906 6675531 6678290 6669912 6659347 6653796 6655512 
2043.340 6660861 6663956 6660626 6650768 6639530 6634651 6643938 6670989 
2047.197 6715001 6771975 6835755 6900555 6960348 7009642 7042138 7052309 
2051.054 7037390 7000248 6948766 6895270 6853393 6832490 6834611 6853898 
2054.912 6878539 6897525 6904056 6899107 6889816 6885507 6893250 6914223 
2058.769 6944187 6976779 7005703 7028466 7046011 7061435 7076051 7089017 
2062.627 7096326 7094170 7081507 7061536 7040623 7025637 7020620 7024964 
2066.484 7034157 7041498 7042441 7036683 7027018 7017791 7011730 7008565 
2070.342 7004928 6996375 6980281 6957789 6932874 6911227 6895808 6887157 
2074.199 6881468 6874836 6863660 6848176 6831077 6816603 6807852 6804857 
2078.056 6804790 6804352 6800650 6793582 6785605 6779514 6777326 6778672 
2081.914 6781196 6782139 6779951 6775879 6772850 6773859 6780321 6790889 
2085.771 6802164 6809973 6811555 6806506 6796342 6782408 6765783 6744682 
2089.629 6717188 6682059 6640707 6597544 6559430 6532924 6521454 6525154 
2093.486 6540525 6562760 6587721 6613389 6639900 6667658 6696124 6722775 
2097.344 6744480 6759119 6767196 6772413 6780254 6795399 6819633 6851104 
2101.201 6885473 6917926 6946678 6972705 6999642 7031834 7071437 7117410 
2105.058 7166723 7215333 7261355 7305461 7350717 7400798 7457491 7519990 
2108.916 7585128 7649601 7711419 7770345 7828065 7885691 7942617 7995803 
2112.773 8040489 8072894 8092203 8100675 8103916 8108069 8118298 8136562 
2116.631 8161883 8191831 8224045 8256969 8290909 8326304 8363594 8402036 
2120.488 8440886 8479841 8520084 8563777 8613490 8669835 8731190 8793265 
2124.345 8851222 8901137 8942535 8978017 9012149 9049633 9092364 9139500 
2128.203 9187113 9231280 9268884 9299044 9323113 9343797 9363536 9384696 
2132.060 9409278 9440294 9481506 9536982 9608080 9693115 9785215 9874726 
2135.918 9952694 10013416 10056820 10088188 10114538 10141333 10169892 
2139.293 10197571 10219009 10231188 10234105 10231493 10228847 10230102 
2142.668 10234037 10236039 10228881 10207950 10173114 10129190 10082966 
2146.043 10040645 10002838 9966187 9924183 9870963 9805889 9732352 9657032 
2149.901 9584470 9515509 9446762 9371120 9284116 9185049 9078729 8972740 
2153.758 8872289 8777441 8683863 8585980 8482612 8382679 8303979 8270916 
2157.616 8303844 8409941 8578646 8785116 8998956 9193374 9353819 9476664 
2161.473 9564620 9622545 9652696 9654491 9628981 9578101 9509311 9430237 
2165.331 9348977 9267733 9185285 9096730 8998753 8892175 8783357 8682038 
2169.188 8595848 8528937 8478658 8437305 8395178 8345962 8287971 8224821 
2173.045 8163538 8110803 8071442 8046497 8034616 8031173 8031950 8030229 
2176.903 8018280 7989626 7939275 7867404 7780634 7691689 7615441 7564021 
2180.760 7542814 7547466 7566583 7585128 7591838 7583172 7563111 7539915 
2184.618 7522451 7514798 7515641 7519956 7522417 7521001 7517664 7516888 
2188.475 7521169 7530778 7541735 7548006 7544938 7531317 7509842 7486110 
2192.333 7464805 7448929 7437536 7429042 7422099 7418459 7421492 7435446 
2196.190 7461671 7496830 7534217 7565167 7583408 7587387 7580643 7569112 
2200.047 7558491 7551411 7546455 7539881 7527845 7509202 7485773 7462244 
2203.905 7442188 7428099 7419133 7413605 7408988 7404943 7401977 7401337 
2207.762 7402921 7405078 7404202 7397765 7385699 7371544 7361063 7360558 
2211.620 7373094 7398068 7430155 7462749 7490088 7510078 7523563 7533003 
2215.477 7540521 7546725 7549186 7545612 7535700 7521068 7506134 7495751 
2219.334 7492886 7496998 7504786 7512000 7515236 7514528 7512505 7513045 
2223.192 7518708 7529025 7540993 7550939 7555895 7554985 7550231 7544399 
2227.049 7539375 7535734 7531756 7526193 7518371 7510348 7504786 7504246 
2230.907 7508999 7516315 7521945 7521372 7513146 7498886 7483245 7470738 
2234.764 7464906 7465547 7470233 7475660 7480210 7484391 7491301 7503538 
2238.622 7522114 7544871 7567190 7584487 7593793 7596423 7596154 7598716 
2242.479 7608664 7627344 7653749 7684977 7718435 7753345 7790585 7830932 
2246.336 7874422 7918961 7960603 7995026 8019496 8033199 8037621 8035224 
2250.194 8027528 8015175 7998232 7977477 7955406 7937183 7929253 7936846 
2254.051 7961953 8001911 8050177 8098346 8138655 8166170 8179035 8177583 
2257.909 8163166 8137304 8101418 8057232 8008593 7960603 7918894 7888323 
2261.766 7871217 7865919 7868618 7874725 7880698 7885827 7891798 7901043 
2265.624 7915047 7933100 7952335 7968737 7979435 7983247 7981324 7976026 
2269.481 7969276 7962358 7954596 7945316 7934315 7922808 7913124 7907961 
2273.338 7909176 7916666 7928882 7943392 7958072 7972009 7985205 7998570 
2277.196 8012307 8026414 8040017 8052675 8064522 8077046 8091798 8109790 
2281.053 8130687 8152531 8172417 8187307 8195782 8198146 8196288 8192506 
2284.911 8188320 8184673 8180723 8175591 8169007 8160904 8152227 8143888 
2288.768 8136055 8128291 8119783 8109790 8099291 8089772 8083527 8083021 
2292.625 8088793 8100878 8117454 8136595 8156751 8177178 8197537 8217764 
2296.483 8237011 8254335 8267944 8276657 8280237 8279393 8274935 8267944 
2300.340 8258691 8246601 8230967 8211551 8189232 8165900 8143415 8123328 
2304.198 8105638 8089029 8071510 8052000 8030296 8008223 7988580 7974102 
2308.055 7966137 7964416 7966812 7971233 7975688 7979367 7982910 7986994 
2311.913 7992191 7998199 8003767 8007481 8008256 8005962 8000966 7993947 
2315.770 7984969 7973663 7958916 7939512 7915047 7886062 7853942 7820980 
2319.627 7789539 7761609 7739010 7722684 7712465 7707068 7702987 7695062 
2323.485 7677693 7645183 7594501 7526294 7444884 7357390 7271766 7194985 
2327.342 7130613 7079351 7038636 7005400 6977183 6953513 6935635 6925535 
2331.200 6924492 6931932 6945331 6961493 6977385 6991325 7003750 7015805 
2335.057 7029241 7045203 7063691 7084134 7105891 7128458 7151632 7175380 
2338.915 7199567 7223655 7247440 7270890 7294746 7320153 7348055 7378621 
2342.772 7411010 7443536 7475289 7507112 7542679 7587758 7648353 7729025 
2346.629 7830562 7949096 8077046 8205000 8323299 8422947 8497580 8543400 
2350.487 8559418 8547252 8511805 8460346 8400989 8342146 8291078 8251903 
2354.344 8225969 8212428 8208714 8212361 8222356 8238260 8260751 8290740 
2358.202 8327959 8371228 8418960 8469299 8521063 8573881 8627787 8682882 
2362.059 8738628 8794177 8848550 8901306 8953189 9005485 9059749 9117335 
2365.917 9178043 9240925 9304663 9367869 9430204 9492039 9554052 9616684 
2369.774 9679867 9743263 9806228 9868930 9931913 9997040 10066009 10140451 
2373.631 10221146 10308507 10402537 10503274 10611403 10727438 10851963 
2377.007 10984645 11124779 11270773 11421612 11576553 11735771 11899576 
2380.382 12068382 12241345 12416898 12592455 12765012 12932141 13091891 
2383.757 13243262 13385629 13518268 13640245 13750287 13847015 13929531 
2387.132 13997519 14051419 14091975 14120110 14136986 14143353 14140546 
2390.508 14129968 14113470 14092865 14069352 14043650 14015554 13984859 
2393.883 13951600 13916736 13881873 13849101 13820607 13797793 13781615 
2397.258 13772552 13771286 13779187 13797588 13828406 13872158 13928231 
2400.633 13994817 14069387 14149583 14234553 14324780 14421671 14527079 
2404.009 14641526 14764402 14893896 15028026 15165319 15305572 15450128 
2407.384 15600847 15759589 15927393 16104169 16289376 16482130 16681442 
2410.759 16886908 17097436 17311582 17526764 17739432 17945400 18140824 
2414.134 18321892 18485642 18630014 18753368 18855404 18936108 18997444 
2417.510 19041650 19072148 19092128 19103796 19108088 19105008 19094032 
2420.885 19074886 19048606 19017208 18984186 18952860 18925864 18905134 
2424.260 18891600 18885476 18887344 18898764 18921158 18956876 19007792 
2427.635 19075404 19160998 19265312 19388604 19531198 19692838 19872298 
2431.010 20067482 20275946 20494758 20721880 20956668 21199724 21452280 
2434.386 21716302 21993208 22283894 22588630 22907656 23240550 23586886 
2437.761 23945578 24314870 24692540 25076544 25465420 25859392 26260056 
2441.136 26670252 27092754 27529472 27980872 28445758 28922192 29408086 
2444.511 29901834 30402082 30907776 31417410 31928752 32439262 32946732 
2447.887 33449784 33948364 34443072 34935004 35424192 35909532 36389368 
2451.262 36860824 37321704 37770500 38206228 38628264 39035600 39426444 
2454.637 39797776 40146416 40468536 40760180 41018072 41238480 41417592 
2458.012 41552296 41639152 41676096 41661948 41596852 41481712 41317440 
2461.388 41105188 40845892 40541140 40193924 39808776 39392592 38953932 
2464.763 38501380 38043912 37589416 37144164 36714116 36305568 35924468 
2468.138 35578300 35274484 35018968 34816128 34667240 34570748 34522676 
2471.513 34517796 34550948 34616964 34711564 34831240 34972356 35131116 
2474.889 35303560 35485272 35671704 35858360 36040524 36214620 36377372 
2478.264 36525764 36658380 36773076 36868688 36944220 36998268 37029660 
2481.639 37038248 37023996 36988636 36934084 36862988 36777872 36680804 
2485.014 36573664 36458044 36335544 36207996 36077572 35945992 35814532 
2488.390 35683036 35550284 35413836 35270676 35118076 34954252 34778040 
2491.765 34590056 34391316 34182996 33966172 33741152 33507512 33263982 
2495.140 33008538 32739240 32453832 32150802 31829872 31491544 31137920 
2498.515 30771570 30396112 30014834 29630626 29246014 28862806 28482446 
2501.891 28106590 27736606 27373888 27019654 26674866 26340002 26015210 
2505.266 25700958 25397790 25106418 24827522 24561460 24307650 24065056 
2508.641 23831978 23606932 23389206 23179276 22978044 22787168 22607792 
2512.016 22439688 22282290 22133732 21992302 21857224 21728076 21605826 
2515.392 21491618 21387222 21293288 21210508 21139434 21079988 21032512 
2518.767 20997248 20974264 20963310 20964074 20975688 20997214 21027816 
2522.142 21066388 21111884 21162984 21218128 21275784 21334422 21392860 
2525.517 21450502 21507076 21561986 21614810 21664544 21709788 21748942 
2528.893 21780748 21803324 21815344 21815482 21802662 21776464 21737376 
2532.268 21687080 21628114 21563692 21497154 21430522 21365292 21301814 
2535.643 21239596 21178744 21119850 21064162 21013594 20969812 20933580 
2539.018 20904582 20881776 20863628 20848678 20836338 20826258 20818332 
2542.394 20812490 20808598 20805888 20804150 20802794 20801716 20800708 
2545.769 20799388 20796710 20791740 20783468 20771580 20756844 20740718 
2549.144 20725078 20711350 20700506 20691680 20684000 20676392 20667842 
2552.519 20658738 20649670 20641678 20635596 20631600 20629202 20627814 
2555.895 20626978 20626006 20624930 20623156 20619788 20613116 20601582 
2559.270 20583340 20557632 20524004 20483190 20435780 20382646 20323928 
2562.645 20260116 20191660 20119536 20045518 19971580 19899562 19830920 
2566.020 19766174 19705146 19648218 19595944 19549324 19510508 19481118 
2569.396 19462302 19454054 19455268 19464208 19478728 19497546 19519690 
2572.771 19544644 19572580 19603500 19637124 19673526 19712706 19754348 
2576.146 19798874 19846008 19895608 19947016 19999576 20052840 20106662 
2579.521 20161358 20217694 20276258 20337714 20402094 20469540 20540160 
2582.896 20613880 20691090 20772172 20856640 20943976 21033174 21123050 
2586.272 21212874 21302230 21391432 21481312 21572640 21665692 21760264 
2589.647 21856144 21952394 22048772 22144994 22240890 22336004 22429886 
2593.022 22521586 22610304 22695690 22777810 22857152 22934832 23011512 
2596.397 23087644 23164038 23240514 23317352 23395568 23475828 23559214 
2599.773 23646116 23736324 23829178 23924184 24020756 24119378 24221282 
2603.148 24328396 24442510 24565036 24696574 24836468 24983882 25137278 
2606.523 25295400 25457128 25621694 25788536 25957200 26127412 26298566 
2609.898 26470354 26642138 26813214 26982278 27148270 27309524 27464664 
2613.274 27612652 27752430 27883418 28005010 28116736 28218204 28309614 
2616.649 28390962 28463094 28527452 28585342 28637968 28686672 28732052 
2620.024 28774784 28815144 28853706 28890534 28926160 28960338 28992890 
2623.399 29023706 29052614 29080602 29108520 29138214 29171096 29208306 
2626.775 29250090 29295742 29344484 29395144 29446876 29499570 29553406 
2630.150 29608598 29665072 29722724 29781060 29839616 29898568 29957780 
2633.525 30017710 30078498 30139508 30200352 30259354 30315948 30369672 
2636.900 30421200 30471668 30522566 30575428 30630962 30689490 30751012 
2640.276 30815176 30882232 30952288 31026162 31103642 31185126 31269756 
2643.651 31356506 31444554 31533118 31621988 31711694 31802740 31895976 
2647.026 31992056 32091436 32194190 32300436 32409952 32522674 32638680 
2650.401 32758002 32880430 33006002 33134614 33265840 33399612 33535786 
2653.777 33674296 33815356 33959292 34106428 34257348 34412584 34572152 
2657.152 34736148 34904236 35075972 35251016 35429188 35610308 35794488 
2660.527 35981736 36171624 36363496 36556724 36750248 36943428 37135684 
2663.902 37326976 37517164 37706672 37895832 38085112 38275012 38465904 
2667.278 38658072 38851888 39047232 39244160 39442664 39642708 39844660 
2670.653 40048848 40255680 40465480 40678112 40893472 41110976 41330120 
2674.028 41550544 41771808 41993912 42216172 42437848 42657664 42874696 
2677.403 43088188 43298556 43506756 43714544 43924012 44137060 44354988 
2680.779 44578856 44809164 45046868 45293384 45550524 45819936 46103292 
2684.154 46401652 46714720 47041896 47382292 47734600 48098156 48472456 
2687.529 48856872 49250944 49654104 50065148 50483656 50909084 51341084 
2690.904 51779972 52225844 52679128 53140004 53609168 54087092 54574524 
2694.280 55072432 55581152 56100312 56629456 57167296 57712536 58264036 
2697.655 58821544 59385092 59955108 60531748 61114756 61703588 62297276 
2701.030 62894540 63494376 64095056 64695328 65292856 65885416 66470100 
2704.405 67044400 67606024 68153336 68684456 69197920 69691456 70162464 
2707.781 70607896 71024864 71411312 71766080 72088832 72380152 72640928 
2711.156 72872184 73074952 73250272 73399152 73522440 73620720 73693744 
2714.531 73740232 73758688 73746712 73702344 73624216 73512112 73366736 
2717.906 73189528 72982904 72749664 72493728 72219304 71931768 71636600 
2721.281 71339920 71047112 70763312 70492792 70239384 70006712 69797984 
2724.657 69615880 69462472 69339000 69245528 69181728 69146984 69140616 
2728.032 69162840 69213896 69294416 69404304 69542224 69706392 69893720 
2731.407 70101912 70328160 70570312 70827272 71096952 71377328 71665640 
2734.782 71958984 72254328 72549208 72842176 73132072 73418336 73700184 
2738.158 73976400 74245680 74506912 74759312 75002728 75237976 75466168 
2741.533 75688528 75906824 76122688 76338280 76556456 76779968 77011544 
2744.908 77253928 77508336 77775296 78053848 78342848 78639792 78941776 
2748.283 79245528 79546592 79840048 80120648 80383280 80624128 80841032 
2751.659 81033856 81203960 81353664 81486312 81604880 81711656 81808648 
2755.034 81896816 81976216 82045528 82102688 82144560 82167176 82167056 
2758.409 82141032 82086552 82002144 81886504 81738416 81556792 81340800 
2761.784 81090088 80805400 80488512 80142400 79770688 79377696 78967216 
2765.160 78543296 78110320 77672704 77235208 76803576 76382328 75976200 
2768.535 75588792 75223040 74881336 74566232 74279448 74022960 73797992 
2771.910 73604280 73440384 73303616 73190344 73096704 73019360 72955232 
2775.285 72901888 72856712 72816424 72777096 72734112 72682088 72615344 
2778.661 72528256 72415896 72273504 72098144 71888088 71643752 71368112 
2782.036 71065808 70743344 70407608 70065192 69721648 69381024 69045944 
2785.411 68718032 68397704 68084696 67777952 67475424 67174184 66870676 
2788.786 66561864 66245272 65919816 65585972 65245180 64899856 64552180 
2792.162 64204864 63860356 63520960 63189796 62869988 62564844 62277240 
2795.537 62009160 61761340 61534048 61326716 61139092 60971024 60823076 
2798.912 60695904 60589952 60505200 60440952 60395752 60368184 60355960 
2802.287 60357180 60369628 60390916 60418940 60450772 60484556 60518456 
2805.663 60552088 60585228 60618408 60652012 60685732 60718844 60749596 
2809.038 60775588 60794148 60802536 60797960 60778220 60740948 60684436 
2812.413 60607436 60509540 60391028 60253056 60097704 59927304 59744996 
2815.788 59554328 59358956 59163820 58974508 58796772 58637464 58503836 
2819.164 58402208 58338760 58318108 58343384 58416004 58535572 58700040 
2822.539 58905780 59148140 59421600 59719636 60036024 60364336 60697660 
2825.914 61029708 61354116 61664136 61953860 62217312 62449364 62646100 
2829.289 62804812 62924676 63006416 63052812 63068056 63056716 63024192 
2832.665 62975308 62914336 62845208 62771276 62695668 62622056 62553516 
2836.040 62493672 62445692 62412332 62396112 62399940 62426908 62481656 
2839.415 62570504 62700644 62880976 63121236 63430572 63819140 64297220 
2842.790 64875340 65566400 66385240 67347760 68471904 69773664 71263312 
2846.166 72941320 74792256 76781864 78849752 80914768 82878616 84627040 
2849.541 86053032 87062376 87585440 87589984 87080272 86097216 84706248 
2852.916 82993368 81054904 78981328 76860912 74770416 72768544 70901496 
2856.291 69198512 67672968 66325828 65147200 64120592 63223904 62434600 
2859.667 61730936 61092444 60501656 59944536 59409136 58886616 58370976 
2863.042 57858032 57346444 56836444 56330440 55832288 55347964 54885232 
2866.417 54452620 54059732 53715940 53428216 53201908 53038384 52936004 
2869.792 52889780 52891912 52933084 53002108 53087656 53178648 53264532 
2873.167 53336980 53390556 53423268 53436348 53433912 53421992 53406592 
2876.543 53393332 53386100 53387596 53398872 53420532 53452568 53494696 
2879.918 53546752 53608116 53678260 53756516 53842324 53935800 54037256 
2883.293 54147176 54266364 54394972 54532932 54679620 54834552 54996832 
2886.668 55165796 55340888 55521320 55706912 55896804 56091076 56290568 
2890.044 56496336 56710852 56937144 57178484 57438148 57719616 58025804 
2893.419 58359756 58724692 59123728 59559760 60035152 60550184 61102704 
2896.794 61687472 62295212 62911576 63520612 64102776 64638728 65112784 
2900.169 65513568 65837064 66086836 66273644 66413924 66525712 66628836 
2903.545 66741488 66878796 67054652 67280016 67564912 67917952 68346736 
2906.920 68858128 69458232 70152920 70947808 71849624 72865136 74001112 
2910.295 75263040 76652936 78167960 79797888 81525888 83324696 85158512 
2913.670 86985936 88756776 90418808 91923416 93225936 94293984 95109968 
2917.046 95672480 95994824 96100560 96020528 95783720 95413648 94925512 
2920.421 94323208 93601704 92749240 91754184 90608136 89311440 87875504 
2923.796 86323552 84689096 83009088 81324096 79671528 78081128 76576648 
2927.171 75173040 73877328 72690200 71607144 70620520 69720168 68896072 
2930.547 68139504 67442872 66802076 66215172 65682552 65205604 64786600 
2933.922 64427488 64129084 63891068 63710920 63584164 63503236 63457912 
2937.297 63436320 63425088 63411584 63385748 63340580 63273616 63186228 
2940.672 63083000 62970528 62855512 62744512 62642464 62552296 62473968 
2944.048 62404760 62337892 62263740 62171128 62048680 61887872 61685408 
2947.423 61444876 61176704 60896264 60622676 60375036 60168068 60012592 
2950.798 59912320 59865384 59864780 59900300 59960892 60034352 60109728 
2954.173 60178076 60231288 60263336 60269616 60246928 60193224 60108208 
2957.549 59993188 59851164 59686640 59505760 59314096 59117616 58920996 
2960.924 58727540 58539704 58359264 58187728 58026672 57877980 57742964 
2964.299 57622668 57517652 57427748 57352760 57292680 57247468 57216888 
2967.674 57200216 57195948 57201236 57213144 57228564 57245500 57263536 
2971.050 57283532 57307692 57337676 57375068 57419880 57471392 57527976 
2974.425 57588088 57650404 57713408 57774720 57830736 57875216 57900204 
2977.800 57896416 57853940 57764612 57622592 57426120 57177236 56882412 
2981.175 56551740 56196732 55830860 55466840 55114748 54782000 54472116 
2984.551 54184748 53916332 53661352 53414500 53170860 52927808 52684664 
2987.926 52442220 52201104 51960276 51715024 51457076 51174348 50852308 
2991.301 50477924 50041724 49541008 48981108 48375368 47743700 47106704 
2994.676 46484656 45891964 45335604 44815116 44323976 43852820 43391696 
2998.052 42932560 42471460 42007056 41540772 41075140 40612984 40156232 
3001.427 39706236 39263996 38830324 38406424 37993680 37592992 37205528 
3004.802 36831356 36470512 36122324 35786536 35462552 35150516 34850376 
3008.177 34562244 34285708 34020208 33764712 33517818 33278144 33044290 
3011.552 32814886 32589208 32366432 32146376 31929034 31714760 31503942 
3014.928 31297178 31095100 30898634 30708550 30525802 30351160 30185148 
3018.303 30027898 29878798 29736846 29600722 29468436 29338562 29209794 
3021.678 29081026 28951978 28822686 28693856 28566588 28442680 28324432 
3025.053 28214738 28116878 28033742 27967832 27920446 27891084 27877270 
3028.429 27874904 27877836 27879144 27870840 27845792 27797924 27723044 
3031.804 27619574 27488488 27333096 27157968 26968704 26770746 26568794 
3035.179 26366724 26167668 25973064 25784350 25602364 25427158 25259016 
3038.554 25097852 24943452 24795560 24654068 24518756 24389268 24265462 
3041.930 24146664 24032276 23921736 23814688 23710498 23609274 23510944 
3045.305 23415360 23322736 23233314 23147298 23065702 22988942 22917716 
3048.680 22852122 22791500 22734758 22679980 22625314 22569050 22510454 
3052.055 22449458 22386344 22322190 22257526 22192800 22128154 22063586 
3055.431 21998682 21933540 21868062 21802314 21736890 21672624 21610180 
3058.806 21551330 21497884 21451618 21413848 21385238 21365224 21352312 
3062.181 21344794 21341174 21340198 21342078 21347126 21356070 21369122 
3065.556 21386036 21405530 21426032 21445944 21463662 21478144 21488450 
3068.932 21493638 21492942 21485422 21470348 21447510 21417364 21381234 
3072.307 21341000 21298890 21257132 21217780 21182398 21151714 21126286 
3075.682 21105518 21088404 21073102 21057482 21039572 21017592 20990816 
3079.057 20959274 20923634 20885252 20845238 20804532 20764106 20724278 
3082.433 20685460 20648140 20612248 20578130 20545370 20513514 20482496 
3085.808 20452348 20423938 20398552 20377820 20363028 20354554 20352018 
3089.183 20354208 20359206 20365908 20373478 20381710 20391120 20402440 
3092.558 20415778 20431128 20447520 20464122 20479892 20494618 20508408 
3095.934 20522060 20536754 20553360 20572814 20595466 20621004 20648870 
3099.309 20677990 20707388 20736442 20765046 20793790 20823754 20855840 
3102.684 20890606 20928052 20967794 21008412 21049032 21089274 21129136 
3106.059 21169142 21209882 21251460 21293008 21333552 21371628 21406538 
3109.435 21438668 21469198 21500532 21534408 21572744 21615926 21663430 
3112.810 21714248 21766570 21819176 21870362 21919112 21964698 22006384 
3116.185 22043682 22077358 22108350 22138056 22168146 22199634 22232276 
3119.560 22265478 22297532 22327146 22353482 22376820 22398346 22419488 
3122.936 22441642 22465336 22490424 22516352 22542700 22569224 22596378 
3126.311 22624966 22655682 22688918 22723936 22759758 22795200 22829144 
3129.686 22861342 22891938 22921906 22952262 22984156 23018638 23056374 
3133.061 23097708 23142684 23190810 23241316 23293370 23345568 23397282 
3136.437 23447674 23496428 23543578 23588986 23632892 23675402 23716588 
3139.812 23757042 23797362 23838838 23882420 23929016 23979262 24032592 
3143.187 24088416 24145614 24203028 24260206 24316726 24372586 24428316 
3146.562 24484364 24541264 24599714 24660100 24723300 24789388 24858676 
3149.938 24930678 25004378 25078298 25151076 25220984 25287110 25349068 
3153.313 25407170 25462538 25516614 25571258 25628300 25688936 25754220 
3156.688 25823768 25897022 25972538 26048876 26124808 26199554 26273046 
3160.063 26345634 26418166 26491342 26565942 26642420 26721202 26802466 
3163.438 26886352 26972654 27060698 27149398 27237550 27324168 27408332 
3166.814 27490112 27570072 27648952 27727282 27805378 27882642 27958432 
3170.189 28031940 28102384 28169800 28234398 28296706 28357006 28415370 
3173.564 28471444 28524974 28575790 28623954 28670036 28714354 28756726 
3176.939 28797336 28836106 28873288 28909728 28946950 28986408 29029516 
3180.315 29077236 29129460 29184988 29242754 29301378 29359658 29417624 
3183.690 29475244 29532978 29591252 29650314 29710378 29771372 29833368 
3187.065 29896190 29959662 30023496 30087126 30150376 30213386 30276760 
3190.440 30341708 30409402 30480802 30556230 30635122 30716338 30798494 
3193.816 30880240 30960970 31040220 31118450 31195414 31271466 31346284 
3197.191 31420120 31492788 31564724 31636172 31707204 31778176 31848874 
3200.566 31919480 31990342 32062038 32135710 32212246 32291546 32373038 
3203.941 32455436 32536854 32615640 32691370 32764074 32835256 32906414 
3207.317 32978974 33053480 33129964 33207572 33285338 33362650 33439118 
3210.692 33514596 33589196 33663160 33736384 33809232 33882196 33955784 
3214.067 34030528 34107004 34185112 34264304 34344088 34423528 34502404 
3217.442 34580544 34658088 34735396 34812572 34889080 34964740 35039372 
3220.818 35113012 35186340 35260468 35336372 35414772 35495700 35578872 
3224.193 35662996 35747536 35831408 35913888 35994516 36073104 36149656 
3227.568 36224272 36297608 36370020 36442228 36514592 36586820 36658992 
3230.943 36730092 36799800 36867856 36934232 36999316 37063112 37125328 
3234.319 37185348 37242604 37297188 37349580 37401512 37455000 37511492 
3237.694 37571712 37634836 37699844 37764788 37828840 37892396 37957048 
3241.069 38024528 38096104 38171712 38249392 38326292 38399184 38466156 
3244.444 38526620 38582128 38635036 38688608 38744972 38805688 38871052 
3247.820 38940452 39013380 39088928 39166480 39244956 39323704 39401844 
3251.195 39479056 39555304 39631268 39708016 39786336 39866740 39948720 
3254.570 40031444 40112800 40191816 40267424 40339188 40407912 40474248 
3257.945 40539428 40604112 40669200 40734808 40801124 40867992 40935232 
3261.321 41002960 41070988 41139536 41209152 41280052 41353008 41427800 
3264.696 41504716 41582812 41661584 41740548 41820148 41901144 41984500 
3268.071 42071148 42161364 42254584 42349620 42444896 42539388 42632404 
3271.446 42724412 42816076 42908420 43001916 43096456 43191820 43287464 
3274.822 43383200 43479548 43577416 43677904 43782084 43890396 44002840 
3278.197 44118980 44238156 44359496 44482672 44607604 44734416 44864120 
3281.572 44997728 45136264 45280512 45430508 45585668 45744092 45904116 
3284.947 46063940 46222796 46381372 46541524 46705788 46876284 47054044 
3288.323 47238860 47429336 47623036 47818116 48013508 48209140 48406260 
3291.698 48606404 48811380 49022724 49241336 49467852 49702324 49944324 
3295.073 50193112 50447220 50705048 50964860 51225384 51486252 51748204 
3298.448 52012260 52280100 52552972 52831776 53116860 53408280 53706080 
3301.823 54010388 54321856 54640688 54967352 55301668 55643444 55992080 
3305.199 56347372 56708776 57075912 57448700 57826760 58210084 58599008 
3308.574 58994356 59397132 59808572 60229152 60658452 61095000 61537180 
3311.949 61983632 62433908 62889284 63351704 63823356 64305596 64797908 
3315.324 65298744 65805332 66315284 66827156 67341064 67858016 68379928 
3318.700 68908032 69442760 69983704 70530016 71080320 71633672 72188704 
3322.075 72744064 73298048 73848968 74395640 74937840 75476536 76013176 
3325.450 76549584 77086080 77621952 78155304 78683152 79203576 79714832 
3328.825 80216768 80709024 81190976 81660784 82115776 82552200 82967656 
3332.201 83360784 83731600 84080984 84409920 84718288 85004992 85268496 
3335.576 85507064 85719856 85907304 86070032 86208576 86322184 86409008 
3338.951 86466864 86492864 86485384 86444232 86370080 86264384 86127920 
3342.326 85961344 85764016 85535144 85273776 84979160 84650200 84285832 
3345.702 83885072 83446904 82970904 82458368 81911624 81334520 80730896 
3349.077 80104664 79458976 78795928 78116992 77423432 76716864 75998576 
3352.452 75269896 74531760 73784720 73028920 72265680 71497008 70726808 
3355.827 69959344 69199904 68451928 67717968 66999012 66294520 65604008 
3359.203 64927132 64264408 63616508 62984200 62367504 61765428 61176436 
3362.578 60598484 60029864 59469852 58918680 58377420 57847356 57330564 
3365.953 56828740 56343680 55876680 55428516 54999164 54586996 54189740 
3369.328 53804516 53428288 53058976 52695252 52336912 51984140 51636984 
3372.704 51295180 50957520 50622764 50289532 49957448 49626284 49296780 
3376.079 48969388 48644388 48321300 47999408 47678168 47357496 47037648 
3379.454 46719444 46403272 46088624 45774720 45459312 45140272 44815372 
3382.829 44483372 44144064 43798244 43447720 43094700 42741816 42391376 
3386.205 42045452 41705384 41371556 41043528 40720072 40399512 40080096 
3389.580 39760520 39440196 39119308 38798332 38478648 38161472 37848252 
3392.955 37540284 37238596 36943680 36655424 36372580 36093412 35815968 
3396.330 35538708 35260900 34983344 34707652 34436260 34170592 33911252 
3399.706 33657324 33406626 33156678 32905910 32653612 32400704 32148626 
3403.081 31898868 31652496 31409468 31169106 30930440 30692690 30455922 
3406.456 30220668 29987778 29758172 29532304 29310062 29091194 28875236 
3409.831 28661824 28450710 28241788 28034520 27828800 27624412 27421710 
3413.207 27221286 27024308 26831824 26644780 26463696 26288358 26118226 
3416.582 25952312 25790014 25629988 25471148 25312856 25153638 24993462 
3419.957 24832222 24671464 24513148 24359936 24213644 24075144 23943268 
3423.332 23815946 23690204 23563412 23434210 23302704 23170224 23038588 
3426.708 22909472 22783780 22661374 22541374 22422766 22304578 22185930 
3430.083 22066550 21946226 21825030 21703310 21582042 21462584 21346498 
3433.458 21235734 21131118 21032512 20938446 20846976 20755522 20662804 
3436.833 20568332 20472598 20377264 20283514 20192146 20103190 20015260 
3440.208 19927278 19837752 19745992 19651998 19556534 19460396 19364350 
3443.584 19268534 19173258 19077378 18980586 18882396 18782740 18682348 
3446.959 18582600 18485018 18391470 18302814 18219222 18139684 18062306 
3450.334 17985182 17906276 17824416 17739258 17650910 17560162 17467052 
3453.709 17372482 17275896 17177780 17078826 16979996 16882878 16788778 
3457.085 16698005 16610071 16523397 16436530 16347654 16256111 16161906 
3460.460 16066242 15970154 15874704 15780890 15688645 15597790 15508019 
3463.835 15419160 15331349 15244311 15158628 15073957 14990811 14909327 
3467.210 14830224 14753639 14679807 14608046 14536844 14464592 14389851 
3470.586 14311083 14228493 14142976 14055696 13968297 13881805 13796801 
3473.961 13713250 13630467 13548828 13467819 13388090 13309845 13233697 
3477.336 13159612 13087793 13017898 12949449 12881624 12813298 12743038 
3480.711 12669616 12592660 12512477 12430707 12349975 12273007 12202017 
3484.087 12137682 12079455 12025119 11971812 11917421 11860517 11800624 
3487.462 11738562 11675283 11611911 11549058 11487338 11427430 11370045 
3490.837 11316070 11266217 11220278 11177337 11135997 11094220 11051223 
3494.212 11006157 10960213 10914919 10871667 10831716 10794961 10761131 
3497.588 10729544 10699487 10671199 10644645 10620231 10597346 10574701 
3500.963 10550868 10524388 10494415 10461456 10426769 10392729 10361678 
3504.338 10335991 10317125 10305963 10302230 10305182 10312884 10322995 
3507.713 10332700 10339316 10341522 10339214 10334193 10329510 10328356 
3511.089 10332869 10343524 10359167 10377221 10395613 10412718 10428635 
3514.464 10444248 10461083 10479514 10499167 10518448 10535048 10546761 
3517.839 10553448 10555417 10554569 10552464 10549918 10546930 10542246 
3521.214 10533724 10519636 10499031 10471877 10438512 10400060 10357402 
3524.590 10310882 10260872 10207306 10150083 10089103 10024437 9956152 
3527.965 9884454 9809515 9731301 9650290 9567127 9482489 9397156 9311671 
3531.822 9226508 9141868 9057380 8972300 8886020 8797863 8707425 8614944 
3535.680 8521638 8429197 8339748 8254807 8175422 8101283 8031376 7963370 
3539.537 7895274 7825231 7752569 7677895 7602459 7528384 7457188 7389811 
3543.395 7326151 7264926 7204485 7142672 7078408 7011393 6943109 6875509 
3547.252 6811521 6753196 6700902 6653728 6608612 6561919 6510052 6450725 
3551.109 6383504 6310174 6234404 6159957 6090194 6027363 5971427 5921545 
3554.967 5876336 5834357 5795470 5759206 5725464 5693536 5662115 5629252 
3558.824 5592800 5551721 5505611 5455245 5402671 5349701 5298883 5251225 
3562.682 5208165 5169066 5133257 5097820 5059804 5015288 4960187 4892627 
3566.539 4812814 4724073 4632872 4545842 4469106 4405237 4354162 4312898 
3570.396 4277494 4244736 4211846 4178223 4143934 4109648 4075865 4042420 
3574.254 4008342 3972361 3933975 3892818 3849692 3805802 3762351 3720007 
3578.111 3679304 3640209 3602889 3567242 3533569 3502236 3473344 3447259 
3581.969 3424048 3403944 3387180 3373723 3363138 3354255 3344238 3329647 
3585.826 3305908 3269484 3218876 3155558 3084540 3013334 2949045 2897374 
3589.684 2860517 2838071 2826165 2820596 2816527 2809890 2797451 2778243 
3593.541 2752000 2720057 2684516 2648111 2613442 2582842 2557878 2539147 
3597.398 2525816 2516484 2508852 2500521 2489924 2476361 2460232 2442772 
3601.256 2425745 2411085 2399757 2392460 2388995 2388962 2391461 2395625 
3605.113 2399790 2401789 2398457 2387063 2365574 2333593 2293253 2248688 
3608.971 2205292 2168061 2138791 2117348 2100767 2085086 2066708 2044736 
3612.828 2019403 1994071 1971969 1955926 1946640 1943245 1943212 1942979 
3616.686 1940283 1932495 1917918 1895920 1866303 1830332 1790272 1749850 
3620.543 1712624 1682055 1660136 1646998 1641909 1642508 1647696 1656843 
3624.400 1671012 1691535 1719311 1753210 1789207 1819851 1835323 1826605 
3628.258 1788475 1723835 1643539 1562958 1495525 1446852 1416601 1399182 
3632.115 1388445 1379404 1369732 1360591 1354276 1353445 1358763 1368601 
3635.973 1379670 1387515 1389177 1383692 1372790 1359760 1348194 1340748 
3639.830 1337691 1337657 1338123 1336694 1332772 1327487 1323898 1324829 
3643.688 1333503 1350819 1376346 1407991 1442697 1477505 1508858 1533097 
3647.545 1546731 1545101 1524552 1483090 1422285 1348692 1272951 1207125 
3651.402 1161176 1140545 1144930 1169182 1205032 1243044 1274646 1293356 
3655.260 1296646 1286676 1269529 1253811 1246799 1252847 1272287 1301332 
3659.117 1334068 1364280 1386451 1397321 1396822 1387714 1374717 1363416 
3662.975 1358165 1361854 1375050 1397487 1428934 1469659 1520695 1583143 
3666.832 1658107 1744527 1841945 1951233 2077861 2234000 2438573 2714022 
3670.689 3076832 3535305 4088074 4726686 5438469 6205666 7001123 7773888 
3674.547 8444906 8917371 9096763 8936108 8453825 7723460 6837472 5882684 
3678.404 4933007 4043189 3257032 2605575 2101200 1737275 1490072 1329116 
3682.262 1223207 1149083 1094802 1056503 1034416 1028737 1036276 1050226 
3686.119 1062482 1064940 1053016 1025947 986393 939636 890262 841757 795580 
3690.459 752861 714924 683297 659569 645002 638597 639460 644869 652833 
3694.798 661229 668828 674967 679314 681837 683496 685023 687943 692523 
3699.138 698098 702313 701516 691726 671317 641219 606411 573763 549776 
3703.478 538795 541714 555615 576318 599742 622968 645400 667899 692091 
3707.817 718940 748015 776693 801124 817323 821639 811780 787946 752230 
3712.157 708984 664082 623533 592509 574261 569748 577578 594931 617527 
3716.496 641551 663618 681637 694879 703342 707623 707723 703906 695908 
3720.836 684425 670753 657213 645698 637569 632923 630335 627813 623400 
3725.176 615635 604852 592841 582389 577081 580498 594765 620712 657213 
3729.515 701350 747915 791398 826353 848629 858057 856929 849990 841458 
3733.855 832561 821473 803945 776527 738788 695277 654028 622836 607042 
3738.194 608336 624628 653364 691560 738356 793223 855136 920709 982839 
3742.534 1029501 1048333 1028072 968095 880999 791796 724947 693352 697036 
3746.874 727005 770220 814734 852480 879073 893815 898662 894545 882128 
3751.213 860913 831930 798767 767764 745924 737925 744530 762188 785224 
3755.553 807730 825324 836213 840894 841292 838636 833358 824062 809987 
3759.892 792228 774237 760628 756379 763316 780079 802053 823166 838105 
3764.232 843981 841790 835416 830602 831664 840230 854704 871138 884618 
3768.572 891623 889731 879472 863502 845442 828776 816294 808659 805638 
3772.911 805937 807962 810684 813639 817456 823100 831565 843184 856530 
3777.251 868515 875620 874292 863303 844479 822203 802418 789605 786087 
3781.590 790501 799730 809622 817058 820610 820842 819083 817191 815796 
3785.930 814834 813406 811215 808493 806568 806900 810219 815929 822934 
3790.270 829374 834420 838105 842255 848463 858190 870607 883057 891557 
3794.609 892088 882061 862606 837574 813805 798369 795979 807663 830635 
3798.949 858389 882094 893483 886178 858821 816859 772311 738854 726640 
3803.288 739352 773075 819514 866656 902813 919348 912143 884319 845508 
3807.628 808194 782402 772842 778419 794584 816328 839632 863768 889465 
3811.968 918784 952056 987422 1020101 1043483 1050359 1035878 1000374 951723 
3816.307 902348 865295 850189 859120 887706 926554 964442 989880 993931 
3820.647 973740 933958 886444 844313 818153 812012 823498 846172 872267 
3824.986 895840 913006 923665 930140 936747 946942 962084 981046 1000706 
3829.326 1017378 1027641 1030065 1025349 1016415 1007182 1002068 1004492 
3833.183 1016448 1037638 1066269 1098655 1129848 1154764 1169249 1170877 
3837.041 1160112 1140379 1116925 1095599 1079954 1070852 1066601 1063744 
3840.898 1058397 1048632 1033353 1013592 991407 969622 950727 936648 928679 
3845.238 926786 930571 938873 950063 963346 978489 996787 1020666 1053115 
3849.577 1096296 1150378 1211877 1272918 1322701 1347496 1336095 1285181 
3853.435 1203238 1108620 1022227 958963 922569 909221 911412 922237 936648 
3857.774 952520 969489 988219 1009042 1031294 1053680 1074108 1090483 
3861.632 1101777 1107092 1105664 1097592 1082777 1062416 1039730 1019271 
3865.489 1006651 1006385 1019902 1045244 1076134 1105332 1124865 1128486 
3869.347 1115895 1091879 1065604 1046307 1039000 1043118 1053514 1062515 
3873.204 1063678 1053713 1033818 1009407 987887 976098 977360 991640 1014954 
3877.544 1041989 1066534 1083674 1090218 1086032 1073908 1058729 1046672 
3881.401 1043350 1051222 1069889 1095466 1121775 1140977 1146658 1134731 
3885.259 1107092 1071151 1037771 1018242 1019371 1041557 1079821 1125828 
3889.116 1169913 1202606 1218190 1214501 1194466 1164166 1131309 1102608 
3892.973 1082312 1072081 1071849 1080950 1098057 1121775 1150578 1181874 
3896.831 1212906 1240685 1262184 1275909 1281326 1279830 1273483 1264810 
3900.688 1255771 1247065 1238126 1227294 1212873 1193536 1169049 1140345 
3904.546 1110149 1082046 1059160 1044413 1038966 1042553 1054079 1071550 
3908.403 1092244 1113869 1134299 1152006 1166392 1177455 1185628 1192506 
3912.260 1199051 1206627 1215797 1226796 1238459 1249358 1257532 1261752 
3916.118 1261520 1257798 1252448 1247796 1245736 1247065 1251717 1259327 
3919.975 1269163 1280827 1293987 1308278 1321970 1333204 1338555 1335298 
3923.833 1321904 1299670 1271622 1243376 1220449 1206627 1203171 1208554 
3927.690 1219685 1232909 1244905 1254675 1261653 1266737 1270359 1272652 
3931.548 1273550 1271988 1267767 1261586 1254209 1247264 1241649 1237728 
3935.405 1235136 1233275 1232012 1231182 1231580 1233740 1238326 1245437 
3939.262 1254375 1263447 1271356 1276341 1276873 1272652 1263481 1250255 
3943.120 1234637 1219120 1206162 1197888 1195396 1198752 1206527 1216429 
3946.977 1225965 1233208 1237063 1237694 1236000 1233607 1231248 1229819 
3950.835 1229420 1229819 1231082 1232943 1235335 1238226 1240851 1242945 
3954.692 1244008 1244041 1243543 1243642 1245536 1249690 1255771 1263281 
3958.550 1270891 1277836 1283785 1289002 1293655 1297809 1300999 1302196 
3962.407 1300933 1296845 1290996 1285114 1281226 1280927 1284715 1292093 
3966.264 1301199 1310936 1320342 1329116 1338389 1348891 1361090 1373986 
3970.122 1386218 1396057 1402240 1404767 1403969 1401077 1397686 1394528 
3973.979 1392601 1392135 1393731 1397919 1405565 1416734 1431228 1447883 
3977.837 1464905 1480298 1492799 1501543 1506597 1508392 1507395 1503605 
3981.694 1497121 1487878 1476508 1464007 1451839 1441500 1433621 1428402 
3985.552 1425044 1422684 1420390 1418063 1416302 1415670 1416501 1419327 
3989.409 1423515 1428136 1432657 1436979 1441035 1445389 1450243 1455064 
3993.266 1459086 1461181 1460017 1455529 1448149 1438741 1428668 1419692 
3997.124 1412545 1407825 1405664 1405431 1406761 1408922 1411315 1413310 
##END=
