
##TITLE=Z240_1_d
##JCAMP-DX=5.01  $$ Nicolet v. 1
##DATATYPE=INFRARED SPECTRUM
##ORIGIN=UniL
##OWNER=Nicolet
##LONGDATE=2011/09/09
##TIME=11:21:03
##SPECTROMETER/DATA SYSTEM=Nicolet iS5
##DATA PROCESSING=
Ratio against background
%Transmittance->Absorbance
Truncated
ElementMultiply or ElementDivide
##COMMENTS=
Number of sample scans: 32
Collection length: 51.21 sec
Sample gain: 2.0
Background collected on: Ven Sep 09 11:02:15 2011 (GMT+02:00);
Number of background scans: 32
Background gain: 2.0
Sample spacing:  1.000
Number of scan points: 12415
Resolution points: 8192
Number of FFT points: 65536
Apodization: N-B fort;
Phase correction: Mertz;
Laser frequency: 15798.0 cm-1
Number of rejected sample scans: 0
Number of rejected background scans: 0
Bench serial number: ASB1000141;
##RESOLUTION=4.000
##XUNITS=1/CM
##YUNITS=ABSORBANCE
##FIRSTX=649.893372
##LASTX=4000.122314
##FIRSTY=0.078730
##MAXX=4000.122314
##MINX=649.893372
##MAXY=0.276328
##MINY=-0.002147
##XFACTOR=1.000000
##YFACTOR=1.000000E-009
##NPOINTS=6950
##DELTAX=0.482117
##ZPD=6100
##XYDATA=(X++(Y..Y))
649.893 78730096 78509400 78354160 78284912 78299752 78374160 78469896 
653.268 78554496 78615408 78667232 78743128 78881816 79113128 79446960 
656.643 79877648 80394520 80993888 81683624 82481728 83401296 84444728 
660.018 85599584 86846904 88173600 89582096 91086816 92705184 94438424 
663.393 96263800 98132720 99989904 101787544 103486800 105061800 106481184 
666.767 107691992 108619768 109186472 109350872 109129040 108575816 
669.660 107742896 106655840 105312680 103705432 101842376 99765096 97549392 
673.035 95284648 93060016 90938504 88949696 87101240 85389968 83813536 
676.410 82372288 81065008 79882224 78803392 77801304 76849480 75930336 
679.785 75039832 74185808 73380624 72632384 71941072 71297400 70686920 
683.159 70095912 69515000 68942592 68381560 67837024 67312856 66811048 
686.534 66331460 65873236 65435632 65017060 64615236 64224764 63837900 
689.909 63445412 63037752 62607972 62152392 61671396 61168464 60649880 
693.284 60123240 59596396 59077600 58574588 58093632 57639996 57217036 
696.659 56826888 56471320 56151968 55869932 55626196 55419860 55248536 
700.034 55108656 54995740 54906660 54838984 54792412 54767040 54763280 
703.408 54781584 54821692 54883800 54967500 55071864 55194432 55331400 
706.783 55477720 55629244 55783800 55944024 56118224 56319572 56568004 
710.158 56889320 57313360 57876276 58611864 59546308 60686112 62006680 
713.533 63443536 64888196 66211468 67276568 67967888 68223856 68042760 
716.908 67489040 66672912 65743728 64866072 64193068 63871644 64021900 
720.282 64719216 65985224 67760224 69898816 72153928 74222168 75793416 
723.657 76591240 76460584 75392928 73537552 71151040 68546392 66025772 
727.032 63800520 61989288 60614792 59633112 58968016 58540236 58289608 
730.407 58170416 58149616 58200380 58295748 58412176 58534584 58659004 
733.782 58792292 58947032 59134928 59360664 59620760 59906460 60208980 
737.156 60522300 60844304 61173268 61504996 61830024 62136680 62414896 
740.531 62661984 62885380 63101276 63327476 63574804 63841432 64110644 
743.906 64356624 64549140 64663872 64687712 64619580 64468572 64249888 
747.281 63983352 63689784 63391380 63111164 62868340 62676408 62540696 
750.656 62457132 62415776 62405484 62419448 62457976 62528492 62640772 
754.031 62804504 63023620 63296044 63614084 63966496 64340560 64721480 
757.405 65093228 65439524 65743536 65993944 66187196 66330464 66440060 
760.780 66537492 66643940 66773756 66933832 67126376 67353640 67624144 
764.155 67956464 68378656 68929040 69653064 70596400 71803880 73305656 
767.530 75102096 77144176 79321728 81471160 83381664 84859576 85781736 
770.905 86144848 86088496 85872176 85816744 86177344 87072056 88408000 
774.279 89900552 91112200 91572504 90942672 89081512 86110312 82345968 
777.654 78236792 74224096 70635064 67669528 65371148 63672328 62438652 
781.029 61528400 60826544 60252336 59765948 59352648 59010524 58743244 
784.404 58556616 58459784 58464376 58584448 58833876 59222680 59758796 
787.779 60448148 61298936 62324088 63541284 64969652 66629380 68537888 
791.154 70710512 73166272 75930104 79034176 82516544 86408120 90720656 
794.528 95429000 100463680 105702736 110968504 116057424 120743400 124806352 
797.903 128082616 130482528 132028936 132855000 133205264 133388472 
800.796 133699224 134387312 135573824 137216192 139087904 140810000 
803.689 141932688 141988736 140646848 137785040 133532688 128237784 
806.581 122382808 116483728 110929352 105938048 101526712 97551504 93775152 
809.956 89957408 85945992 81696896 77283224 72845856 68555744 64558752 
813.331 60944948 57753976 54979236 52588464 50539376 48791916 47312268 
816.706 46068840 45033344 44178728 43479584 42915772 42473688 42144968 
820.081 41925556 41813032 41805040 41900088 42098856 42405876 42829352 
823.455 43381188 44073868 44917216 45916564 47069260 48363628 49774032 
826.830 51260504 52769288 54229720 55568764 56721084 57642308 58326600 
830.205 58813348 59191312 59579600 60121256 60963972 62225268 63982776 
833.580 66242880 68928264 71856928 74745976 77260784 79022856 79700904 
836.955 79088920 77137848 73986144 69915592 65315112 60576428 56030604 
840.329 51930696 48410224 45506920 43188380 41383000 40005064 38969664 
843.704 38207312 37657708 37270508 37007432 36838716 36745308 36718016 
847.079 36752520 36845928 36992208 37181236 37401544 37644264 37906244 
850.454 38191140 38506376 38859676 39254752 39690556 40163612 40672220 
853.829 41220080 41817192 42477672 43215132 44039212 44954036 45959836 
857.204 47057772 48254308 49563960 51010392 52622384 54435008 56486452 
860.578 58815892 61463884 64462460 67821840 71510560 75438056 79445680 
863.953 83291736 86695136 89360928 91017640 91487328 90703664 88733528 
867.328 85756712 82047528 77931168 73709528 69657384 65981948 62806152 
870.703 60192120 58144316 56629420 55589364 54954340 54653200 54608824 
874.078 54746856 54996080 55286392 55560628 55778904 55922656 55998828 
877.452 56036376 56079880 56174596 56357600 56646408 57032572 57481072 
880.827 57935908 58336336 58622176 58751968 58711152 58514188 58201292 
884.202 57825776 57447188 57114648 56860428 56701564 56640972 56675852 
887.577 56805288 57033708 57371176 57829904 58417632 59133144 59963744 
890.952 60888068 61878932 62908516 63954712 64999124 66028120 67030408 
894.327 67994160 68906320 69753080 70518360 71185240 71736024 72150520 
897.701 72409544 72498224 72409120 72146920 71729424 71187736 70559408 
901.076 69885664 69207368 68558224 67967464 67459056 67051476 66760616 
904.451 66599360 66578044 66704788 66986488 67429096 68039232 68824392 
907.826 69792032 70948984 72299872 73846424 75588160 77523280 79650624 
911.201 81969728 84479872 87178232 90057368 93106320 96312272 99666296 
914.575 103170160 106840472 110710528 114822984 119226520 123962032 
917.468 129050864 134481920 140198032 146089856 151971376 157588576 
920.361 162639456 166775792 169685088 171149040 171099520 169667584 
923.254 167185136 164176176 161238512 159001616 158043328 158763248 
926.146 161367344 165805360 171785968 178762768 185992608 192682576 
929.039 198004128 201264448 202016224 200056704 195452832 188474624 
931.932 179548240 169171296 157859520 146148336 134517776 123383600 
934.824 113100928 103910824 95965312 89336432 84022680 79982200 77149992 
938.199 75456040 74823432 75158824 76343288 78198824 80482528 82911624 
941.574 85153760 86890448 87872904 87936120 87043712 85278576 82829696 
944.949 79940016 76862176 73834128 71029160 68556712 66466824 64759440 
948.324 63403116 62351820 61559628 60983916 60588848 60346556 60231324 
951.698 60220132 60294056 60436188 60634712 60881780 61172504 61502400 
955.073 61866856 62259416 62673500 63104188 63549108 64008616 64485060 
958.448 64980192 65493688 66022912 66563948 67113736 67672272 68243088 
961.823 68831696 69443808 70082560 70747640 71435680 72142576 72865296 
965.198 73603104 74357456 75129832 75921064 76729552 77553016 78389088 
968.573 79237296 80099448 80978200 81875256 82789528 83716496 84650280 
971.947 85584816 86517088 87447312 88378520 89314208 90257016 91207800 
975.322 92167112 93136216 94119504 95123752 96156288 97223456 98328064 
978.697 99470064 100648208 101862736 103117592 104420424 105779960 107203360 
982.072 108693552 110248808 111863520 113530624 115242544 116990296 
984.964 118759840 120530192 122269064 123935232 125487160 126885504 
987.857 128103096 129128736 129966688 130634736 131158944 131575032 
990.750 131923240 132247000 132593456 133005800 133517768 134152232 
993.643 134916256 135805232 136807296 137910528 139107056 140393840 
996.535 141771552 143239680 144793920 146426544 148128080 149890720 
999.428 151711168 153588144 155519072 157495232 159497888 161500304 
1002.321 163474000 165393328 167243776 169023856 170743152 172418048 
1005.213 174068288 175716704 177386816 179106848 180908528 182821536 
1008.106 184870144 187066768 189409472 191883376 194465888 197134592 
1010.999 199868256 202647808 205453120 208256320 211022256 213714160 
1013.891 216297408 218750992 221069888 223261808 225337456 227300400 
1016.784 229139504 230830352 232340368 233639376 234710528 235553792 
1019.677 236188224 236646960 236979456 237250896 237535568 237923392 
1022.570 238507744 239369328 240572176 242148480 244097856 246391424 
1025.462 248983216 251821168 254846960 258000288 261210800 264385520 
1028.355 267416624 270182496 272555520 274427200 275707456 276328160 
1031.249 276244000 275423648 273852800 271539584 268522976 264876688 
1034.142 260697488 256101248 251200432 246086128 240833552 235497424 
1037.035 230120784 224747392 219422288 214191936 209106464 204211968 
1039.928 199552416 195172368 191108784 187386432 184003600 180919088 
1042.821 178037792 175207648 172250208 168968352 165192368 160823344 
1045.714 155841328 150318656 144394912 138264032 132132144 126182824 
1048.607 120576200 115420792 110775000 106657232 103050288 99914456 97195928 
1051.982 94840720 92797560 91021360 89477360 88135728 86968936 85950680 
1055.357 85050816 84235872 83473728 82732560 81985496 81213464 80403488 
1058.733 79550456 78656192 77730952 76793376 75869840 74995680 74209632 
1062.108 73549440 73050760 72739992 72633992 72740424 73057192 73572320 
1065.483 74262624 75094696 76019616 76975312 77895640 78711280 79362936 
1068.858 79812056 80040800 80055024 79877208 79542056 79087088 78546040 
1072.234 77948728 77317040 76666456 76008400 75351424 74703784 74076120 
1075.609 73481392 72935712 72457040 72060976 71758536 71553224 71440016 
1078.984 71406504 71435216 71508728 71609448 71721800 71831832 71924376 
1082.359 71984440 72000008 71965320 71886960 71786488 71703664 71690024 
1085.735 71804584 72110312 72661840 73503208 74663448 76150760 77949168 
1089.110 80012992 82271080 84621888 86942664 89113768 91022016 92584152 
1092.485 93758912 94544360 94975160 95106224 95006496 94742544 94371592 
1095.860 93945632 93508408 93100368 92763480 92536464 92451680 92525680 
1099.236 92748832 93076312 93421048 93667144 93672608 93291040 92407696 
1102.611 90949168 88906992 86336328 83351992 80107096 76760712 73473856 
1105.986 70379824 67573120 65117092 63039020 61339692 60001940 58998264 
1109.361 58296128 57859240 57652184 57638144 57777708 58031368 58355892 
1112.737 58704212 59031516 59293356 59451728 59481480 59369856 59118676 
1116.112 58741916 58262708 57709096 57108488 56488296 55871708 55277284 
1119.487 54720696 54212604 53760228 53367664 53035952 52764164 52549008 
1122.862 52384348 52259960 52158324 52057084 51927448 51738800 51466700 
1126.238 51096444 50629096 50081884 49486936 48884648 48314112 47810128 
1129.613 47395408 47078640 46856280 46714940 46634808 46591388 46560520 
1132.988 46520096 46452168 46347456 46205840 46037492 45859740 45694540 
1136.363 45564548 45486724 45471452 45520424 45627256 45778032 45953320 
1139.739 46130888 46285344 46392100 46430188 46382772 46240668 46002052 
1143.114 45671756 45259220 44776396 44237348 43656068 43047024 42425828 
1146.489 41807192 41204888 40629976 40088492 39581944 39107308 38659664 
1149.864 38234016 37827576 37440624 37075632 36736116 36424892 36144108 
1153.240 35894816 35677964 35495380 35349456 35242500 35175920 35148864 
1156.615 35159248 35203800 35279804 35386048 35522524 35690336 35889740 
1159.990 36120128 36379568 36665696 36976368 37310008 37665512 38039788 
1163.365 38427604 38819348 39202348 39562744 39886136 40160736 40377984 
1166.740 40532044 40620008 40641656 40599488 40499016 40348860 40161028 
1170.116 39948428 39724460 39501448 39288880 39095052 38928096 38795908 
1173.491 38708892 38678104 38714108 38826520 39022660 39307340 39684924 
1176.866 40160228 40739468 41431372 42245276 43190576 44276280 45510600 
1180.241 46901716 48459456 50194452 52118496 54243576 56579480 59133904 
1183.617 61910948 64909244 68118768 71514464 75054560 78668896 82260264 
1186.992 85715096 88897448 91671928 93919384 95537000 96458216 96655576 
1190.367 96142352 94970088 93222160 91009224 88448208 85658384 82754688 
1193.742 79831176 76967040 74222488 71633784 69220696 66986256 64921208 
1197.118 63009256 61230948 59569224 58009932 56544492 55168696 53881708 
1200.493 52683392 51573028 50548420 49605816 48740832 47950528 47233948 
1203.868 46592940 46031488 45553212 45159760 44849096 44615576 44450116 
1207.243 44342436 44283248 44264136 44278004 44318696 44379204 44452388 
1210.619 44532452 44615976 44703744 44801192 44918356 45067340 45260472 
1213.994 45509680 45824572 46212588 46680148 47230992 47867136 48587280 
1217.369 49387360 50260888 51200332 52199648 53255280 54366508 55534836 
1220.744 56763336 58055492 59415444 60849032 62364440 63971564 65682052 
1224.120 67505960 69448592 71508568 73676624 75935032 78256824 80608608 
1227.495 82948920 85227608 87392688 89389712 91167504 92687136 93922544 
1230.870 94864464 95521312 95920552 96109648 96152528 96136528 96165344 
1234.245 96347848 96802544 97638576 98947104 100803888 103259664 106342840 
1237.621 110062296 114408784 119354600 124847520 130815160 137156928 
1240.514 143742832 150433328 157072976 163500416 169565744 175117472 
1243.407 180011600 184123632 187344336 189594944 190832880 191048640 
1246.300 190264480 188525760 185902320 182482112 178366976 173674688 
1249.193 168516528 162986816 157152480 151042848 144658352 137984320 
1252.086 131013808 123765168 116296600 108701088 101107696 93665256 86513368 
1255.461 79784984 73582288 67965064 62957576 58545772 54688036 51322400 
1258.836 48379076 45789888 43487348 41415076 39527028 37785932 36166796 
1262.212 34653172 33235222 31907142 30664564 29502974 28417636 27404168 
1265.587 26459788 25583242 24774092 24031750 23353540 22734828 22170100 
1268.962 21654896 21187338 20769460 20405740 20101872 19862446 19689788 
1272.337 19584610 19547382 19579756 19685452 19868518 20131510 20472736 
1275.713 20884730 21353042 21856528 22370610 22865570 23309136 23671098 
1279.088 23923380 24046774 24035008 23896282 23652728 23334134 22972802 
1282.463 22595366 22217210 21843358 21470800 21094528 20712428 20328686 
1285.838 19952984 19598578 19276882 18996232 18760738 18571222 18427872 
1289.214 18331464 18283044 18283012 18329286 18418086 18543764 18701026 
1292.589 18886410 19097528 19331542 19583152 19842678 20097604 20336256 
1295.964 20550232 20739258 20911430 21082248 21269660 21492104 21766046 
1299.339 22103854 22515828 23008296 23581988 24227728 24922186 25629144 
1302.715 26297300 26869362 27293718 27527602 27547372 27350490 26953262 
1306.090 26386582 25690202 24911134 24095666 23286972 22524900 21837922 
1309.465 21243562 20747390 20344726 20024594 19774738 19586410 19454470 
1312.840 19377376 19353714 19380218 19450972 19558474 19696686 19862204 
1316.216 20054712 20274316 20519246 20783676 21057414 21330142 21593950 
1319.591 21846422 22091336 22335656 22586012 22845102 23110184 23374728 
1322.966 23631806 23876470 24107994 24330252 24550520 24778932 25026980 
1326.341 25309098 25641060 26037828 26510572 27060240 27675614 28330694 
1329.717 28990942 29621118 30191116 30685720 31104604 31460800 31773508 
1333.092 32062788 32345622 32632462 32930576 33245452 33581712 33944640 
1336.467 34338348 34765692 35228308 35728076 36268648 36856424 37498632 
1339.842 38200508 38963104 39781288 40645256 41542596 42460828 43388292 
1343.218 44311500 45215572 46081992 46890236 47622852 48267936 48822244 
1346.593 49289288 49673684 49974880 50180992 50265612 50190920 49918824 
1349.968 49416872 48670924 47690112 46508776 45181744 43774240 42360840 
1353.343 41011116 39785172 38733632 37888348 37262676 36849860 36625680 
1356.719 36552940 36588804 36695876 36843868 37013208 37193796 37381252 
1360.094 37575724 37781196 38009268 38280768 38623700 39071488 39650692 
1363.469 40371332 41222160 42170672 43170668 44164644 45095312 45906068 
1366.844 46539716 46948044 47092264 46949740 46519320 45821004 44893476 
1370.219 43783000 42540816 41217020 39854356 38497508 37193616 35992248 
1373.595 34949044 34113744 33518176 33170018 33050262 33124138 33353026 
1376.970 33710068 34187620 34798716 35572688 36550992 37784924 39327800 
1380.345 41235636 43557340 46314424 49476912 52933568 56496868 59889800 
1383.720 62786816 64879804 65887652 65622160 64024016 61197184 57417648 
1387.096 53081216 48653764 44530284 40966184 38071184 35824680 34134356 
1390.471 32879248 31948150 31247682 30704744 30269834 29907870 29597600 
1393.846 29330978 29109052 28937990 28823606 28766958 28763312 28804630 
1397.221 28881644 28987646 29119364 29276354 29460244 29673090 29916354 
1400.597 30189978 30492602 30821546 31173270 31544558 31932530 32336592 
1403.972 32758464 33201494 33668496 34159948 34672836 35202004 35742860 
1407.347 36294512 36860788 37449940 38071548 38732764 39437328 40184472 
1410.722 40971460 41794756 42649732 43527708 44409264 45264368 46052480 
1414.098 46729660 47264980 47649436 47903464 48071836 48218172 48414484 
1417.473 48724188 49198212 49861104 50704788 51688820 52750692 53824620 
1420.848 54851616 55791712 56628172 57367620 58044588 58718588 59468144 
1424.223 60365708 61457164 62748916 64209856 65787636 67427008 69088672 
1427.599 70748336 72393776 74019064 75617616 77183168 78714688 80225496 
1430.974 81745088 83311728 84967032 86741656 88652736 90707304 92915408 
1434.349 95303416 97918496 100824248 104077200 107697888 111640712 115805280 
1437.724 120075568 124353152 128566072 132646696 136515088 140042992 
1440.617 143053824 145360752 146772176 147138880 146381424 144488864 
1443.510 141525056 137613200 132940040 127727840 122203736 116605576 
1446.404 111144272 106003000 101344832 97285296 93880144 91110152 88893096 
1449.779 87109224 85640224 84410608 83399720 82640128 82186792 82089272 
1453.154 82358144 82961392 83826792 84864136 85990496 87133000 88250528 
1456.529 89338136 90433784 91598024 92888616 94357800 96037272 97945232 
1459.905 100090232 102466032 105046528 107775176 110574328 113327808 
1462.798 115879352 118060392 119698584 120674536 120969320 120683248 
1465.691 120004104 119131000 118239024 117441264 116792808 116314832 
1468.584 116001592 115826864 115734736 115635008 115401472 114874256 
1471.477 113909432 112429712 110475352 108202176 105826552 103546848 
1474.370 101484776 99698480 98210104 97034576 96197880 95728280 95635064 
1477.745 95897992 96462520 97257352 98206160 99251976 100368032 101557488 
1481.120 102849288 104283112 105902232 107744048 109845392 112251792 
1484.013 115019192 118212144 121885480 126060160 130688008 135619216 
1486.906 140612416 145313008 149285296 152086096 153286928 152580512 
1489.800 149871120 145317184 139317632 132389144 125059544 117728304 
1492.693 110624984 103860568 97448688 91374088 85653016 80345640 75565408 
1496.068 71452480 68121440 65623664 63933448 62976772 62657116 62883808 
1499.443 63585512 64700136 66168092 67929112 69911464 72036968 74227712 
1502.818 76386824 78401504 80133560 81383352 81898744 81394464 79626304 
1506.194 76535744 72352680 67553648 62637976 57941584 53588096 49558684 
1509.569 45791216 42243484 38907040 35813020 33007574 30522318 28368008 
1512.944 26527512 24966824 23646850 22532160 21593638 20803212 20134668 
1516.319 19566170 19082848 18682796 18373390 18162522 18049734 18020686 
1519.695 18047522 18100960 18161520 18234424 18348160 18540998 18836960 
1523.070 19232408 19703032 20216722 20750380 21296282 21866704 22485014 
1526.445 23176656 23953946 24812260 25735306 26704710 27709412 28748478 
1529.820 29830388 30968014 32172710 33453610 34815764 36260436 37784776 
1533.196 39378440 41021932 42684968 44335424 45942600 47484112 48938420 
1536.571 50286068 51511800 52597776 53530896 54301468 54904664 55333620 
1539.946 55578476 55634820 55509572 55226636 54820376 54318668 53732516 
1543.321 53051300 52254388 51326948 50279152 49150196 47998852 46877944 
1546.697 45809552 44781352 43753936 42683396 41544272 40349116 39146248 
1550.072 38005068 36981024 36092940 35322104 34627836 33970828 33331238 
1553.447 32717556 32158830 31685888 31309568 31011038 30742974 30443376 
1556.822 30040468 29463258 28659062 27619292 26411018 25168632 24036128 
1560.198 23096660 22356902 21774442 21291618 20855180 20420084 19955966 
1563.573 19450034 18911674 18368586 17857076 17408934 17035300 16726034 
1566.948 16454082 16190348 15913438 15619119 15321601 15048298 14826144 
1570.323 14668840 14574911 14531464 14523858 14539276 14568366 14602323 
1573.698 14629292 14635872 14610650 14552468 14477472 14417457 14408757 
1577.074 14472334 14606196 14790147 14999351 15214078 15424860 15634233 
1580.449 15851783 16089177 16353916 16647218 16964320 17298170 17641282 
1583.824 17986460 18325140 18643782 18924340 19147284 19296174 19365182 
1587.199 19362548 19312110 19247300 19205532 19223126 19327558 19538234 
1590.575 19866888 20316740 20880698 21536150 22244412 22946882 23571772 
1593.950 24051116 24325768 24362878 24161482 23752072 23188504 22532438 
1597.325 21848026 21187790 20590914 20088128 19699946 19439016 19311172 
1600.700 19314984 19443486 19687534 20039550 20493646 21044440 21682480 
1604.076 22389450 23134962 23881334 24582672 25191804 25668372 25977814 
1607.451 26096938 26015736 25736044 25270920 24642284 23881896 23028386 
1610.826 22126410 21225016 20366290 19580414 18881290 18265490 17717516 
1614.201 17215906 16740909 16279262 15828757 15400450 15016432 14701469 
1617.577 14474012 14340704 14295502 14323205 14402969 14512107 14630903 
1620.952 14743904 14846476 14944958 15057182 15203441 15398596 15645739 
1624.327 15936090 16255183 16590828 16938102 17298066 17674134 18066866 
1627.702 18470878 18875026 19267944 19642638 19999752 20345526 20687544 
1631.078 21028582 21365188 21685754 21975154 22219268 22407102 22534778 
1634.453 22606082 22633378 22632260 22619870 22609886 22608874 22617354 
1637.828 22629642 22636554 22625384 22582486 22497718 22367296 22196950 
1641.203 22000040 21793324 21589842 21392476 21194016 20978504 20727092 
1644.579 20424042 20063874 19655360 19224096 18805438 18435096 18139236 
1647.954 17927858 17796144 17728974 17706332 17703710 17690526 17632378 
1651.329 17489786 17232522 16861384 16434295 16053591 15806112 15716642 
1654.704 15747081 15838517 15937498 16011441 16046852 16043173 16008036 
1658.080 15950663 15878141 15791405 15687030 15558981 15402167 15215004 
1661.455 15000380 14765224 14520056 14276977 14047517 13840789 13661513 
1664.830 13508356 13373533 13243569 13101521 12928353 12708134 12432275 
1668.205 12103542 11736860 11355284 10984306 10643117 10340979 10077437 
1671.581 9845949 9635893 9434029 9226541 8999565 8744443 8462846 8171573 
1675.438 7899795 7675973 7517192 7421223 7371578 7345022 7321568 7291545 
1679.295 7255762 7224463 7209741 7218871 7248653 7285817 7310853 7307483 
1683.153 7271901 7221700 7191078 7217119 7317491 7483683 7692532 7919670 
1687.010 8148952 8371397 8583885 8786366 8978660 9160514 9332186 9496712 
1690.868 9659166 9824902 9997142 10173521 10345255 10497198 10613373 
1694.243 10681591 10702782 10693986 10687194 10713717 10786061 10892528 
1697.618 11002249 11079400 11088645 11008264 10841126 10623422 10414008 
1700.993 10262161 10185291 10164905 10167754 10158291 10110774 10010603 
1704.369 9854253 9650019 9415068 9171038 8935736 8719291 8523429 8343361 
1708.226 8171540 7999988 7823207 7638810 7448187 7255021 7064399 6880592 
1712.083 6705074 6537431 6375568 6217060 6061297 5909084 5762127 5620726 
1715.941 5483464 5347319 5210513 5077470 4958243 4867294 4815160 4804472 
1719.798 4828394 4874431 4927444 4975067 5010796 5034562 5052127 5071603 
1723.656 5100501 5141975 5194383 5252902 5312568 5369862 5423036 5471183 
1727.513 5512222 5543230 5560446 5562158 5548868 5524236 5491786 5451387 
1731.371 5396129 5312032 5180534 4988005 4735563 4450159 4177086 3963767 
1735.228 3833613 3780566 3778360 3795775 3807239 3795574 3755098 3689864 
1739.085 3612210 3536608 3474747 3432698 3410356 3404679 3411792 3428824 
1742.943 3453238 3482028 3512157 3540383 3564603 3584814 3602187 3618525 
1746.800 3634329 3648162 3656849 3656281 3643116 3615819 3575493 3525418 
1750.658 3470605 3416701 3369783 3333921 3311517 3301835 3300666 3300833 
1754.515 3292854 3268015 3220412 3150485 3066054 2980505 2907381 2854280 
1758.373 2820496 2797752 2774509 2739529 2686950 2617909 2540446 2465831 
1762.230 2404055 2360344 2334126 2321367 2316304 2314172 2310974 2303013 
1766.087 2286958 2260178 2222243 2175853 2127470 2084387 2051527 2028657 
1769.945 2009982 1986482 1949336 1895820 1832229 1772905 1734014 1725731 
1773.802 1747920 1791370 1843941 1894223 1937388 1973700 2007053 2041507 
1777.660 2078327 2114651 2145284 2164864 2171924 2169093 2162666 2158937 
1781.517 2160902 2167328 2173056 2172956 2164198 2148215 2129968 2115850 
1785.375 2110722 2115484 2128336 2145884 2165630 2186743 2208922 2231369 
1789.232 2250486 2260411 2253517 2224075 2171591 2102865 2030854 1969007 
1793.089 1927070 1907135 1904539 1911461 1920747 1928102 1931696 1931230 
1796.947 1926504 1915755 1896752 1868099 1830764 1788608 1747854 1715252 
1800.804 1694629 1686645 1688708 1696624 1707635 1720442 1735844 1754940 
1804.662 1777496 1802117 1825208 1843908 1856320 1862642 1864639 1864140 
1808.519 1862243 1859215 1854423 1848334 1842444 1840248 1845239 1859647 
1812.376 1882176 1909332 1936356 1959255 1976296 1989178 2001460 2017205 
1816.234 2039077 2067307 2100234 2135795 2171957 2208256 2245557 2284460 
1820.091 2325065 2366240 2405987 2442572 2474461 2501054 2521650 2535847 
1823.949 2543746 2546079 2545579 2546779 2553978 2570310 2594975 2623342 
1827.806 2647544 2659679 2655445 2636776 2613242 2597675 2602542 2633776 
1831.664 2688783 2758769 2833202 2903545 2965625 3020841 3073595 3129092 
1835.521 3191171 3260471 3336192 3417469 3504708 3600249 3707174 3827262 
1839.378 3959888 4101921 4248550 4395530 4540485 4682807 4823937 4966018 
1843.236 5111163 5260951 5416393 5577932 5745138 5916003 6086095 6248791 
1847.093 6395709 6518258 6610126 6668196 6693432 6688990 6659212 6606425 
1850.951 6531209 6432498 6310141 6166343 6006869 5839596 5671715 5508061 
1854.808 5349466 5194182 5039255 4883713 4728729 4577886 4434827 4301119 
1858.666 4175949 4056835 3941063 3828031 3719439 3618324 3526787 3444721 
1862.523 3369115 3295658 3221580 3146880 3074763 3009698 2955117 2910550 
1866.380 2871891 2832802 2788281 2738262 2688450 2648144 2626276 2626742 
1870.238 2646644 2677715 2710288 2737662 2756702 2768673 2775475 2779477 
1874.095 2779544 2773675 2758402 2732294 2695985 2652211 2603842 2552545 
1877.953 2497922 2438473 2372970 2302813 2231635 2164198 2104696 2054190 
1881.810 2010115 1967409 1921679 1870961 1816790 1763523 1715618 1675602 
1885.667 1642508 1613041 1583044 1550754 1516771 1484387 1457923 1440303 
1889.525 1432624 1434087 1443062 1458854 1481461 1510753 1545134 1581281 
1893.382 1614072 1638916 1654382 1662264 1667885 1677032 1693464 1716550 
1897.240 1741899 1763889 1778993 1787011 1791869 1798390 1810235 1827637 
1901.097 1846836 1862675 1871261 1872026 1868399 1865704 1867634 1875287 
1904.955 1886602 1898050 1907168 1915255 1925639 1942280 1967043 1996700 
1908.812 2024296 2041939 2043637 2028923 2001660 1969373 1938552 1912227 
1912.669 1890296 1870229 1850663 1832062 1817156 1808804 1807507 1809669 
1916.527 1808970 1798823 1777064 1746756 1716417 1693764 1683219 1681224 
1920.384 1678928 1664692 1630501 1575295 1505799 1434120 1371859 1326989 
1924.242 1299537 1284549 1275111 1266438 1257532 1250388 1247032 1248228 
1928.099 1251418 1253943 1254043 1252780 1254110 1261719 1276607 1295483 
1931.957 1311202 1316387 1307679 1287141 1262184 1241948 1232511 1234205 
1935.814 1242114 1248328 1246766 1236963 1223240 1211644 1206494 1206494 
1939.671 1205763 1196460 1173269 1136724 1094403 1056404 1031427 1021895 
1943.529 1024187 1031327 1038069 1044048 1053813 1074174 1109218 1157122 
1947.386 1210348 1259161 1296181 1319644 1334334 1347030 1363549 1383825 
1951.244 1402772 1412313 1407526 1388213 1360658 1332705 1310006 1292259 
1955.101 1273450 1243975 1197091 1132306 1056935 982241 918850 872499 841657 
1959.441 819514 798468 773705 745227 715655 687246 659868 631894 601467 
1963.780 570312 544800 532525 540122 566663 604221 638365 656715 652667 
1968.120 629306 597818 568222 547255 531828 513350 481372 431685 369104 
1972.459 306100 257461 232033 230342 244962 267739 294860 331698 390527 
1976.799 482600 610990 764677 921672 1059160 1158418 1213505 1229420 1216927 
1981.139 1186691 1144365 1090683 1024153 946610 864897 790302 733876 703076 
1985.478 696671 708287 727370 746621 763449 780012 800095 824925 850886 
1989.818 871902 881962 879804 869644 860514 861743 876948 903776 934788 
1994.157 962184 981577 995027 1008079 1026644 1052385 1080751 1102707 
1998.015 1110647 1101146 1078492 1052518 1032755 1024818 1026013 1027475 
2001.872 1018009 990311 943820 884684 821971 763449 712535 667500 624860 
2006.212 583517 546823 520914 510962 518127 536572 557174 571905 577811 
2010.552 578474 582290 597253 625922 663120 699492 725379 735435 732017 
2014.891 721662 713066 711008 715688 723321 730623 738124 751301 777755 
2019.231 821772 880667 944750 1000407 1035678 1047104 1038867 1022858 
2023.088 1010138 1007680 1014489 1025581 1033453 1035579 1035745 1041258 
2026.946 1059393 1092144 1135595 1180910 1220084 1250056 1273450 1297776 
2030.803 1330512 1374983 1429532 1488743 1547761 1606123 1668185 1739470 
2034.660 1824309 1921079 2023331 2122509 2211753 2289256 2358678 2425145 
2038.518 2491890 2558378 2618742 2665513 2694151 2705687 2705920 2703953 
2042.375 2706954 2717590 2733928 2752034 2768573 2784212 2804421 2834803 
2046.233 2881263 2944575 3021208 3105130 3190270 3271888 3345841 3408720 
2050.090 3456344 3484066 3490278 3477586 3455676 3438175 3441014 3474079 
2053.948 3538846 3625441 3717099 3796476 3851497 3879813 3889140 3891213 
2057.805 3896663 3910437 3931300 3953368 3970789 3981423 3987475 3994096 
2061.662 4005566 4022755 4041885 4058038 4066300 4066199 4060748 4054627 
2065.520 4051718 4052754 4054728 4053122 4045497 4032688 4019612 4011686 
2069.377 4013325 4023625 4038875 4052253 4058473 4056400 4048540 4039878 
2073.235 4035296 4036601 4042420 4049443 4054828 4058173 4061049 4066902 
2077.092 4076869 4091151 4106135 4118311 4125035 4126974 4126105 4125971 
2080.949 4128346 4132527 4136140 4136374 4132494 4127075 4124900 4130821 
2084.807 4147346 4173239 4203482 4232055 4253871 4266853 4271538 4269831 
2088.664 4262738 4249420 4227538 4195252 4153201 4106069 4060547 4025264 
2092.522 4005566 4003460 4016535 4039979 4069076 4100048 4131457 4162199 
2096.379 4190869 4214857 4231252 4238412 4237910 4234798 4235300 4244736 
2100.237 4264979 4292920 4323072 4349510 4369625 4386058 4404702 4433020 
2104.094 4475232 4531612 4597910 4667368 4734122 4795594 4852216 4906533 
2107.951 4960522 5014082 5064865 5110660 5150323 5185564 5220372 5259341 
2111.809 5304787 5356041 5408441 5456956 5497189 5527960 5551385 5571354 
2115.666 5591525 5614416 5639960 5667351 5696121 5726773 5760986 5800507 
2119.524 5845405 5893701 5942270 5987888 6029479 6068320 6107835 6151085 
2123.381 6199683 6251816 6303652 6351057 6391305 6424528 6453281 6481262 
2127.239 6510388 6540627 6569690 6594550 6613154 6625669 6633844 6640338 
2131.096 6646596 6652349 6656285 6657766 6657968 6661063 6671594 6692860 
2134.953 6724389 6761374 6796409 6822191 6835755 6838482 6836698 6837203 
2138.811 6845012 6860361 6879818 6897660 6908601 6910722 6904056 6889547 
2142.668 6867902 6837304 6794962 6738961 6670248 6592935 6513079 6436802 
2146.526 6366826 6301703 6237328 6168729 6094360 6015705 5936660 5860384 
2150.383 5787747 5715123 5636133 5545344 5439375 5319948 5190527 5054775 
2154.240 4913135 4763433 4603536 4435865 4271605 4130754 4038541 4017137 
2158.098 4075965 4206727 4385657 4582071 4766281 4919770 5034193 5109285 
2161.955 5149082 5156392 5134967 5090243 5029869 4965717 4908979 4868266 
2165.813 4844710 4832146 4819716 4796197 4755862 4699119 4632068 4563521 
2169.670 4499571 4443229 4392451 4343854 4294694 4244803 4196022 4151059 
2173.528 4111855 4078474 4049477 4024562 4003995 3988846 3979517 3972528 
2177.385 3960925 3935179 3888304 3819473 3736082 3652873 3586084 3548668 
2181.242 3544693 3567543 3603256 3638439 3662597 3673991 3676798 3678202 
2185.100 3683548 3693640 3705971 3716097 3721845 3723984 3726256 3732372 
2188.957 3743902 3759109 3774751 3787184 3795541 3801858 3809880 3822381 
2192.815 3838159 3853804 3863064 3861794 3848756 3827797 3804833 3787218 
2196.672 3778093 3777959 3784444 3794304 3806270 3821145 3841135 3866976 
2200.530 3896763 3925549 3947416 3957481 3955040 3943437 3928759 3916957 
2204.387 3912176 3914783 3922507 3932838 3943471 3954438 3965673 3977778 
2208.244 3988813 3995868 3996437 3989314 3976674 3962798 3952900 3950593 
2212.102 3956879 3969886 3987040 4006670 4029277 4056734 4090849 4130219 
2215.959 4170161 4204252 4225932 4232557 4227036 4216464 4209705 4213653 
2219.817 4230114 4255912 4284254 4307644 4322302 4327891 4327154 4323105 
2223.674 4318186 4312229 4303328 4290343 4273244 4254138 4236605 4223222 
2227.531 4215226 4211579 4210943 4211880 4214690 4220445 4230315 4243766 
2231.389 4258321 4270434 4277260 4278632 4278063 4281409 4294594 4320495 
2235.246 4357543 4400551 4442125 4475801 4498868 4512126 4519425 4524681 
2239.104 4531009 4539112 4548755 4559068 4570419 4584047 4601896 4624935 
2242.961 4652832 4684415 4718312 4754590 4794421 4839350 4889610 4943128 
2246.819 4995144 5039657 5071939 5090411 5097786 5100200 5104089 5114180 
2250.676 5131581 5154347 5179059 5202632 5224899 5247167 5271817 5299454 
2254.533 5327964 5353189 5369593 5373418 5363655 5342623 5314111 5281912 
2258.391 5248240 5213665 5178321 5142980 5110090 5083806 5067983 5064631 
2262.248 5073045 5089271 5108548 5127423 5144523 5161522 5182010 5208836 
2266.106 5242606 5281308 5321054 5357651 5388380 5412803 5432027 5447998 
2269.963 5462325 5475680 5487759 5498296 5507557 5516417 5526417 5537793 
2273.821 5550512 5563836 5576187 5587095 5596794 5606495 5617638 5631333 
2277.678 5647412 5665001 5683264 5701459 5719991 5739732 5761255 5784927 
2281.535 5810044 5835163 5859074 5881206 5901392 5920336 5937869 5953523 
2285.393 5965481 5972704 5974316 5971931 5967430 5964440 5965246 5970923 
2289.250 5980128 5990508 5999612 6005727 6008986 6010934 6013756 6019233 
2293.108 6028304 6040869 6056492 6074636 6095369 6118689 6143893 6169737 
2296.965 6193801 6213632 6227446 6235210 6237900 6238370 6238471 6239446 
2300.823 6240656 6240017 6235177 6224488 6207851 6186172 6161537 6135828 
2304.680 6110355 6085658 6061936 6039088 6017552 5997765 5980061 5964373 
2308.537 5950398 5937668 5926382 5917480 5912409 5913013 5919697 5931521 
2312.395 5946334 5960879 5972368 5979255 5981304 5979255 5973981 5965784 
2316.252 5953892 5937063 5914491 5886547 5855380 5824215 5796914 5776499 
2320.110 5765015 5762665 5768171 5778983 5791474 5801112 5802656 5790937 
2323.967 5761658 5713209 5646908 5568166 5484169 5402772 5330849 5271482 
2327.824 5224429 5186335 5152905 5120550 5087997 5056284 5028260 5006506 
2331.682 4992731 4986698 4987100 4992228 5001076 5013076 5028126 5045691 
2335.539 5064999 5084544 5103284 5120953 5138488 5157331 5179025 5204074 
2339.397 5231673 5260179 5287782 5313742 5338698 5364327 5392607 5425015 
2343.254 5462124 5504000 5551620 5607334 5675005 5758904 5861694 5982983 
2347.112 6118152 6258740 6394835 6516409 6614567 6683539 6720385 6725938 
2350.969 6702955 6657059 6594852 6522867 6446790 6371365 6299349 6232757 
2354.826 6172997 6121277 6078534 6046043 6024272 6013655 6013454 6022659 
2358.684 6040231 6065262 6098090 6139323 6189701 6249160 6316966 6390868 
2362.541 6468044 6546177 6623549 6699758 6775172 6850296 6924761 6998429 
2366.399 7069450 7137788 7203710 7268768 7335586 7405921 7480480 7558357 
2370.256 7637494 7715770 7792171 7866999 7942279 8020508 8104051 8194195 
2374.114 8291214 8395043 8505452 8623292 8749345 8884836 9030214 9184575 
2377.971 9345829 9511275 9678342 9845373 10011620 10177116 10342132 10506329 
2381.828 10669060 10828591 10983422 11131544 11271181 11401067 11519660 
2385.204 11625626 11717968 11796096 11860381 11911870 11952432 11984074 
2388.579 12008189 12026072 12037416 12041947 12038745 12027401 12007951 
2391.954 11980905 11947357 11908396 11865932 11822075 11779074 11739311 
2395.329 11704658 11676678 11655848 11642438 11636380 11638422 11649586 
2398.705 11671573 11705985 11753643 11813835 11884320 11962513 12045046 
2402.080 12129607 12215477 12303036 12393748 12488982 12590204 12698513 
2405.455 12814458 12939139 13072768 13216447 13370184 13533787 13706273 
2408.830 13886355 14072808 14264684 14461371 14662260 14866260 15071624 
2412.206 15275541 15474781 15666075 15846318 16012954 16163763 16297046 
2415.581 16411204 16505327 16579090 16634101 16672799 16698245 16713947 
2418.956 16722281 16724553 16720902 16711261 16695663 16675279 16651867 
2422.331 16628180 16606146 16587351 16572068 16560432 16552413 16549693 
2425.707 16554443 16570104 16599985 16646942 16712466 16796974 16900206 
2429.082 17021138 17159028 17312960 17482092 17665368 17861428 18069458 
2432.457 18288610 18519248 18761498 19016032 19282458 19560276 19848192 
2435.832 20145046 20450160 20763934 21087258 21421576 21767684 22125504 
2439.208 22494122 22872310 23259076 23653918 24057176 24469116 24890430 
2442.583 25320724 25759634 26206382 26660916 27123016 27593058 28071138 
2445.958 28556610 29047762 29542518 30038194 30532626 31024062 31511564 
2449.333 31994160 32471396 32942012 33405338 33860560 34307440 34745628 
2452.708 35174412 35592288 35996640 36383712 36749348 37089596 37401404 
2456.084 37682172 37930324 38143708 38320356 38457504 38552364 38601684 
2459.459 38603388 38555440 38456488 38305772 38103052 37849556 37547580 
2462.834 37202096 36819632 36408068 35976768 35534104 35088508 34647572 
2466.209 34218700 33808660 33424698 33072930 32758820 32486182 32256998 
2469.585 32071314 31928428 31827304 31767376 31748302 31770046 31831190 
2472.960 31929034 32058616 32213922 32388282 32575638 32770470 32968964 
2476.335 33167406 33361972 33549030 33724428 33884168 34025400 34146252 
2479.710 34245804 34323936 34380560 34415600 34428796 34420008 34389884 
2483.086 34339568 34270940 34186292 34087904 33978140 33859344 33733628 
2486.461 33603408 33470824 33337354 33203852 33070068 32934542 32794874 
2489.836 32648608 32493502 32327738 32150232 31960312 31757962 31543490 
2493.211 31317260 31080044 30832536 30574894 30306746 30026762 29733016 
2496.587 29423154 29096332 28752622 28394290 28024624 27648036 27268208 
2499.962 26887726 26507930 26128678 25749966 25371970 24995708 24623348 
2503.337 24257510 23900344 23553652 23218248 22894628 22582870 22283440 
2506.712 21996868 21723616 21463766 21217050 20982816 20760180 20548982 
2510.088 20348548 20159068 19980010 19810528 19649052 19493942 19343944 
2513.463 19198468 19057990 18924168 18798762 18683074 18578138 18484050 
2516.838 18401322 18329980 18271088 18225094 18192580 18173266 18165906 
2520.213 18168534 18179416 18197176 18221016 18251080 18287158 18328976 
2523.589 18375396 18424518 18475028 18525750 18576236 18626938 18678058 
2526.964 18729150 18779384 18826200 18867378 18900288 18922992 18934068 
2530.339 18932508 18917938 18890390 18850282 18799036 18738872 18672628 
2533.714 18603316 18533566 18464654 18397070 18330878 18265800 18202324 
2537.090 18141482 18084862 18033914 17989430 17951444 17919468 17893296 
2540.465 17872924 17858666 17850794 17849172 17852210 17857836 17863084 
2543.840 17865672 17864568 17859666 17852450 17844130 17835914 17827454 
2547.215 17818376 17807640 17795108 17781300 17767840 17755758 17746128 
2550.591 17738740 17732496 17726350 17719172 17710750 17701674 17692908 
2553.966 17685488 17679862 17676066 17673720 17672340 17671546 17670854 
2557.341 17669336 17665748 17658018 17644318 17622992 17593214 17555332 
2560.716 17510104 17458600 17401692 17339548 17272654 17201600 17127696 
2564.092 17053014 16980308 16911712 16848950 16792706 16742872 16698968 
2567.467 16660819 16628627 16603187 16584942 16573753 16569141 16570002 
2570.842 16575165 16583908 16596232 16612446 16632793 16657375 16685540 
2574.217 16716840 16750896 16787814 16828420 16873612 16923598 16978170 
2577.593 17035990 17095024 17153512 17210666 17266380 17321444 17377240 
2580.968 17434732 17494786 17557814 17624166 17694530 17769566 17849690 
2584.343 17934938 18023968 18114984 18206262 18296282 18384800 18472746 
2587.718 18561956 18653986 18749976 18850248 18953656 19059132 19165568 
2591.094 19271962 19377828 19482298 19584436 19682852 19775954 19863176 
2594.469 19944692 20021818 20096528 20170730 20245950 20322366 20400010 
2597.844 20478120 20556520 20635354 20715624 20798344 20884590 20974786 
2601.219 21069276 21167924 21270982 21378764 21491828 21610528 21734974 
2604.594 21865100 22000878 22142274 22289718 22443840 22604860 22772222 
2607.970 22944612 23119794 23295362 23469218 23640344 23808596 23974638 
2611.345 24139378 24303060 24464908 24623628 24777074 24923484 25061238 
2614.720 25189346 25307446 25415110 25512468 25600078 25678530 25749228 
2618.095 25813886 25874126 25931208 25985800 26037828 26086628 26131598 
2621.471 26172350 26209090 26242704 26274490 26305536 26337116 26369928 
2624.846 26404398 26440806 26479370 26519942 26562066 26605394 26649396 
2628.221 26693400 26737552 26782448 26829110 26878844 26932532 26990388 
2631.596 27052234 27116738 27182166 27247322 27311078 27372972 27433144 
2634.972 27492372 27551432 27611206 27671940 27734134 27797502 27861690 
2638.347 27926242 27990804 28055268 28120024 28185674 28253244 28323196 
2641.722 28396022 28471656 28549426 28628908 28709538 28791352 28874988 
2645.097 28961366 29051162 29145016 29243002 29344908 29450104 29558160 
2648.473 29668796 29782088 29898036 30016750 30137732 30260846 30385414 
2651.848 30510908 30637184 30764386 30893048 31024204 31158854 31298530 
2655.223 31444412 31597544 31758462 31927396 32103028 32284052 32468506 
2658.598 32654468 32840364 33025772 33210396 33394854 33579708 33765356 
2661.974 33951696 34138544 34325512 34511912 34697636 34882692 35067352 
2665.349 35252024 35437204 35623112 35810068 35998220 36187504 36377872 
2668.724 36569408 36762224 36956668 37153408 37353192 37556612 37764248 
2672.099 37975744 38190848 38408236 38627252 38846812 39066448 39285868 
2675.475 39504640 39722356 39938076 40150672 40359732 40565072 40767892 
2678.850 40970076 41174288 41382892 41597948 41820620 42051548 42290816 
2682.225 42538876 42796368 43064512 43344208 43636760 43942596 44261784 
2685.600 44593912 44938672 45295408 45663620 46042392 46430928 46827748 
2688.976 47231840 47642300 48058920 48482276 48913092 49352536 49801496 
2692.351 50260252 50728584 51206256 51692924 52188700 52694016 53209020 
2695.726 53733940 54268316 54811356 55362000 55919036 56481620 57048936 
2699.101 57620736 58196556 58776208 59359488 59946092 60535824 61128068 
2702.477 61722000 62316172 62908552 63496680 64077808 64649104 65207832 
2705.852 65751396 66277080 66782064 67263184 67717776 68143416 68538664 
2709.227 68902712 69236048 69538880 69812184 70056272 70271440 70458024 
2712.602 70616432 70747088 70850632 70927248 70976528 70997552 70988656 
2715.978 70948200 70874624 70767448 70627072 70454632 70252432 70023728 
2719.353 69771912 69501240 69216688 68923016 68625664 68329944 68040672 
2722.728 67762584 67500272 67257656 67038836 66846908 66684888 66554488 
2726.103 66456744 66391952 66359640 66358872 66388792 66448248 66536292 
2729.479 66651472 66792264 66956796 67143168 67349504 67573856 67814752 
2732.854 68070312 68338792 68617824 68904728 69196992 69491904 69787552 
2736.229 70082008 70373744 70661536 70944064 71220248 71489040 71750368 
2739.604 72004112 72250928 72491568 72726872 72957464 73184072 73407936 
2742.979 73631048 73856000 74085992 74324152 74572792 74833120 75105296 
2746.355 75387840 75679064 75976592 76277640 76579576 76878984 77171488 
2749.730 77453288 77719656 77966848 78192200 78394320 78573160 78729824 
2753.105 78866208 78984464 79086808 79175744 79252848 79319224 79374432 
2756.480 79417240 79444888 79454120 79441544 79403992 79338632 79243344 
2759.856 79116704 78956960 78763424 78535480 78273728 77980168 77657368 
2763.231 77309120 76938600 76549144 76143976 75725648 75297632 74864336 
2766.606 74430560 74002336 73584648 73182232 72798360 72435384 72095088 
2769.981 71779176 71489784 71228720 70997824 70798296 70629408 70489208 
2773.357 70374912 70282696 70208848 70150080 70102768 70063248 70027616 
2776.732 69990944 69947896 69893016 69820592 69725736 69603904 69451856 
2780.107 69266904 69048584 68797760 68517480 68212264 67888472 67552256 
2783.482 67209840 66866816 66527060 66193520 65868140 65551520 65243640 
2786.858 64942984 64646452 64350664 64051008 63744076 63426816 63098440 
2790.233 62759676 62412832 62060492 61705920 61351788 61000580 60654412 
2793.608 60315868 59987596 59672572 59373808 59094000 58835660 58600448 
2796.983 58389548 58203640 58042920 57906640 57793756 57702360 57630692 
2800.359 57576776 57538948 57516516 57508384 57514172 57532288 57561040 
2803.734 57597548 57639240 57683360 57728244 57772828 57817188 57861248 
2807.109 57905048 57948212 57988992 58025952 58057084 58080188 58093028 
2810.484 58093480 58078520 58045760 57992516 57917124 57818776 57697704 
2813.860 57555552 57394508 57217488 57027628 56828624 56624624 56420644 
2817.235 56222904 56037960 55872952 55735016 55630112 55563492 55538712 
2820.610 55558372 55623256 55733320 55887116 56081612 56313200 56576724 
2823.985 56866508 57176212 57499076 57827860 58155412 58474040 58776244 
2827.361 59055244 59305168 59521568 59701388 59843444 59948340 60017196 
2830.736 60052540 60057904 60037016 59994480 59935252 59863788 59784992 
2834.111 59702912 59620992 59542392 59469888 59405792 59352384 59311888 
2837.486 59286784 59280212 59295672 59338100 59413848 59530196 59695724 
2840.862 59920228 60213016 60584124 61044164 61603920 62276128 63076140 
2844.237 64019792 65124988 66407436 67877040 69533040 71358896 73319344 
2847.612 75353120 77379320 79300616 81005432 82388904 83360464 83852680 
2850.987 83835472 83314576 82331352 80951368 79260640 77355088 75324040 
2854.363 73254704 71221848 69281472 67476856 65834016 64363384 63063344 
2857.738 61922412 60923408 60044892 59265708 58566248 57928220 57336692 
2861.113 56778856 56243760 55722732 55209140 54698560 54188580 53679684 
2864.488 53174084 52675912 52191164 51727264 51292308 50895040 50543728 
2867.864 50245488 50005552 49826728 49708864 49648756 49640064 49674352 
2871.239 49740372 49825648 49917820 50004880 50077680 50130376 50161200 
2874.614 50172324 50168900 50157184 50143204 50131564 50125056 50124684 
2877.989 50130632 50142720 50161312 50187088 50220752 50263080 50314196 
2881.365 50374136 50442608 50519688 50605228 50699836 50803664 50916684 
2884.740 51038600 51168532 51306328 51451372 51603808 51763880 51931632 
2888.115 52106576 52288588 52476880 52671236 52872492 53082000 53302292 
2891.490 53535884 53785768 54054816 54345740 54660832 55002888 55374500 
2894.865 55778676 56217848 56693144 57203768 57745724 58311856 58890144 
2898.241 59465936 60021912 60539708 61003588 61402468 61731548 61993680 
2901.616 62198848 62362872 62502816 62637708 62784256 62955968 63164964 
2904.991 63421100 63732484 64107308 64552912 65075792 65682748 66380300 
2908.366 67175304 68076248 69091936 70231512 71502240 72907456 74444600 
2911.742 76102472 77862856 79697080 81567336 83431480 85238704 86935864 
2915.117 88473920 89806784 90900272 91735680 92309896 92635416 92735912 
2918.492 92642512 92384856 91987376 91465936 90825440 90061968 89166288 
2921.867 88128664 86943880 85615200 84155904 82590912 80954128 79282312 
2925.243 77614896 75987528 74427928 72956920 71586704 70321104 69158528 
2928.618 68092640 67115480 66217868 65391368 64629384 63926840 63281432 
2931.993 62692144 62159848 61685716 61271044 60916548 60622104 60386116 
2935.368 60205556 60076208 59991400 59942444 59919620 59911140 59905168 
2938.744 59892120 59864284 59817924 59753588 59675120 59589024 59502452 
2942.119 59422360 59353596 59298520 59255792 59220968 59186260 59140736 
2945.494 59072968 58972420 58831484 58647776 58425404 58175340 57912204 
2948.869 57654260 57419352 57221196 57069868 56969440 56918712 56912252 
2952.245 56941824 56998004 57069832 57147188 57220476 57280924 57321604 
2955.620 57337332 57324440 57281188 57207436 57104784 56975980 56825340 
2958.995 56658184 56480264 56297204 56113964 55934112 55759916 55592564 
2962.370 55432884 55281876 55140856 55012064 54897296 54798424 54715960 
2965.746 54649632 54598456 54560960 54535788 54521512 54517568 54522792 
2969.121 54536312 54557128 54583840 54615776 54652264 54693260 54738436 
2972.496 54787864 54841392 54898500 54958740 55021728 55087176 55154060 
2975.871 55220088 55281384 55331288 55361440 55362304 55324216 55239280 
2979.247 55102748 54912976 54672932 54388320 54068588 53724304 53367552 
2982.622 53010644 52663492 52334336 52027912 51745144 51483076 51236268 
2985.997 50998280 50762624 50524856 50283132 50037152 49787448 49533656 
2989.372 49272252 48996464 48695684 48357480 47970324 47526396 47023840 
2992.748 46467912 45871452 45252528 44629856 44021320 43440032 42891672 
2996.123 42375596 41885672 41412964 40948156 40483996 40016512 39545176 
2999.498 39071960 38600052 38133040 37673464 37223180 36782888 36352944 
3002.873 35933540 35524860 35127452 34741320 34366644 34003580 33651776 
3006.249 33311236 32981976 32664146 32357830 32062896 31779032 31505256 
3009.624 31240596 30983494 30732520 30486702 30245144 30007448 29773820 
3012.999 29544646 29320308 29101292 28887772 28679698 28477068 28279944 
3016.374 28088494 27903450 27725658 27555562 27393016 27237444 27087112 
3019.750 26940182 26794888 26649782 26505006 26360808 26218454 26079064 
3023.125 25944186 25814662 25691958 25577796 25474344 25384370 25310678 
3026.500 25255012 25217894 25198230 25192472 25195316 25200584 25200828 
3029.875 25188644 25157710 25102452 25019504 24908046 24769778 24608410 
3033.250 24428946 24237012 24037528 23834184 23629498 23425328 23222792 
3036.626 23023460 22828724 22640602 22460728 22289824 22127806 21973898 
3040.001 21826912 21685650 21549380 21417782 21290992 21169282 21052406 
3043.376 20939978 20831402 20726084 20623436 20523172 20425362 20330386 
3046.751 20238626 20150738 20067134 19988440 19914582 19845592 19780600 
3050.127 19718530 19657960 19597678 19536604 19474256 19410464 19345434 
3053.502 19279236 19211836 19143372 19074262 19005058 18936974 18870976 
3056.877 18808066 18748454 18692138 18638490 18587268 18538544 18493284 
3060.252 18452692 18417948 18389604 18367274 18350130 18337134 18327836 
3063.628 18322410 18321926 18327768 18340210 18358736 18381480 18405504 
3067.003 18428078 18446642 18460022 18467490 18469080 18464240 18452450 
3070.378 18432746 18404744 18368724 18326522 18280418 18233698 18189022 
3073.753 18147978 18111220 18078332 18048352 18019926 17992330 17964600 
3077.129 17936250 17906622 17875030 17841160 17804914 17766596 17726800 
3080.504 17686212 17645422 17604600 17563854 17523282 17482678 17442734 
3083.879 17403866 17366654 17331410 17298824 17269000 17242764 17221078 
3087.254 17204978 17195326 17192396 17195360 17202566 17211630 17220388 
3090.630 17227144 17231144 17232558 17232214 17230904 17229422 17228316 
3094.005 17228076 17229284 17232972 17240314 17252140 17268966 17290550 
3097.380 17315892 17343720 17373136 17403278 17433870 17464948 17496544 
3100.755 17528422 17560506 17592456 17624442 17656982 17691080 17727870 
3104.131 17768114 17812162 17859184 17907900 17956486 18003142 18046418 
3107.506 18085242 18119200 18148668 18174684 18198730 18222572 18248280 
3110.881 18277378 18310796 18348816 18390640 18435338 18481630 18528136 
3114.256 18573678 18617496 18658826 18697082 18731884 18762812 18789868 
3117.632 18813604 18834538 18853362 18870596 18886514 18901222 18914822 
3121.007 18927906 18941162 18955560 18971862 18990174 19010042 19030052 
3124.382 19048712 19064948 19078416 19089532 19099918 19111342 19125540 
3127.757 19143614 19165812 19191818 19221118 19252392 19284674 19316958 
3131.133 19348310 19378244 19406308 19432986 19458838 19485034 19512864 
3134.508 19543328 19577018 19614314 19654980 19698558 19744572 19792564 
3137.883 19841880 19891966 19942020 19990904 20038022 20082716 20125158 
3141.258 20166148 20206240 20246332 20287264 20329310 20372542 20417444 
3144.634 20464364 20513654 20565866 20621072 20678858 20738528 20798970 
3148.009 20859386 20919358 20978818 21038216 21098074 21158916 21220354 
3151.384 21281700 21342254 21400796 21457224 21511532 21564562 21617702 
3154.759 21672346 21729748 21790642 21855412 21923538 21994220 22066236 
3158.135 22138544 22210480 22281522 22351668 22421128 22490774 22560708 
3161.510 22632016 22705012 22780290 22858026 22938500 23021258 23105606 
3164.885 23190462 23274386 23356126 23435048 23510944 23584262 23655808 
3168.260 23726316 23796382 23865968 23935074 24003212 24070310 24136716 
3171.635 24202260 24267320 24331338 24394210 24454848 24512480 24566334 
3175.011 24616440 24662940 24706150 24746626 24785072 24822154 24859132 
3178.386 24897482 24938328 24982758 25030490 25080686 25131344 25180428 
3181.761 25226566 25269446 25310220 25351106 25394910 25443706 25498624 
3185.136 25559028 25623414 25689850 25756258 25821554 25884994 25946402 
3188.512 26006238 26065026 26123750 26183398 26245378 26310852 26380630 
3191.887 26454962 26532936 26613568 26695126 26776526 26856742 26935670 
3195.262 27013270 27089616 27164988 27239102 27312064 27384404 27457038 
3198.637 27531062 27607570 27686702 27768218 27851092 27934050 28015930 
3202.013 28096340 28175492 28253776 28331648 28409216 28486408 28562942 
3205.388 28638712 28713858 28788980 28864222 28939264 29013400 29085350 
3208.763 29154086 29219576 29282344 29344022 29406454 29471308 29539114 
3212.138 29609804 29682420 29756184 29830848 29907018 29985294 30066778 
3215.514 30151264 30237826 30324758 30409970 30491854 30569596 30643440 
3218.889 30714418 30783522 30852138 30920622 30989862 31059864 31131228 
3222.264 31204208 31279088 31356186 31435222 31515982 31597794 31680186 
3225.639 31762526 31844348 31924900 32003824 32080516 32154654 32226380 
3229.015 32296010 32364398 32432300 32500676 32569532 32639180 32708876 
3232.390 32778368 32846976 32914418 32980226 33044364 33106364 33166192 
3235.765 33224456 33281654 33338894 33397216 33457514 33519932 33584612 
3239.140 33650736 33717728 33785376 33853540 33921996 33990464 34058228 
3242.516 34123780 34185896 34243656 34297076 34347532 34397200 34448348 
3245.891 34503052 34562428 34626400 34694264 34765008 34837344 34910984 
3249.266 34985464 35060240 35135104 35209044 35281816 35352908 35423040 
3252.641 35493148 35564560 35638684 35715880 35795460 35876748 35957800 
3256.017 36037428 36114764 36189484 36262092 36333344 36404032 36474584 
3259.392 36545548 36616812 36688192 36759264 36829660 36899168 36967528 
3262.767 37035072 37102120 37169432 37237656 37307660 37379988 37455108 
3266.142 37533492 37615576 37701868 37792008 37885672 37981708 38078600 
3269.518 38174716 38268536 38359480 38447800 38534732 38621600 38710160 
3272.893 38801412 38895988 38994096 39095416 39199988 39307708 39418424 
3276.268 39531748 39646992 39763532 39880868 39998928 40118760 40241612 
3279.643 40368860 40501820 40640528 40784088 40931300 41080492 41230644 
3283.019 41380996 41531844 41683756 41837512 41993440 42151944 42313244 
3286.394 42477892 42646512 42819772 42998108 43181464 43369324 43560784 
3289.769 43754708 43950848 44149240 44350544 44555984 44767028 44984608 
3293.144 45209800 45442868 45683720 45931368 46184616 46441624 46700516 
3296.520 46959596 47217912 47475572 47733860 47994268 48258788 48529180 
3299.895 48806264 49090204 49381452 49679700 49985476 50299240 50621424 
3303.270 50952192 51291264 51637620 51990412 52349060 52713020 53082676 
3306.645 53458456 53840632 54229460 54624832 55026620 55434836 55849624 
3310.021 56271104 56699828 57135248 57577044 58024740 58478020 58936896 
3313.396 59401808 59873788 60353256 60840532 61335112 61836632 62344132 
3316.771 62857232 63375584 63899048 64427452 64960144 65496616 66036224 
3320.146 66579164 67125920 67677776 68235448 68799200 69367880 69939256 
3323.521 70510832 71080280 71646648 72209680 72770000 73328416 73884520 
3326.897 74437088 74984104 75523104 76052144 76569696 77075088 77567440 
3330.272 78046312 78510392 78958704 79390304 79804736 80201976 80581240 
3333.647 80941432 81279904 81593648 81879696 82135672 82361952 82559576 
3337.022 82731192 82879224 83005112 83108296 83187752 83240960 83265968 
3340.398 83260792 83224584 83156248 83055064 82920088 82750360 82545312 
3343.773 82305080 82030200 81721056 81377800 80999880 80586144 80135864 
3347.148 79648752 79126128 78570776 77985960 77375480 76742320 76088424 
3350.523 75415120 74723344 74014120 73288832 72549168 71796808 71033880 
3353.899 70261936 69483080 68699712 67915240 67133104 66357756 65593028 
3357.274 64842068 64106956 63389084 62688388 62004268 61335912 60681692 
3360.649 60039640 59408188 58785920 58172196 57567624 56973936 56393024 
3364.024 55827240 55277924 54745652 54229872 53729776 53244756 52774904 
3367.400 52320468 51882156 51459988 51052876 50658768 50275020 49898936 
3370.775 49528452 49162516 48801408 48445564 48095524 47751652 47413516 
3374.150 47080816 46752764 46429156 46109440 45793388 45479880 45167148 
3377.525 44853616 44537628 44218384 43896332 43572836 43249468 42927912 
3380.901 42608536 42290304 41971832 41650856 41325532 40995492 40661016 
3384.276 40323700 39985776 39649168 39315288 38984960 38658324 38334544 
3387.651 38013424 37694420 37376848 37060800 36746068 36432968 36121532 
3391.026 35812012 35504688 35199776 34897700 34598628 34302780 34009600 
3394.402 33718768 33429422 33141122 32853446 32566994 32283266 32004040 
3397.777 31731442 31467102 31211612 30964172 30723094 30485636 30248732 
3401.152 30010750 29770166 29527196 29282664 29037664 28793370 28551088 
3404.527 28311242 28074744 27841764 27612794 27387828 27166788 26949032 
3407.903 26733640 26519694 26306276 26093384 25881230 25670516 25462256 
3411.278 25257154 25055728 24858254 24664904 24475846 24291250 24111252 
3414.653 23935950 23764812 23597136 23431902 23268166 23104872 22941888 
3418.028 22778928 22616448 22455146 22295438 22138230 21983902 21833112 
3421.404 21686068 21543042 21403650 21267712 21134494 21003718 20875168 
3424.779 20748990 20625242 20503962 20384660 20266608 20148446 20029278 
3428.154 19908130 19785072 19660664 19536084 19412684 19291186 19172390 
3431.529 19056016 18942166 18830732 18721712 18615800 18512922 18413178 
3434.905 18316050 18220844 18126524 18032152 17937320 17841714 17745472 
3438.280 17649046 17552742 17456980 17362238 17269208 17178332 17090336 
3441.655 17005150 16922150 16840684 16758610 16674073 16585285 16490940 
3445.030 16390938 16285935 16177863 16069166 15962832 15861576 15767388 
3448.406 15680948 15601706 15527249 15455176 15382050 15305263 15223308 
3451.781 15135881 15043872 14948867 14852510 14756313 14660889 14566584 
3455.156 14473430 14381699 14291734 14204049 14118913 14036189 13955021 
3458.531 13874382 13792936 13709933 13624826 13538162 13450560 13363248 
3461.906 13277252 13193289 13111390 13031760 12953750 12876572 12799648 
3465.282 12722190 12643588 12563600 12482435 12400500 12318682 12237425 
3468.657 12157036 12077411 11997970 11917932 11837125 11755311 11673003 
3472.032 11590710 11509147 11428313 11348448 11268699 11188828 11108836 
3475.407 11029132 10950596 10874657 10801856 10732532 10666139 10601251 
3478.783 10535897 10468550 10397548 10322350 10243468 10162463 10081338 
3482.158 10002770 9928759 9860592 9798060 9740315 9685119 9630471 9574342 
3486.015 9515543 9454178 9390587 9325516 9259881 9193915 9127656 9061068 
3489.873 8994524 8928769 8864985 8804591 8748601 8697385 8650636 8607374 
3493.730 8566751 8527687 8490180 8453927 8419670 8387273 8356467 8326440 
3497.588 8296144 8264567 8231136 8195613 8157899 8118534 8077923 8036743 
3501.445 7995634 7955676 7918556 7885759 7859374 7840413 7829651 7826277 
3505.302 7828942 7835116 7842167 7847565 7849388 7846654 7839637 7829179 
3509.160 7817371 7805799 7796252 7789775 7786470 7786335 7788528 7792913 
3513.017 7799390 7808161 7819395 7833058 7848375 7864063 7878741 7890887 
3516.875 7899998 7906139 7910323 7913664 7916666 7919771 7921357 7919636 
3520.732 7912448 7898276 7876716 7848477 7815414 7779892 7743495 7707271 
3524.590 7670375 7631290 7587488 7536914 7478424 7412527 7340742 7266005 
3528.447 7191246 7118589 7049177 6982637 6917758 6852821 6786379 6717760 
3532.304 6646932 6574197 6499390 6422140 6341912 6257564 6168998 6076552 
3536.162 5981740 5886849 5794530 5706595 5624116 5547693 5476451 5409281 
3540.019 5344703 5281174 5217085 5151262 5083102 5012506 4940347 4868165 
3543.877 4797771 4730739 4667736 4608358 4551233 4495152 4438777 4382209 
3547.734 4325782 4270902 4217568 4165511 4112959 4058206 3999346 3935948 
3551.592 3869182 3801390 3735547 3674359 3619360 3570549 3527088 3487573 
3555.449 3450566 3414898 3379834 3344539 3308045 3269251 3227455 3182159 
3559.306 3133798 3083473 3032319 2981806 2932966 2886533 2842740 2801687 
3563.164 2763138 2726092 2688316 2646477 2596642 2535014 2459833 2373070 
3567.021 2280030 2189207 2108858 2044636 1998232 1966810 1945275 1927070 
3570.879 1907601 1883540 1854123 1820217 1783352 1745126 1706238 1667154 
3574.736 1627874 1588664 1550122 1512582 1476374 1440769 1404634 1366973 
3578.594 1327022 1284782 1242014 1200978 1164166 1133469 1109617 1091978 
3582.451 1078990 1068394 1057367 1043052 1022991 994396 955077 903875 841126 
3586.791 769822 695111 624030 563246 517397 487874 472516 466678 464821 
3591.130 461271 451984 434571 408834 375803 338165 298938 261174 227193 
3595.470 199347 178430 164939 158310 156652 157514 157547 153802 144223 
3599.809 128115 106870 83704 61965 45031 34527 30484 31312 34261 36846 36548 
3605.113 31478 20377 1954 -24385 -58510 -98562 -141161 -182364 -217437 
3609.453 -243764 -261481 -273832 -285620 -302242 -326777 -359190 -395506 
3613.310 -429536 -455188 -468593 -470314 -463926 -456943 -456909 -469520 
3617.168 -497984 -541701 -596102 -653739 -706306 -746464 -769981 -776398 
3621.025 -768658 -751657 -730984 -710772 -694000 -681132 -671075 -662076 
3624.883 -653706 -647552 -648478 -663565 -700782 -765284 -856035 -961875 
3628.740 -1063426 -1139078 -1173379 -1163201 -1117960 -1053014 -983728 
3632.115 -921704 -874024 -841517 -821510 -809008 -799285 -789462 -779341 
3635.973 -770808 -766674 -769154 -778614 -794225 -813705 -834639 -855406 
3639.830 -874784 -892938 -909570 -924581 -936748 -944386 -946138 -941344 
3643.688 -931061 -918100 -906296 -900973 -906925 -927689 -965049 -1018769 
3647.545 -1085736 -1160921 -1238803 -1312078 -1373286 -1415430 -1432240 
3650.920 -1420483 -1380949 -1319742 -1245543 -1169612 -1103352 -1056220 
3654.295 -1033908 -1037776 -1062765 -1098857 -1132600 -1152065 -1150776 
3657.671 -1128568 -1090231 -1043957 -997744 -957709 -927590 -909041 -901304 
3661.528 -902229 -909206 -919059 -929144 -937145 -941179 -939096 -929970 
3665.385 -912446 -886887 -854646 -818632 -781822 -746729 -710441 -662903 
3669.243 -586341 -455519 -245420 58783 459115 944186 1496955 2098603 2730694 
3673.583 3372988 3991756 4534859 4936258 5126820 5065368 4754221 4235602 
3677.440 3570583 2822063 2049862 1304589 630501 63588 -378656 -696812 
3681.297 -910297 -1047031 -1136929 -1202689 -1256445 -1302069 -1339331 
3684.673 -1368233 -1392773 -1419228 -1455918 -1508686 -1578450 -1659755 
3688.048 -1742134 -1813445 -1865113 -1893419 -1899951 -1888933 -1864750 
3691.423 -1830173 -1787938 -1740946 -1692761 -1647509 -1609614 -1581586 
3694.798 -1564154 -1556066 -1554415 -1555967 -1557882 -1559004 -1559631 
3698.174 -1561414 -1566994 -1579176 -1600205 -1631071 -1670416 -1714775 
3701.549 -1758239 -1793713 -1815655 -1821133 -1811135 -1789687 -1762397 
3704.924 -1735303 -1712135 -1694412 -1681210 -1670350 -1658897 -1646024 
3708.299 -1631929 -1619352 -1612354 -1613938 -1626482 -1649787 -1680483 
3711.675 -1712597 -1739263 -1753553 -1750814 -1730221 -1694346 -1648664 
3715.050 -1599908 -1554613 -1518096 -1492770 -1478109 -1471406 -1469193 
3718.425 -1468863 -1469920 -1474245 -1484911 -1504228 -1532294 -1566135 
3721.800 -1600634 -1630443 -1652064 -1665003 -1671869 -1676721 -1682893 
3725.176 -1691804 -1701772 -1709132 -1709363 -1699131 -1678107 -1648664 
3728.551 -1615886 -1585317 -1563032 -1553424 -1558938 -1579473 -1611396 
3731.926 -1649358 -1687085 -1720023 -1746854 -1770086 -1793614 -1820143 
3735.301 -1849442 -1876462 -1893452 -1893254 -1872470 -1833110 -1780975 
3738.677 -1723422 -1666555 -1614400 -1568843 -1531237 -1504988 -1496370 
3742.052 -1515290 -1572210 -1672529 -1809485 -1958207 -2082641 -2147203 
3745.427 -2137410 -2064307 -1956755 -1846076 -1758173 -1709759 -1705633 
3748.802 -1739527 -1795296 -1854688 -1901766 -1927958 -1932445 -1917897 
3752.177 -1887085 -1840269 -1777477 -1701211 -1616216 -1530874 -1454465 
3755.553 -1393731 -1353072 -1332691 -1329421 -1338769 -1356177 -1379099 
3758.928 -1405258 -1431877 -1454432 -1466650 -1462886 -1440430 -1402252 
3762.303 -1355846 -1310955 -1277556 -1260939 -1261335 -1273163 -1287666 
3765.678 -1296618 -1295792 -1287269 -1277259 -1273955 -1283140 -1306628 
3769.054 -1341048 -1379132 -1411995 -1432042 -1436170 -1424710 -1401592 
3772.429 -1371965 -1341313 -1313697 -1291663 -1276103 -1266192 -1260047 
3775.804 -1255619 -1251853 -1249276 -1249937 -1256710 -1271610 -1294273 
3779.179 -1321757 -1347952 -1366482 -1373418 -1367638 -1352345 -1332691 
3782.555 -1314457 -1301772 -1296618 -1297907 -1303589 -1310592 -1316472 
3785.930 -1319577 -1318586 -1312772 -1301309 -1283866 -1261864 -1238175 
3789.305 -1217095 -1202854 -1198360 -1203284 -1214716 -1228263 -1239728 
3792.680 -1247062 -1252018 -1258725 -1272039 -1295198 -1327175 -1362320 
3796.056 -1391683 -1406314 -1401493 -1379033 -1347357 -1318091 -1304249 
3799.431 -1316736 -1359414 -1427947 -1508455 -1580827 -1623841 -1625195 
3802.806 -1584986 -1515620 -1435740 -1364566 -1318487 -1307850 -1333352 
3806.181 -1385738 -1447497 -1497294 -1517898 -1503502 -1458758 -1395812 
3809.557 -1327934 -1265002 -1212040 -1169149 -1133559 -1102988 -1077638 
3812.932 -1061310 -1060385 -1081737 -1129031 -1199087 -1281290 -1357498 
3816.307 -1410146 -1428409 -1412424 -1372427 -1323871 -1284098 -1266423 
3819.682 -1278647 -1319742 -1379331 -1438878 -1478109 -1483227 -1451790 
3823.058 -1391683 -1316538 -1241743 -1179691 -1137227 -1116439 -1113333 
3826.433 -1120604 -1130320 -1136665 -1138218 -1136863 -1136929 -1142547 
3829.808 -1155667 -1175924 -1199979 -1222976 -1240818 -1249772 -1248450 
3833.183 -1237712 -1219903 -1198724 -1178997 -1165746 -1163565 -1175329 
3836.559 -1200178 -1233681 -1267844 -1293216 -1302234 -1292687 -1267579 
3839.934 -1234045 -1200376 -1174404 -1160459 -1159698 -1169876 -1186993 
3843.309 -1206059 -1222514 -1232558 -1233946 -1225983 -1209429 -1186597 
3846.684 -1160723 -1135211 -1112705 -1094627 -1080844 -1070268 -1062963 
3850.060 -1061178 -1070565 -1101138 -1163168 -1264242 -1402516 -1560952 
3853.435 -1707746 -1809683 -1845054 -1812587 -1727647 -1612354 -1487487 
3856.810 -1367572 -1260674 -1170471 -1097006 -1038900 -994835 -964156 
3860.185 -946039 -940187 -945774 -961842 -987265 -1021512 -1063888 -1112341 
3864.043 -1162375 -1206720 -1236688 -1245047 -1229948 -1195684 -1153089 
3867.418 -1116473 -1098956 -1109565 -1148132 -1204936 -1260972 -1296354 
3870.793 -1298567 -1267117 -1212833 -1151272 -1098593 -1065905 -1056418 
3874.168 -1065343 -1082332 -1095717 -1096478 -1082034 -1055757 -1026008 
3877.544 -1002604 -994240 -1007034 -1041709 -1093139 -1150247 -1200706 
3880.919 -1231864 -1236622 -1214947 -1173082 -1122454 -1074994 -1041908 
3884.294 -1029710 -1038900 -1062104 -1086562 -1099915 -1093404 -1066368 
3887.669 -1025479 -981876 -947328 -931094 -938335 -968024 -1013546 -1064021 
3891.527 -1108376 -1138053 -1149487 -1143440 -1124008 -1095420 -1061575 
3894.902 -1025281 -989215 -955858 -928482 -910959 -906164 -915720 -938434 
3898.760 -970140 -1004521 -1035098 -1057443 -1070466 -1076878 -1081737 
3902.135 -1090396 -1106525 -1129527 -1155138 -1177708 -1189835 -1186399 
3905.510 -1166407 -1131906 -1087752 -1039726 -993249 -952486 -919853 -896112 
3909.367 -880538 -871378 -866220 -862185 -856928 -848495 -835763 -819658 
3913.225 -802592 -787875 -779705 -781789 -795978 -821609 -855406 -891781 
3917.082 -924713 -948651 -960916 -961214 -951262 -933475 -910760 -885366 
3920.940 -859242 -834010 -812382 -796705 -789627 -792670 -805536 -825544 
3924.797 -848594 -869295 -883679 -890127 -889268 -884043 -877628 -873032 
3928.655 -871577 -873660 -878058 -883712 -889731 -895815 -901502 -906528 
3932.512 -909305 -908214 -901667 -889102 -871544 -851703 -833415 -819757 
3936.369 -812878 -813242 -819128 -828091 -837317 -845122 -850810 -854943 
3940.227 -858614 -863111 -868832 -875413 -881861 -887184 -889929 -889929 
3944.084 -887284 -882654 -876702 -870849 -865658 -862020 -859871 -859176 
3947.942 -859375 -859705 -859606 -858416 -856200 -853025 -848859 -843931 
3951.799 -837846 -830406 -821840 -813043 -805073 -799814 -798359 -801567 
3955.656 -808744 -818302 -828025 -835895 -840492 -841451 -840029 -837582 
3959.514 -835730 -835730 -837681 -840988 -844725 -847338 -847503 -844461 
3963.371 -837417 -826669 -812845 -797334 -781624 -767633 -756718 -749276 
3967.229 -744976 -742925 -741172 -738095 -732671 -725029 -716098 -707100 
3971.086 -699657 -695059 -693868 -696018 -700782 -707365 -713915 -719307 
3974.944 -722185 -721556 -716958 -708953 -698202 -685995 -673589 -661712 
3978.801 -650861 -640770 -631406 -622639 -614863 -609073 -606327 -607518 
3982.658 -612812 -621580 -632697 -644608 -655294 -663829 -669189 -671339 
3986.516 -670645 -668163 -664954 -662374 -661249 -661911 -664127 -666873 
3990.373 -668726 -668693 -666476 -662738 -659065 -657510 -659694 -666211 
3994.231 -676500 -688807 -701311 -712426 -721622 -729098 -735780 -742462 
3998.088 -749110 -755825 -761249 -764888 -766376 -766211 
##END=
