
##TITLE=Z240_3_a
##JCAMP-DX=5.01  $$ Nicolet v. 1
##DATATYPE=INFRARED SPECTRUM
##ORIGIN=UniL
##OWNER=Nicolet
##LONGDATE=2011/09/09
##TIME=11:48:52
##SPECTROMETER/DATA SYSTEM=Nicolet iS5
##DATA PROCESSING=
Ratio against background
%Transmittance->Absorbance
Truncated
ElementMultiply or ElementDivide
##COMMENTS=
Number of sample scans: 32
Collection length: 51.20 sec
Sample gain: 2.0
Background collected on: Ven Sep 09 11:46:17 2011 (GMT+02:00);
Number of background scans: 32
Background gain: 2.0
Sample spacing:  1.000
Number of scan points: 12415
Resolution points: 8192
Number of FFT points: 65536
Apodization: N-B fort;
Phase correction: Mertz;
Laser frequency: 15798.0 cm-1
Number of rejected sample scans: 0
Number of rejected background scans: 0
Bench serial number: ASB1000141;
##RESOLUTION=4.000
##XUNITS=1/CM
##YUNITS=ABSORBANCE
##FIRSTX=649.893372
##LASTX=4000.122314
##FIRSTY=0.081825
##MAXX=4000.122314
##MINX=649.893372
##MAXY=0.282924
##MINY=-0.001512
##XFACTOR=1.000000
##YFACTOR=1.000000E-009
##NPOINTS=6950
##DELTAX=0.482117
##ZPD=6100
##XYDATA=(X++(Y..Y))
649.893 81824608 81709696 81644992 81648384 81720736 81847536 82005184 
653.268 82177032 82363192 82584384 82870248 83248024 83730352 84310208 
656.643 84969008 85688048 86459224 87288000 88186512 89162872 90215864 
660.018 91336256 92516456 93763064 95101024 96563568 98179616 99951536 
663.393 101848576 103810704 105771000 107673480 109473128 111135464 
666.285 112614680 113833200 114690672 115095336 115020360 114522552 
669.178 113704944 112653320 111404648 109950920 108268536 106348216 
672.071 104216840 101942088 99611576 97318792 95130472 93077832 91165784 
675.446 89386288 87733312 86207320 84813464 83552552 82415184 81381832 
678.820 80427416 79527968 78669176 77845216 77057552 76308256 75596640 
682.195 74916888 74261128 73621664 72995448 72383720 71791136 71222792 
685.570 70681896 70169080 69683680 69224704 68791784 68384512 68001144 
688.945 67636424 67282104 66926108 66554792 66157020 65724492 65254116 
692.320 64747864 64211048 63652604 63082464 62511920 61952028 61413272 
695.694 60903924 60430252 59996116 59603204 59252148 58943616 58678268 
699.069 58457168 58281312 58151588 58068068 58030160 58035308 58078144 
702.444 58150488 58241492 58340124 58436776 58525372 58604732 58677888 
705.819 58750568 58828600 58917692 59021496 59143240 59286820 59458452 
709.194 59667100 59927648 60260976 60694572 61264712 62009620 62962136 
712.569 64138144 65521048 67051596 68619536 70086296 71298064 72116568 
715.943 72459696 72310136 71727544 70829112 69782000 68774664 67982272 
719.318 67570216 67667592 68350416 69634280 71450328 73643096 75955200 
722.693 78072368 79673272 80469240 80294928 79136864 77146832 74592624 
726.068 71804856 69106000 66723408 64785136 63314936 62262780 61542064 
729.443 61063232 60759124 60581224 60497656 60484516 60517384 60574676 
732.817 60641456 60712864 60794112 60895236 61023992 61179636 61352440 
736.192 61527368 61691904 61840836 61977248 62109460 62244580 62383604 
739.567 62521868 62651260 62767020 62872172 62977380 63097752 63244752 
742.942 63422868 63625940 63842012 64056308 64257644 64440668 64604120 
746.317 64747900 64871148 64971456 65047504 65102464 65145544 65189892 
749.692 65248728 65329440 65430776 65543428 65655032 65756448 65846012 
753.066 65930428 66021488 66130972 66266500 66428824 66615736 66823760 
756.441 67051440 67299168 67567272 67852360 68146864 68440944 68725992 
759.816 68998672 69262936 69527944 69803392 70094392 70400120 70715776 
763.191 71039072 71375776 71745056 72177872 72716600 73409192 74301552 
766.566 75436528 76842056 78520040 80429248 82475592 84516864 86369032 
769.940 87864112 88899840 89489416 89781320 90036936 90569232 91614104 
773.315 93252464 95331808 97493312 99212912 99941392 99293496 97126808 
776.690 93611080 89144448 84273520 79528560 75296528 71811736 69123792 
780.065 67152256 65741644 64728132 63978820 63398824 62938080 62573300 
783.440 62295060 62101664 61996092 61987912 62091532 62323856 62699644 
786.815 63227892 63912064 64755060 65763308 66952080 68344792 69968832 
790.189 71852592 74020360 76492792 79292896 82449072 85997080 89976648 
793.564 94417960 99325520 104658664 110324624 116170544 121979280 127506240 
796.939 132481320 136641056 139785680 141800384 142698160 142620752 
799.832 141838656 140701504 139550224 138689440 138298336 138393872 
802.724 138817696 139261008 139339360 138643888 136875984 133915976 
805.617 129859120 124993392 119725960 114496888 109636952 105326616 
808.510 101564936 98206080 95016680 91759256 88278336 84520200 80543872 
811.885 76477496 72482880 68703552 65233172 62120204 59368868 56958036 
815.259 54855412 53029288 51452116 50098244 48945020 47971656 47159852 
818.634 46496972 45976048 45593656 45347556 45233920 45245908 45375696 
822.009 45617832 45972436 46447004 47055928 47817080 48745984 49852592 
825.384 51136400 52583000 54160012 55816500 57484176 59074224 60494228 
828.759 61660968 62514828 63042508 63284232 63338972 63342116 63455796 
832.133 63845924 64643568 65934436 67730712 69960624 72452808 74943192 
835.508 77122016 78640424 79193208 78588760 76776168 73874656 70135128 
838.883 65908512 61551916 57370532 53599456 50363792 47699876 45576984 
842.258 43927716 42671368 41728948 41037260 40543064 40202392 39982068 
845.633 39855408 39803984 39817096 39888132 40011132 40178076 40377984 
849.008 40599744 40835740 41084972 41353592 41651772 41990996 42378588 
852.382 42817032 43305476 43842776 44430880 45076016 45786800 46571808 
855.757 47437132 48386148 49421736 50550768 51785756 53147608 54663684 
859.132 56362996 58278092 60442248 62888944 65653720 68764960 72231360 
862.507 76020880 80043192 84139496 88067336 91543744 94271216 95974240 
865.882 96470464 95688344 93689552 90649248 86839576 82585984 78194576 
869.256 73947056 70060280 66667236 63839824 61590364 59890220 58683240 
872.631 57899824 57467456 57307540 57344784 57507852 57726276 57942796 
876.006 58116056 58224968 58273240 58286048 58304996 58373704 58529656 
879.381 58792936 59159832 59601832 60070576 60512056 60871980 61111704 
882.756 61216568 61196424 61083364 60920512 60755276 60624848 60552544 
886.131 60548580 60614028 60748796 60958408 61256088 61661504 62195520 
889.505 62870832 63687980 64631804 65676652 66788824 67933832 69083816 
892.880 70215112 71309856 72353144 73330136 74225392 75024160 75710576 
896.255 76268800 76682864 76935040 77009168 76893544 76586136 76098296 
899.630 75456232 74700832 73878704 73037792 72222632 71467280 70797664 
903.005 70232720 69785496 69467640 69289752 69260800 69389032 69680880 
906.379 70141312 70775240 71587992 72585040 73771376 75150240 76722200 
909.754 78485064 80435624 82571272 84891160 87395240 90082848 92949432 
913.129 95986680 99183064 102529464 106024360 109680120 113524464 117595312 
916.504 121937560 126590712 131576744 136889760 142481536 148256160 
919.397 154046384 159620272 164698800 168954608 172088368 173883216 
922.289 174258096 173318736 171361920 168871312 166408656 164573520 
925.182 163924080 164854416 167578944 172070784 178072352 185080448 
928.075 192396304 199259120 204853104 208466928 209606800 207998256 
930.967 203633328 196723888 187664832 176960624 165165120 152875392 
933.860 140637456 128926800 118144368 108556288 100322776 93510872 88107032 
937.235 84054688 81275184 79687688 79206240 79728328 81124792 83202960 
940.610 85701168 88316752 90696648 92506816 93490536 93485240 92466320 
943.985 90534544 87900864 84828080 81583096 78413216 75493960 72932616 
947.359 70775048 69016224 67621320 66541620 65730812 65146156 64751560 
950.734 64518392 64419492 64429680 64527496 64694212 64916200 65185772 
954.109 65498232 65850408 66238560 66657148 67099428 67559880 68034424 
957.484 68521872 69023488 69540704 70073872 70622160 71183480 71756384 
960.859 72340936 72939864 73556112 74192688 74850392 75527232 76220376 
964.233 76927128 77646480 78380112 79130584 79899992 80688192 81493304 
967.608 82311928 83142160 83984528 84842016 85719008 86618560 87540896 
970.983 88482664 89439624 90407912 91387128 92380272 93392288 94427760 
974.358 95488448 96572760 97677248 98799688 99940520 101104016 102296288 
977.733 103523344 104788160 106091152 107430648 108806728 110222152 
980.625 111683344 113197928 114772224 116408304 118103536 119852352 
983.518 121647336 123481168 125345288 127225920 129102200 130941864 
986.411 132704080 134346944 135831632 137131232 138235328 139148736 
989.304 139889600 140484448 140968624 141382336 141768336 142173488 
992.196 142639888 143200592 143877056 144675232 145589472 146607280 
995.089 147716928 148910560 150186032 151544400 152985744 154506320 
997.982 156098848 157754544 159466416 161232032 163050752 164920496 
1000.874 166832992 168770048 170706192 172614912 174472944 176267888 
1003.767 177999360 179676352 181312880 182925440 184532560 186154848 
1006.660 187818352 189554416 191392768 193358512 195464080 197706944 
1009.552 200071248 202533776 205072272 207666080 210298672 212952224 
1012.445 215602368 218217264 220763248 223209616 225539376 227751104 
1015.338 229856288 231868496 233793072 235619968 237324592 238873968 
1018.231 240236256 241392816 242340352 243093200 243678992 244140864 
1021.123 244537152 244937232 245427088 246098048 247030080 248287248 
1024.016 249901680 251872896 254171856 256752320 259562880 262545680 
1026.909 265640320 268776416 271859200 274779616 277415328 279640448 
1029.802 281350816 282464384 282923552 282693760 281754624 280101056 
1032.695 277747072 274735168 271139488 267053968 262588896 257847040 
1035.588 252907312 247828336 242646240 237385216 232069712 226729024 
1038.481 221397696 216117744 210933008 205890336 201042816 196440640 
1041.374 192127024 188123808 184414640 180932192 177553904 174126864 
1044.267 170477488 166452064 161957968 156970752 151548384 145808576 
1047.160 139918640 134057168 128384800 123042048 118124672 113685096 
1050.053 109739672 106273136 103249032 100617760 98328224 96332088 94586296 
1053.429 93057920 91718824 90543440 89507128 88581424 87734280 86934608 
1056.804 86150872 85356656 84532880 83667400 82755456 81800328 80813536 
1060.179 79815280 78832512 77900800 77057872 76340168 75781104 75405656 
1063.554 75229696 75261064 75498456 75932072 76541280 77295576 78149992 
1066.930 79046072 79921776 80711896 81360296 81830368 82105000 82188640 
1070.305 82101608 81875936 81546400 81144960 80700320 80233544 79759296 
1073.680 79287528 78824600 78375784 77948408 77551912 77199344 76905416 
1077.055 76682232 76536176 76465368 76458536 76497456 76560096 76627288 
1080.431 76683056 76716824 76721528 76691760 76622704 76511600 76362568 
1083.806 76190008 76021352 75900264 75880416 76020320 76381136 77014240 
1087.181 77959912 79242904 80866504 82809216 85017440 87410560 89874432 
1090.556 92271424 94467792 96337296 97788664 98778936 99313568 99441608 
1093.932 99238608 98799360 98216376 97569384 96927952 96344912 95860808 
1097.307 95509592 95315216 95290912 95431648 95708544 96061000 96391904 
1100.682 96582896 96496656 95997920 94987032 93407368 91265728 88626776 
1104.057 85609392 82364832 79044752 75800400 72754680 69993440 67573232 
1107.433 65517804 63826928 62484220 61464192 60737100 60269428 60028268 
1110.808 59978620 60081492 60296796 60579168 60878960 61148776 61343088 
1114.183 61424380 61370184 61172200 60837944 60386272 59844812 59244020 
1117.558 58611940 57974868 57353744 56764544 56219888 55728608 55296404 
1120.934 54927076 54621828 54380588 54200292 54074368 53990804 53929200 
1124.309 53862804 53759064 53583976 53311132 52926124 52431788 51847880 
1127.684 51209276 50559028 49937668 49381196 48913460 48544260 48271860 
1131.059 48084940 47965588 47890920 47837020 47781536 47705680 47598524 
1134.435 47458680 47295016 47124060 46967092 46845836 46776344 46768040 
1137.810 46821732 46930580 47080888 47254008 47429484 47584068 47695252 
1141.185 47744548 47716960 47604768 47406828 47128308 46778520 46368800 
1144.560 45911996 45420648 44907112 44384492 43864404 43357168 42870528 
1147.936 42407340 41966576 41543544 41133016 40730188 40333624 39944944 
1151.311 39568584 39209960 38873484 38562680 38279716 38026264 37804152 
1154.686 37615720 37462948 37346764 37266936 37221268 37207332 37222708 
1158.061 37266360 37338024 37438240 37567052 37723440 37905812 38112060 
1161.437 38340516 38589588 38857540 39140412 39432284 39723556 40002344 
1164.812 40257172 40476612 40652100 40777972 40850264 40866680 40826568 
1168.187 40731280 40584864 40394856 40172476 39930156 39681040 39437364 
1171.562 39208184 39001232 38823732 38682376 38585824 38543492 38564240 
1174.938 38656408 38826668 39079972 39421472 39857476 40395400 41044252 
1178.313 41813472 42710852 43744008 44919124 46243396 47726724 49380860 
1181.688 51219308 53255952 55501928 57965176 60649536 63553712 66668048 
1185.063 69970552 73424448 76968384 80516344 83966552 87195360 90076528 
1188.438 92495712 94348744 95561272 96092536 95937088 95127128 93728072 
1191.814 91836216 89559864 87014968 84317616 81565344 78841288 76208448 
1195.189 73704544 71348944 69143256 67077464 65134920 63298188 61553556 
1198.564 59891932 58310760 56811636 55399228 54078572 52852768 51723084 
1201.939 50688628 49747020 48895996 48134504 47462560 46880416 46387568 
1205.315 45980796 45653020 45395008 45195168 45042272 44927760 44845020 
1208.690 44789216 44756668 44742528 44741428 44748588 44761188 44780512 
1212.065 44812728 44868972 44962560 45107704 45318316 45605248 45977152 
1215.440 46440108 46997664 47650544 48396704 49231088 50147480 51139008 
1218.816 52201068 53331136 54529816 55798684 57140308 58557072 60051548 
1222.191 61628392 63295504 65063244 66944772 68951792 71091480 73363952 
1225.566 75759720 78259720 80833616 83443088 86040136 88565984 90959504 
1228.941 93155968 95093552 96723760 98011504 98940112 99513440 99757256 
1232.317 99721864 99477816 99124736 98781888 98575288 98642440 99109544 
1235.692 100082064 101647968 103866544 106771864 110376392 114672336 
1238.585 119631592 125199152 131297992 137819088 144619744 151544528 
1241.478 158416848 165050432 171270736 176900368 181773488 185751200 
1244.371 188718672 190603104 191377840 191060368 189705392 187393152 
1247.264 184230112 180336848 175842592 170886288 165591840 160056272 
1250.157 154339888 148456464 142382464 136072464 129488648 122618360 
1253.050 115494360 108193968 100838784 93578888 86561448 79930136 73798544 
1256.426 68236416 63275992 58908284 55094696 51774000 48876116 46331496 
1259.801 44070972 42036216 40179892 38463692 36862412 35359988 33947148 
1263.176 32618816 31371072 30199674 29099912 28067426 27099386 26194836 
1266.551 25354232 24577518 23863166 23207518 22605592 22053338 21548894 
1269.927 21093866 20692064 20349068 20069286 19855372 19709066 19631752 
1273.302 19625928 19695128 19842574 20068732 20369138 20733662 21146078 
1276.677 21584828 22026880 22445794 22814582 23108228 23304242 23387456 
1280.052 23353680 23211676 22981500 22689406 22363528 22025208 21685338 
1283.427 21345488 21000448 20644526 20276642 19902822 19535390 19189984 
1286.803 18880008 18614970 18399834 18235806 18123346 18063584 18057402 
1290.178 18104724 18202808 18345776 18526026 18736244 18971066 19227248 
1293.553 19502084 19791142 20086394 20376848 20651302 20901592 21126424 
1296.928 21331916 21531310 21740478 21975922 22252678 22583220 22977448 
1300.304 23443162 23982518 24588668 25241596 25908732 26542904 27091026 
1303.679 27504550 27742858 27782630 27619998 27268314 26754536 26113968 
1307.054 25389536 24623734 23857846 23130068 22468788 21892698 21409044 
1310.429 21015228 20702558 20460336 20280806 20159240 20093370 20080910 
1313.805 20117768 20197666 20313686 20460266 20635040 20837798 21068578 
1317.180 21324434 21597990 21877714 22151828 22412126 22656732 22890542 
1320.555 23122032 23359588 23607350 23864078 24124424 24382366 24633728 
1323.930 24878606 25121338 25370004 25635612 25930786 26271040 26673246 
1327.306 27152256 27717606 28367088 29084534 29837344 30584386 31284180 
1330.681 31901896 32419734 32837364 33170484 33442266 33678736 33903080 
1334.056 34131984 34378156 34651020 34958100 35305716 35698288 36138096 
1337.431 36626296 37164740 37757524 38411348 39134100 39929904 40798028 
1340.807 41730260 42712608 43727408 44756892 45783336 46786600 47745736 
1344.182 48636456 49433620 50117172 50674404 51102592 51407056 51595268 
1347.557 51670160 51625192 51440960 51089248 50542764 49780760 48800184 
1350.932 47618156 46273768 44821800 43324216 41848748 40457152 39202272 
1354.308 38128372 37263360 36618580 36186492 35943188 35852204 35872104 
1357.683 35966476 36107380 36276896 36466876 36674460 36899888 37147020 
1361.058 37425780 37754956 38160280 38673248 39319132 40107788 41029652 
1364.433 42055856 43145160 44246776 45310156 46284272 47114532 47750616 
1367.809 48145868 48263528 48085420 47613388 46869932 45890524 44721188 
1371.184 43412604 42013516 40578172 39165720 37837516 36660940 35695120 
1374.559 34978496 34522496 34309880 34306432 34473488 34784716 35232944 
1377.934 35831872 36611480 37613768 38890584 40495704 42485452 44907772 
1381.310 47781316 51069388 54649856 58321176 61790716 64718440 66786856 
1384.685 67710768 67305240 65520852 62477904 58472108 53918656 49299160 
1388.060 45017572 41331036 38345944 36035844 34302456 33018726 32069102 
1391.435 31356968 30806818 30368072 30005282 29697038 29435778 29222198 
1394.811 29062074 28960338 28917448 28928498 28986018 29081878 29209404 
1398.186 29365046 29546172 29751502 29979898 30230508 30502768 30796504 
1401.561 31111332 31446372 31800136 32171744 32561530 32973078 33411920 
1404.936 33883556 34391820 34936404 35513388 36117536 36745524 37397284 
1408.312 38076464 38788116 39536104 40321516 41143032 41998476 42885636 
1411.687 43800848 44735292 45667632 46563356 47376304 48056552 48569236 
1415.062 48903596 49082004 49153352 49187596 49263084 49448656 49800156 
1418.437 50347124 51086268 51982344 52977816 54010840 55024888 55980584 
1421.813 56860128 57667620 58433708 59212540 60076056 61090192 62296016 
1425.188 63696644 65259932 66934340 68664904 70412472 72151384 73866640 
1428.563 75548608 77185928 78767800 80289264 81760808 83212072 84684096 
1431.938 86224536 87872672 89653776 91583176 93676392 95962664 98491184 
1435.313 101328056 104533328 108133320 112086544 116294560 120637352 
1438.207 125008328 129324112 133503408 137453040 141030816 144047968 
1441.100 146310400 147625856 147852832 146926064 144853584 141717360 
1443.993 137653824 132855848 127542912 121932992 116250392 110694144 
1446.886 105440864 100655984 96465952 92943240 90086720 87827000 86050560 
1450.261 84638640 83510592 82637920 82043568 81774328 81872136 82343808 
1453.636 83157736 84247056 85530952 86938984 88409472 89904096 91406752 
1457.011 92928792 94497776 96145744 97914136 99836016 101937264 104235720 
1460.387 106732888 109408760 112210944 115062984 117847024 120401112 
1463.280 122550344 124117264 124984016 125141832 124708496 123890984 
1466.173 122901808 121921760 121062312 120372568 119866184 119531616 
1469.066 119338280 119226080 119098872 118820344 118215272 117121928 
1471.959 115448152 113228240 110625064 107871328 105183872 102698080 
1474.852 100481344 98563104 96965392 95725432 94884080 94462064 94447240 
1478.227 94789152 95416624 96253672 97243848 98362888 99616328 101032920 
1481.603 102648800 104498896 106609376 109004248 111715480 114787456 
1484.496 118272872 122213968 126619888 131429848 136482592 141528128 
1487.389 146207632 150086928 152730672 153727056 152791856 149856480 
1490.282 145106464 138961120 131946088 124587576 117275688 110227232 
1493.175 103539872 97215872 91230776 85593056 80356880 75630552 71549864 
1496.550 68226144 65708300 63969456 62935516 62511960 62611460 63168100 
1499.925 64127392 65438368 67049428 68897736 70912504 73022456 75137008 
1503.301 77149600 78928784 80282056 80962912 80685648 79193520 76400104 
1506.676 72497752 67929152 63178876 58587632 54293508 50293216 46536436 
1510.051 42988012 39643324 36536212 33714900 31213750 29046272 27198110 
1513.426 25636700 24323594 23223070 22304542 21538064 20894986 20351046 
1516.802 19889814 19508878 19216926 19024686 18934378 18934724 18999312 
1520.177 19098116 19208372 19330122 19487252 19715860 20041978 20466344 
1523.552 20969742 21523962 22107828 22713496 23351546 24043588 24813242 
1526.927 25672448 26617196 27631686 28698140 29804836 30950080 32142274 
1530.302 33395066 34722044 36134928 37639856 39235820 40913788 42653164 
1533.678 44423908 46190732 47922668 49595900 51195820 52705800 54107544 
1537.053 55382704 56505884 57454108 58207240 58751816 59076764 59174108 
1540.428 59047156 58714072 58210800 57581696 56861788 56064648 55179268 
1543.803 54181332 53052500 51801620 50469664 49120996 47814716 46577520 
1547.179 45399236 44239480 43051816 41808108 40519532 39234224 38023480 
1550.554 36944404 36016584 35221192 34516360 33861276 33234720 32643788 
1553.929 32116584 31682682 31351696 31103998 30891020 30649700 30305148 
1557.304 29779888 29010280 27971860 26717784 25380788 24117486 23032404 
1560.680 22150120 21439364 20846350 20317506 19806054 19278752 18720570 
1564.055 18138822 17559920 17020344 16552275 16168062 15857795 15594252 
1567.430 15346693 15090732 14817471 14536432 14270129 14043273 13870585 
1570.805 13753980 13685928 13657068 13659633 13687876 13735581 13791944 
1574.181 13841918 13870140 13867300 13839968 13810962 13812945 13869387 
1577.556 13985544 14150233 14345533 14556133 14775406 15006553 15259377 
1580.931 15544832 15869824 16234236 16631519 17052670 17486750 17922436 
1584.306 18346638 18741190 19083402 19351082 19525964 19602216 19589982 
1587.682 19516814 19421414 19348310 19341866 19436694 19658064 20020638 
1591.057 20526888 21165732 21906672 22701592 23480164 24158714 24659328 
1594.432 24914818 24888326 24579658 24025132 23288580 22443424 21566060 
1597.807 20719378 19949514 19291740 18768384 18392232 18168222 18093256 
1601.183 18157960 18350130 18659276 19076788 19595320 20205752 20891266 
1604.558 21624980 22372948 23092642 23738984 24271208 24650772 24848572 
1607.933 24846994 24639410 24232038 23641988 22898748 22041346 21116510 
1611.308 20177776 19272308 18435614 17687282 17027892 16444894 15918560 
1614.684 15429151 14961659 14509709 14079449 13686782 13352929 13095784 
1618.059 12924735 12838347 12826130 12871043 12952760 13052008 13152269 
1621.434 13245824 13335811 13435659 13563596 13733597 13950436 14207780 
1624.809 14494156 14798786 15116736 15448172 15794670 16155167 16522707 
1628.185 16886048 17234248 17561506 17870128 18168016 18464654 18764680 
1631.560 19066264 19359050 19628528 19860402 20042046 20166392 20232656 
1634.935 20247166 20221236 20170174 20109124 20048640 19993402 19941328 
1638.310 19885064 19812852 19712150 19573654 19395046 19183714 18953762 
1641.686 18722716 18503310 18298010 18099060 17890186 17652186 17368412 
1645.061 17032302 16650248 16243728 15844153 15483640 15187415 14967626 
1648.436 14823607 14746097 14721109 14729164 14744897 14736705 14664728 
1651.811 14490318 14197612 13819034 13438359 13142501 12974642 12919682 
1655.187 12935146 12976281 13012162 13026912 13015986 12982461 12931596 
1658.562 12867664 12791355 12699979 12589624 12457303 12302082 12126097 
1661.937 11933257 11729473 11522348 11320322 11132360 10965650 10823597 
1665.312 10704446 10600640 10499778 10386315 10245334 10066451 9847203 
1668.688 9595038 9324907 9055689 8803341 8578072 8383287 8217291 8074514 
1672.545 7945451 7818146 7678367 7513079 7317153 7098010 6876822 6679737 
1676.402 6527004 6423990 6362321 6324799 6294138 6259984 6220219 6181534 
1680.260 6154009 6144733 6152295 6165670 6166612 6136802 6066707 5965078 
1684.117 5858940 5783718 5762531 5796041 5869250 5963130 6063716 6163822 
1687.975 6261766 6358622 6455769 6553341 6651138 6750066 6853360 6965263 
1691.832 7088748 7223116 7361771 7492650 7601683 7676816 7715433 7728452 
1695.689 7739549 7774191 7844057 7942515 8046902 8129438 8161342 8123091 
1699.547 8013589 7857620 7699784 7580407 7517360 7500639 7507044 7510348 
1703.404 7490458 7434806 7338518 7205025 7045506 6875442 6709011 6555763 
1707.262 6419315 6297668 6185768 6077627 5968572 5856757 5743056 5630561 
1711.119 5523329 5424277 5333533 5249213 5168094 5087259 5005669 4924529 
1714.977 4845615 4769061 4692856 4612377 4523844 4428568 4335153 4257250 
1718.834 4207129 4190602 4205055 4241624 4288938 4336291 4378026 4412769 
1722.691 4443330 4474764 4511188 4554346 4603034 4654942 4707694 4760452 
1726.549 4812513 4862469 4906801 4940414 4957975 4956802 4938805 4909314 
1730.406 4875202 4839953 4800385 4744942 4656851 4520128 4330200 4103326 
1734.264 3873127 3679505 3546697 3474847 3447660 3442116 3438743 3423815 
1738.121 3391789 3344372 3288948 3234699 3189069 3155959 3136067 3127790 
1741.979 3129426 3140005 3157561 3180223 3205558 3231428 3256765 3281937 
1745.836 3307878 3335123 3362436 3386746 3403710 3409755 3402508 3381971 
1749.693 3350349 3310883 3266747 3221080 3176852 3137169 3104530 3080102 
1753.551 3062617 3047635 3028282 2997153 2948245 2881263 2801553 2720024 
1757.408 2648244 2592575 2552612 2521416 2488657 2444338 2383531 2306944 
1761.266 2221777 2138126 2064977 2007619 1966344 1938220 1919349 1907002 
1765.123 1898582 1891993 1884638 1874023 1858516 1839449 1820782 1807507 
1768.980 1803081 1806841 1813296 1813662 1799288 1765419 1715785 1661898 
1772.838 1618295 1595681 1596978 1616799 1646732 1678363 1707602 1734314 
1776.695 1761161 1790272 1821880 1852460 1876985 1891461 1895021 1891061 
1780.553 1885903 1885903 1893790 1908133 1924241 1936788 1942446 1941947 
1784.410 1938319 1936555 1940483 1950601 1965578 1983319 2002193 2022199 
1788.268 2044103 2067773 2090945 2108758 2115018 2103597 2072401 2023863 
1792.125 1965545 1906636 1854456 1812531 1780058 1754308 1732384 1713489 
1795.982 1697489 1684350 1673540 1662298 1647763 1627641 1601933 1572868 
1799.840 1545035 1522623 1508060 1501743 1501443 1504868 1510587 1518933 
1803.697 1530637 1546365 1565286 1585338 1603496 1617996 1628073 1635224 
1807.555 1641776 1649126 1657375 1665723 1672210 1675968 1678429 1681856 
1811.412 1689273 1702213 1720043 1739637 1758100 1773969 1788009 1803647 
1815.270 1825208 1855920 1896752 1945242 1996767 2047233 2093476 2134929 
1819.127 2173289 2210454 2247888 2285792 2323233 2358611 2390628 2417882 
1822.984 2438873 2452368 2457700 2455334 2448570 2443172 2444405 2456934 
1826.842 2481159 2512718 2544379 2567943 2577943 2574443 2564277 2557778 
1830.699 2565444 2592842 2638910 2697252 2760403 2822163 2879829 2934300 
1834.557 2988378 3044965 3105331 3168842 3234465 3302669 3375326 3456778 
1838.414 3551407 3661928 3788154 3927488 4075497 4228073 4382678 4537773 
1842.271 4692856 4847793 5001981 5155319 5308745 5464506 5624922 5790803 
1846.129 5959502 6125108 6278910 6411480 6515635 6587822 6628831 6641616 
1849.986 6629941 6596030 6539416 6457720 6350250 6217766 6065531 5900687 
1853.844 5730231 5559037 5388413 5217085 5043545 4868366 4694229 4526255 
1857.701 4369022 4224426 4091217 3966141 3845681 3728328 3615718 3510987 
1861.559 3417269 3335190 3262674 3195544 3130694 3066988 3006661 2953215 
1865.416 2909983 2877094 2852112 2829900 2806455 2780844 2756102 2738196 
1869.273 2732461 2740830 2760370 2785480 2809991 2829700 2843608 2852846 
1873.131 2857916 2858850 2853813 2839572 2814659 2779811 2737929 2693351 
1876.988 2649511 2606742 2562477 2513385 2456767 2393193 2326331 2260678 
1880.846 2200396 2146283 2095040 2042139 1984085 1920713 1856286 1797226 
1884.703 1749816 1716749 1696358 1683286 1671212 1655911 1636388 1614171 
1888.561 1592388 1573001 1557072 1544004 1534560 1530670 1535558 1552882 
1892.418 1583576 1625246 1671943 1716683 1754241 1782986 1805510 1826738 
1896.275 1850995 1879414 1909198 1936123 1956392 1969373 1978193 1987746 
1900.133 2002725 2024895 2052093 2079393 2102998 2120278 2132332 2142454 
1903.990 2153742 2167928 2184112 2200030 2213318 2223842 2232767 2242293 
1907.848 2253583 2265807 2275799 2280463 2278064 2269604 2258446 2248821 
1911.705 2243225 2242026 2242926 2242659 2240494 2236797 2234133 2233833 
1915.563 2235365 2234499 2225341 2202828 2165797 2119146 2071236 2029855 
1919.420 1999230 1977494 1957424 1931397 1894522 1847136 1795828 1750049 
1923.277 1716949 1699951 1697057 1702479 1710762 1719677 1729424 1742830 
1927.135 1761094 1782054 1801518 1814194 1816723 1809303 1795961 1781755 
1930.992 1770709 1763623 1758400 1751846 1742863 1733016 1725831 1724700 
1934.850 1729856 1737707 1742531 1739237 1726396 1708067 1691834 1684550 
1938.707 1689173 1702479 1716849 1724334 1720542 1706570 1689572 1678396 
1942.564 1678463 1689706 1706836 1723336 1735778 1746090 1760263 1784749 
1946.422 1823111 1872492 1925173 1973201 2011247 2040009 2065510 2093609 
1950.279 2127570 2164831 2197466 2216515 2217681 2201695 2175687 2148648 
1954.137 2127037 2111255 2098137 2081057 2056854 2026893 1998098 1977627 
1957.994 1970771 1976562 1988179 1998664 2002492 2000029 1997300 2000162 
1961.852 2011546 2029689 2048664 2061248 2066209 2066142 2067607 2076929 
1965.709 2096572 2120944 2142154 2151944 2147882 2134429 2121444 2116083 
1969.566 2121144 2132665 2141489 2140623 2129502 2113786 2105528 2114185 
1973.424 2141855 2182713 2227006 2266673 2301947 2344053 2407520 2504620 
1977.281 2634843 2782378 2920790 3025713 3080536 3082805 3042563 2974633 
1981.139 2892471 2803221 2708521 2607809 2504053 2404988 2321900 2264875 
1984.996 2237897 2236298 2249254 2264741 2274833 2279130 2284260 2297350 
1988.854 2322800 2358245 2395226 2423879 2437974 2438173 2431210 2426911 
1992.711 2432576 2450036 2476794 2506786 2535347 2561544 2586909 2613609 
1996.568 2641710 2667613 2685249 2690284 2681215 2662012 2639410 2620109 
2000.426 2606409 2596275 2583542 2562577 2531515 2493656 2455134 2423513 
2004.283 2402156 2389628 2382165 2374769 2366540 2361143 2364175 2379300 
2008.141 2406087 2438140 2465631 2481792 2483792 2474495 2461099 2450769 
2011.998 2445038 2443905 2443572 2442005 2441072 2446404 2461998 2489790 
2015.855 2525915 2561877 2590409 2609742 2626276 2653545 2705487 2787514 
2019.713 2894639 3011833 3118379 3197513 3243612 3261272 3265144 3269384 
2023.570 3282571 3305574 3331984 3353721 3365375 3368480 3367078 3365809 
2027.428 3365542 3362436 3349414 3322201 3282137 3236401 3196312 3172814 
2031.285 3171112 3192106 3232462 3288113 3358129 3443986 3546530 3662162 
2035.143 3782204 3893420 3983764 4047236 4086234 4110718 4133096 4161965 
2039.000 4199200 4239717 4274382 4295598 4301922 4297204 4289674 4286127 
2042.857 4288905 4294928 4298877 4295530 4284119 4269664 4260161 4263306 
2046.715 4284153 4321599 4370763 4424417 4474831 4513733 4535496 4534324 
2050.572 4507204 4455582 4386092 4310991 4246275 4207564 4204319 4237308 
2054.430 4296668 4365709 4428333 4472688 4495654 4502651 4503254 4504560 
2058.287 4511323 4521835 4532214 4539413 4543699 4547281 4554581 4568376 
2062.145 4585922 4602666 4612477 4611104 4598982 4580565 4560675 4543833 
2066.002 4531143 4519692 4506267 4489226 4469809 4452201 4440753 4436501 
2069.859 4437639 4439078 4435296 4423379 4405371 4385556 4370194 4361994 
2073.717 4359751 4358112 4351217 4334918 4309886 4281242 4256414 4241490 
2077.574 4239449 4249052 4266151 4286964 4308882 4331237 4354430 4377925 
2081.432 4399045 4414074 4419798 4415212 4403329 4389707 4380301 4379063 
2085.289 4386828 4400150 4413973 4424082 4427597 4424618 4416249 4403229 
2089.146 4384686 4359283 4325247 4283350 4236839 4191472 4153066 4126573 
2093.004 4113528 4113059 4123128 4141158 4165143 4194750 4228040 4262069 
2096.861 4293121 4317048 4331873 4339135 4343888 4351920 4368554 4395731 
2100.719 4430844 4469508 4506937 4540384 4571222 4603034 4639503 4682975 
2104.576 4732916 4786850 4842265 4898256 4954992 5014584 5077839 5142712 
2108.434 5205516 5261755 5307873 5344803 5376538 5408677 5445985 5490377 
2112.291 5538934 5586289 5627574 5660033 5684774 5705421 5725363 5746515 
2116.148 5768037 5786975 5800742 5810078 5818003 5830361 5852659 5887286 
2120.006 5933066 5985704 6040063 6092445 6142684 6192457 6244017 6298542 
2123.863 6354520 6408050 6456072 6497271 6532890 6566561 6601883 6639597 
2127.721 6678189 6713251 6740677 6758412 6767600 6771773 6775206 6781230 
2131.578 6790620 6802635 6817007 6835284 6861573 6900892 6955971 7025267 
2135.436 7103331 7180433 7248720 7304383 7348965 7387654 7426649 7468783 
2139.293 7512135 7551074 7578350 7588702 7581520 7559773 7528216 7490964 
2143.150 7450210 7405280 7356345 7303574 7249226 7197276 7149779 7105824 
2147.008 7062311 7014357 6958799 6896987 6834476 6777057 6730682 6694408 
2150.865 6662678 6626711 6578806 6514660 6435995 6348199 6255480 6160024 
2154.723 6060121 5952952 5840939 5735536 5655233 5624653 5664800 5780964 
2158.580 5960107 6173804 6385959 6565619 6695754 6772446 6804621 6805497 
2162.438 6787423 6759691 6728899 6697672 6668768 6643029 6618570 6590345 
2166.295 6552231 6497944 6425234 6337575 6243177 6152496 6074401 6012849 
2170.152 5964608 5923023 5880132 5830260 5772805 5711732 5651977 5599312 
2174.010 5556788 5524806 5502658 5488330 5479337 5472257 5462191 5442126 
2177.867 5405657 5349634 5275707 5192874 5113912 5051490 5014785 5006104 
2181.725 5019244 5044115 5070531 5091886 5105396 5112839 5116058 5116024 
2185.582 5112135 5103050 5088332 5071067 5055245 5044551 5041367 5043545 
2189.439 5045758 5043881 5035668 5022260 5009121 5002049 5002886 5011232 
2193.297 5021925 5028562 5028897 5024104 5018037 5017735 5026785 5043847 
2197.154 5064429 5081761 5090075 5088634 5081326 5072609 5068184 5069525 
2201.012 5073883 5077269 5076263 5068888 5057658 5046361 5038316 5034797 
2204.869 5035467 5037177 5038718 5040495 5042741 5047434 5053937 5059502 
2208.727 5059669 5052328 5036037 5014718 4994407 4981301 4978955 4987468 
2212.584 5002886 5020215 5035936 5049211 5061580 5075459 5092020 5109285 
2216.441 5124473 5135269 5141271 5146099 5155252 5172621 5199514 5232042 
2220.299 5262963 5285031 5293115 5287044 5270845 5251124 5232277 5216046 
2224.156 5200989 5183887 5162427 5137046 5110325 5085482 5065033 5047601 
2228.014 5029903 5008652 4981837 4950434 4918932 4891688 4872320 4861095 
2231.871 4855667 4852450 4849334 4846419 4846285 4852317 4866557 4888471 
2235.729 4916117 4946211 4976810 5008283 5042205 5079381 5119276 5158203 
2239.586 5189957 5210378 5216549 5209507 5194484 5177349 5163031 5154749 
2243.443 5152972 5156962 5166921 5184290 5210144 5245121 5286910 5329809 
2247.301 5366708 5391533 5401061 5397337 5386736 5375934 5371640 5376605 
2251.158 5389654 5407703 5427330 5446622 5465815 5486383 5509302 5534001 
2255.016 5558768 5579677 5594042 5599815 5596291 5583604 5561856 5531115 
2258.873 5491853 5446253 5398276 5353525 5317969 5295731 5287413 5290264 
2262.730 5299420 5309852 5319512 5329306 5342254 5362213 5391164 5427766 
2266.588 5468029 5506450 5538733 5562762 5579341 5589847 5596257 5599211 
2270.445 5597902 5591491 5580483 5566286 5551955 5541116 5535310 5534874 
2274.303 5538498 5544035 5550412 5558634 5570213 5587430 5611428 5640967 
2278.160 5672856 5703507 5729391 5748865 5762262 5771126 5777842 5784456 
2282.018 5792549 5802824 5816357 5833887 5854943 5879427 5905456 5929875 
2285.875 5950600 5965314 5973107 5975022 5972233 5966422 5958730 5949727 
2289.732 5939314 5928733 5919395 5913383 5912711 5918421 5929707 5944823 
2293.590 5961383 5977474 5992793 6008213 6025146 6044195 6065161 6085926 
2297.447 6104139 6117816 6126217 6130182 6131358 6131224 6130518 6128905 
2301.305 6125377 6119160 6110994 6102358 6095402 6091605 6090933 6092042 
2305.162 6092680 6090866 6085859 6078635 6071478 6067043 6067312 6072654 
2309.020 6082835 6096679 6112977 6131056 6150177 6169704 6188289 6204623 
2312.877 6217329 6226169 6232084 6237093 6242942 6250774 6260186 6269329 
2316.734 6275649 6277363 6273901 6266405 6257329 6248892 6243143 6241194 
2320.592 6243379 6249564 6259480 6271851 6284356 6293029 6292256 6276355 
2324.449 6241463 6186945 6116001 6035292 5953086 5877277 5813335 5763236 
2328.307 5725967 5699310 5680712 5668727 5663524 5665505 5674602 5689608 
2332.164 5708811 5729862 5751652 5774047 5797754 5823812 5852458 5882583 
2336.021 5912442 5940389 5965481 5988694 6011774 6036132 6062877 6091639 
2339.879 6120739 6148800 6174745 6198507 6220925 6242539 6263077 6281902 
2343.736 6298341 6312561 6327152 6346518 6376073 6420492 6482472 6560574 
2347.594 6651541 6749629 6848816 6943177 7027894 7099222 7154697 7193234 
2351.451 7215569 7224665 7224497 7220555 7217759 7219174 7226248 7238175 
2355.309 7253943 7272103 7293196 7318468 7350448 7390282 7438143 7492009 
2359.166 7548984 7606303 7662180 7716445 7770109 7824185 7879617 7936103 
2363.023 7993069 8049907 8106583 8163875 8222491 8282297 8342416 8401124 
2366.881 8456393 8506737 8551950 8592502 8629207 8662196 8691030 8714659 
2370.738 8732745 8746336 8758405 8773113 8794955 8827517 8871783 8927450 
2374.596 8992765 9066008 9146267 9233852 9329883 9435079 9549954 9673634 
2378.453 9804601 9941744 10083983 10230781 10382310 10537764 10695752 
2381.828 10854001 11009487 11159183 11301481 11434981 11559539 11675419 
2385.204 11782717 11880847 11969019 12046341 12111583 12164294 12204300 
2388.579 12231222 12245366 12247241 12237323 12217386 12189169 12154719 
2391.954 12115910 12074276 12030228 11984243 11936697 11888474 11841244 
2395.329 11797084 11757830 11725082 11699688 11681920 11672322 11671641 
2398.705 11681444 11703603 11739549 11789628 11853265 11928761 12013605 
2402.080 12105824 12204232 12308388 12418501 12534952 12657437 12785623 
2405.455 12919204 13058051 13202853 13354740 13515123 13685073 13865556 
2408.830 14056928 14259103 14471820 14694545 14925787 15163294 15403369 
2412.206 15641445 15872195 16090930 16293917 16478412 16643122 16787400 
2415.581 16910816 17013524 17095608 17158168 17202842 17231764 17246864 
2418.956 17250036 17242004 17223008 17193534 17154582 17108326 17058320 
2422.331 17008320 16961736 16921702 16889354 16865036 16849328 16842542 
2425.707 16845884 16861178 16890492 16935276 16996776 17075930 17173230 
2429.082 17289720 17425904 17581966 17757380 17950442 18158376 18378646 
2432.457 18609334 18848934 19098186 19358184 19629742 19913678 20210058 
2435.832 20517718 20835990 21164098 21501890 21849768 22208110 22577286 
2439.208 22957956 23351056 23757988 24180468 24620018 25076896 25549998 
2442.583 26036950 26534628 27039892 27551150 28068486 28592810 29125564 
2445.958 29667662 30218218 30775802 31337950 31902182 32467182 33031776 
2449.333 33594960 34155356 34710632 35258024 35794380 36317564 36826164 
2452.708 37319180 37795912 38254928 38693460 39107708 39493100 39844840 
2456.084 40158704 40430712 40656940 40833916 40958388 41026736 41036644 
2459.459 40986060 40874104 40701040 40467484 40175348 39827588 39428148 
2462.834 38982824 38498884 37984456 37448248 36898624 36342964 35788048 
2466.209 35239988 34705104 34190272 33703016 33251320 32842190 32482040 
2469.585 32174602 31921476 31722888 31576696 31480140 31429880 31421438 
2472.960 31449434 31508430 31592056 31694050 31809478 31933814 32063250 
2476.335 32195154 32326310 32453510 32574174 32685366 32784764 32870564 
2479.710 32941264 32995060 33029988 33044148 33035244 33002928 32948126 
2483.086 32872706 32780546 32675650 32561350 32440726 32316032 32188266 
2486.461 32059006 31929642 31801026 31673878 31547692 31420902 31291048 
2489.836 31155506 31011856 30859002 30696708 30525410 30346184 30159540 
2493.211 29965234 29762466 29550144 29326866 29091088 28842018 28578762 
2496.587 28301056 28009216 27704396 27388356 27063732 26733640 26400630 
2499.962 26066890 25734146 25402850 25073630 24747048 24423722 24104492 
2503.337 23790572 23482368 23180010 22883766 22593726 22310610 22036500 
2506.712 21773642 21524762 21291966 21075778 20875586 20689110 20513654 
2510.088 20345838 20183260 20023970 19867026 19712464 19560900 19413236 
2513.463 19271096 19135686 19008034 18889318 18779626 18678716 18587164 
2516.838 18504970 18432814 18371976 18323136 18286466 18261586 18247210 
2520.213 18241612 18243892 18253188 18269188 18292238 18321926 18356626 
2523.589 18395134 18435408 18475960 18516830 18558844 18603142 18651252 
2526.964 18703034 18756550 18808864 18855820 18893746 18919738 18932508 
2530.339 18931608 18918076 18893714 18860180 18819936 18775302 18728080 
2533.714 18679858 18631156 18581840 18531696 18480628 18429600 18380616 
2537.090 18336062 18298840 18270294 18250976 18239504 18233734 18231556 
2540.465 18231556 18233492 18237778 18244792 18254466 18266010 18278000 
2543.840 18288990 18298252 18305890 18312318 18318194 18323758 18328526 
2547.215 18331568 18332502 18331016 18328078 18325106 18322996 18322204 
2550.591 18322342 18321926 18319852 18315946 18310728 18305682 18302710 
2553.966 18302744 18305786 18310970 18316742 18321408 18324414 18325486 
2557.341 18324932 18322928 18319022 18311628 18299012 18278864 18249282 
2560.716 18209234 18158550 18097540 18028044 17951788 17871198 17788724 
2564.092 17706712 17626788 17550122 17477124 17407830 17342582 17282136 
2567.467 17227696 17180882 17143414 17115392 17096746 17086304 17082098 
2570.842 17083270 17089094 17099780 17116012 17138176 17165784 17198084 
2574.217 17233558 17271412 17311202 17353790 17399380 17448772 17501444 
2577.593 17556194 17611052 17664610 17715824 17764974 17813300 17862496 
2580.968 17914356 17970470 18031670 18098508 18171746 18251080 18336512 
2584.343 18427112 18521254 18617150 18712788 18807064 18899492 18990866 
2587.718 19082018 19173742 19266212 19358946 19450624 19540520 19628182 
2591.094 19713780 19798424 19883052 19968422 20054886 20142340 20230122 
2594.469 20317712 20404456 20489894 20573162 20653838 20731506 20806442 
2597.844 20879862 20953086 21028304 21107536 21191618 21281072 21375562 
2601.219 21474734 21578316 21686904 21801442 21922770 22051908 22188442 
2604.594 22331470 22480026 22632678 22788390 22947266 23108718 23272500 
2607.970 23438232 23605498 23773770 23943408 24114578 24287502 24462106 
2611.345 24637200 24810224 24978512 25138788 25288410 25426072 25551580 
2614.720 25665208 25768038 25861114 25944748 26019924 26087122 26147186 
2618.095 26201066 26249568 26292968 26331482 26364928 26393340 26417144 
2621.471 26437250 26454646 26470494 26485390 26499760 26513814 26527900 
2624.846 26542694 26559566 26579994 26605112 26635338 26670604 26709784 
2628.221 26752140 26797072 26844970 26896576 26953050 27014998 27082068 
2631.596 27153278 27227072 27301620 27375828 27448778 27519976 27589456 
2634.972 27657288 27723502 27788530 27853000 27917514 27983310 28051484 
2638.347 28122252 28195822 28271596 28348766 28426728 28505410 28584458 
2641.722 28664302 28745328 28827644 28911356 28996856 29084676 29175172 
2645.097 29269158 29366852 29468116 29572630 29679796 29788938 29899952 
2648.473 30013164 30128888 30248058 30370632 30496618 30625414 30756490 
2651.848 30889242 31023740 31160170 31299240 31441704 31587992 31738714 
2655.223 31894586 32055654 32222308 32394816 32572850 32755784 32942836 
2658.598 33133150 33326048 33521220 33718768 33918164 34119584 34322176 
2661.974 34524900 34727104 34928148 35128244 35328536 35529860 35733112 
2665.349 35939152 36147424 36357372 36567752 36777872 36987300 37196144 
2668.724 37404908 37614492 37825732 38039536 38256376 38476800 38701176 
2672.099 38929360 39161080 39395640 39631964 39868956 40105824 40341624 
2675.475 40576024 40808548 41038684 41265772 41489516 41709832 41927384 
2678.850 42143800 42360872 42581088 42806720 43039524 43281060 43532652 
2682.225 43795132 44069464 44357040 44658612 44974796 45305816 45651548 
2685.600 46011556 46385356 46772688 47173256 47586652 48011880 48448120 
2688.976 48894216 49349160 49812012 50282760 50761616 51248612 51743952 
2692.351 52247664 52759224 53278428 53805792 54341684 54887260 55443536 
2695.726 56011044 56589860 57179352 57778048 58384204 58996404 59613200 
2699.101 60233528 60857344 61484192 62114736 62749492 63388856 64032732 
2702.477 64679796 65327896 65973424 66612536 67240944 67854576 68450648 
2705.852 69026248 69578624 70105648 70604224 71071464 71504816 71902328 
2709.227 72262504 72585272 72870736 73119056 73331312 73508272 73651184 
2712.602 73761832 73842056 73893160 73915744 73909104 73871240 73799760 
2715.978 73692288 73547248 73364776 73145800 72892560 72607832 72294440 
2719.353 71955624 71595112 71217520 70827856 70432856 70038832 69652520 
2722.728 69280544 68927952 68599544 68299464 68030592 67795272 67594336 
2726.103 67428248 67296184 67197200 67130096 67094476 67089988 67116824 
2729.479 67174880 67263152 67380104 67522800 67688496 67874368 68078416 
2732.854 68298960 68535176 68785968 69050024 69324936 69608568 69897848 
2736.229 70190152 70483512 70775832 71065528 71351248 71631520 71905024 
2739.604 72170904 72428424 72677272 72917488 73149448 73374152 73593128 
2742.979 73808800 74024216 74243400 74469696 74705992 74954024 75214056 
2746.355 75484704 75764496 76051032 76341712 76634120 76925344 77211024 
2749.730 77487232 77748984 77991864 78213224 78411584 78587856 78744408 
2753.105 78885152 79013832 79134280 79249544 79361352 79470504 79576360 
2756.480 79676624 79768856 79848776 79912776 79957224 79978568 79974472 
2759.856 79942608 79880472 79786304 79658072 79494224 79294608 79059984 
2763.231 78792624 78495656 78172960 77827976 77464496 77086248 76697096 
2766.606 76301344 75903856 75510088 75124792 74752824 74397768 74062528 
2769.981 73748992 73459056 73194000 72955000 72742928 72557944 72399296 
2773.357 72265480 72153888 72061296 71984400 71919488 71862672 71810168 
2776.732 71757912 71701040 71634728 71553656 71452280 71325160 71167512 
2780.107 70975272 70746624 70481296 70181696 69852504 69500696 69132888 
2783.482 68756848 68378816 68003808 67635144 67274944 66924096 66582560 
2786.858 66249632 65923520 65601812 65281108 64957992 64629032 64291992 
2790.233 63945920 63591496 63231260 62868340 62506600 62150100 61801948 
2793.608 61465220 61142256 60835044 60545192 60274032 60022332 59790280 
2796.983 59578460 59386268 59213032 59058468 58921564 58801324 58696664 
2800.359 58606024 58527612 58459748 58400616 58348312 58301432 58258960 
2803.734 58219400 58182804 58148556 58116320 58086628 58059432 58034704 
2807.109 58012208 57991152 57970328 57948324 57923488 57893616 57857084 
2810.484 57811848 57755796 57687560 57605604 57508876 57396924 57270036 
2813.860 57129012 56975148 56810388 56636780 56457164 56275140 56094960 
2817.235 55922356 55763496 55625252 55514916 55438340 55400884 55406116 
2820.610 55455960 55550764 55689548 55870424 56090512 56346128 56633268 
2823.985 56946436 57279904 57627700 57982404 58336980 58684112 59016448 
2827.361 59327048 59609852 59859188 60071224 60243392 60374960 60466960 
2830.736 60521884 60543784 60537120 60506800 60457592 60394076 60320324 
2834.111 60240420 60158172 60077232 60001712 59934760 59879760 59839792 
2837.486 59817392 59815796 59838728 59890564 59977480 60106608 60285948 
2840.862 60524892 60832416 61219044 61695380 62272876 62965356 63788668 
2844.237 64760208 65898872 67221992 68741168 70457560 72355688 74400752 
2847.612 76530216 78659768 80687832 82495712 83971824 85018776 85563392 
2850.987 85571176 85045648 84028144 82585624 80807672 78794848 76642184 
2854.363 74442712 72277408 70207048 68279688 66524588 64954296 63568628 
2857.738 62356524 61300120 60376980 59564208 58840176 58184660 57580672 
2861.113 57014100 56472940 55947908 55432280 54921172 54412696 53906728 
2864.488 53406068 52915156 52440572 51990524 51573140 51197048 50869856 
2867.864 50597448 50383772 50230348 50136024 50096796 50106052 50155104 
2871.239 50232392 50325916 50423552 50514324 50589928 50646144 50682336 
2874.614 50701512 50708888 50710788 50713240 50720692 50736704 50762920 
2877.989 50800164 50849108 50909644 50981736 51064912 51158280 51260988 
2881.365 51372296 51491660 51619220 51755596 51901272 52056224 52220236 
2884.740 52392236 52571148 52756008 52946036 53141204 53341852 53548100 
2888.115 53760264 53978608 54203028 54433316 54670000 54913728 55165760 
2891.490 55427612 55701716 55990612 56297956 56627948 56984704 57373064 
2894.865 57796520 58257552 58756444 59290964 59855688 60441864 61036920 
2898.241 61626064 62192308 62718628 63190216 63597136 63935400 64207972 
2901.616 64425068 64601584 64754212 64901232 65059164 65241872 65462216 
2904.991 65730772 66056744 66448940 66914892 67461032 68093456 68817640 
2908.366 69639336 70565368 71602960 72759656 74042136 75453712 76992832 
2911.742 78650784 80412344 82251816 84134344 86019016 87855312 89589096 
2915.117 91169216 92547160 93686712 94568008 95187112 95556360 95699536 
2918.492 95647784 95430408 95070752 94582880 93969360 93223264 92331664 
2921.867 91281672 90065232 88683944 87151136 85493264 83747392 81954040 
2925.243 80156824 78395552 76701280 75097768 73599648 72213120 70938216 
2928.618 69770904 68704016 67728928 66837400 66021756 65275832 64595588 
2931.993 63979128 63426160 62937856 62515632 62160348 61872052 61649092 
2935.368 61487248 61381096 61321832 61298592 61299588 61311184 61320040 
2938.744 61315728 61290164 61239076 61163156 61066512 60955664 60838704 
2942.119 60723948 60617648 60524204 60444532 60375608 60310880 60240152 
2945.494 60151664 60033972 59878240 59681052 59445608 59182428 58906308 
2948.869 58636588 58392236 58188336 58036068 57939884 57898044 57903724 
2952.245 57946204 58012964 58090224 58165604 58227928 58268088 58279760 
2955.620 58258652 58202656 58111512 57986228 57829412 57644692 57436788 
2958.995 57211408 56974204 56730748 56485692 56242324 56003012 55769708 
2962.370 55543984 55328128 55124980 54937380 54768352 54619908 54493152 
2965.746 54388024 54303720 54238660 54190872 54158136 54137608 54125972 
2969.121 54119856 54115804 54111260 54104916 54096884 54088476 54081500 
2972.496 54077896 54079512 54087276 54101916 54124208 54153896 54190228 
2975.871 54231112 54271696 54304360 54319080 54304472 54248420 54141324 
2979.247 53976884 53752692 53471648 53140752 52770676 52374144 51964756 
2982.622 51556012 51158652 50781320 50428876 50102632 49800712 49518836 
2985.997 49252800 48998208 48752660 48515580 48287416 48068024 47855036 
2989.372 47641968 47418284 47169380 46878280 46529760 46113016 45624568 
2992.748 45069324 44461492 43821592 43171360 42532852 41922384 41348672 
2996.123 40813536 40312284 39836704 39377100 38925304 38476112 38027024 
2999.498 37578364 37131680 36689168 36252980 35824532 35404992 34995304 
3002.873 34596188 34208340 33832476 33468678 33117018 32777258 32449044 
3006.249 32131926 31825558 31529486 31243372 30966770 30699304 30440426 
3009.624 30189978 29947522 29712614 29484996 29263950 29048858 28839046 
3012.999 28634076 28433590 28237862 28047172 27861760 27682184 27508540 
3016.374 27341424 27180790 27027164 26880430 26740442 26606662 26477820 
3019.750 26352500 26229470 26107354 25985272 25863296 25740930 25618564 
3023.125 25496304 25374464 25253888 25136610 25024980 24922854 24833696 
3026.500 24760834 24705832 24668728 24647300 24637270 24633238 24628784 
3029.875 24616546 24590562 24544734 24474514 24377984 24254706 24107050 
3033.250 23939240 23756974 23565860 23371442 23178228 22989082 22805956 
3036.626 22629886 22461008 22299554 22145518 21998298 21857712 21723268 
3040.001 21594404 21470800 21352240 21238552 21129518 21024932 20924470 
3043.376 20827682 20734080 20643380 20555304 20469922 20387126 20306986 
3046.751 20229808 20155770 20085458 20019182 19957252 19899494 19844966 
3050.127 19792182 19739438 19685280 19628494 19568768 19506522 19442274 
3053.502 19376580 19309440 19240582 19169760 19096870 19022886 18949294 
3056.877 18878140 18811632 18751190 18697568 18650284 18608398 18570704 
3060.252 18536366 18504728 18475752 18450100 18428356 18411208 18399732 
3063.628 18394442 18395618 18403016 18415392 18431086 18448060 18464032 
3067.003 18477586 18487958 18494976 18499126 18500820 18499748 18494770 
3070.378 18484502 18467388 18442564 18410552 18373010 18332708 18293172 
3073.753 18257508 18227996 18205814 18190612 18180626 18174130 18168326 
3077.129 18160620 18149530 18133640 18112566 18086728 18057056 18024728 
3080.504 17991124 17957244 17923852 17891500 17860082 17829286 17798492 
3083.879 17766976 17733772 17698912 17662882 17626960 17593284 17564198 
3087.254 17541532 17526386 17518452 17516244 17517864 17520970 17524282 
3090.630 17527248 17530422 17534216 17539496 17546672 17555228 17565198 
3094.005 17576308 17588834 17603532 17621094 17642006 17666300 17693046 
3097.380 17721346 17749960 17778366 17806294 17834048 17862324 17891570 
3100.755 17922194 17953896 17986426 18019306 18051876 18084032 18115262 
3104.131 18145698 18175616 18205640 18236636 18269602 18305060 18342836 
3107.506 18382240 18421716 18459642 18494908 18527030 18556630 18585194 
3110.881 18614452 18646064 18681414 18720814 18764542 18812428 18863744 
3114.256 18917628 18973040 19028184 19081014 19129592 19172702 19209792 
3117.632 19241760 19269952 19295688 19320388 19344152 19366706 19387632 
3121.007 19406654 19424256 19441754 19460776 19482366 19507526 19535772 
3124.382 19565960 19597122 19628114 19658550 19688644 19719016 19750222 
3127.757 19782854 19817118 19852598 19888878 19925474 19961588 19996594 
3131.133 20030006 20061376 20091184 20120300 20149800 20181386 20216478 
3134.508 20255776 20299276 20346430 20396120 20447276 20499100 20550650 
3137.883 20601546 20651302 20699604 20746242 20791358 20835712 20880212 
3141.258 20926138 20974228 21024652 21077240 21131014 21184936 21239110 
3144.634 21293218 21348482 21405564 21464880 21525876 21587788 21648870 
3148.009 21708048 21764792 21819560 21873740 21928940 21986692 22048074 
3151.384 22113544 22182932 22255362 22330180 22406230 22482292 22557392 
3154.759 22630446 22700718 22768174 22833264 22897036 22960646 23025660 
3158.135 23092642 23162046 23233664 23307284 23382072 23457886 23534344 
3161.510 23611688 23690450 23770902 23853506 23938820 24026604 24116436 
3164.885 24207724 24299486 24390426 24479984 24567770 24653786 24738524 
3168.260 24822292 24904500 24984618 25061170 25132714 25198476 25258382 
3171.635 25313348 25365016 25415320 25465700 25516860 25568624 25620042 
3175.011 25670270 25718394 25763748 25806644 25847540 25887068 25926178 
3178.386 25965926 26006588 26048982 26093420 26139550 26187446 26236756 
3181.761 26286844 26337502 26388764 26440420 26492750 26545652 26598840 
3185.136 26652214 26705804 26759682 26814448 26870948 26929500 26990564 
3188.512 27053786 27118784 27184882 27251802 27318980 27387122 27456332 
3191.887 27526932 27599130 27672614 27747096 27822334 27898080 27974228 
3195.262 28050850 28127624 28204166 28280014 28354814 28428602 28501694 
3198.637 28574940 28648586 28723132 28797972 28872474 28945852 29017684 
3202.013 29088538 29159544 29231872 29307228 29385926 29467796 29551882 
3205.388 29636586 29720454 29802352 29881746 29958526 30033190 30105984 
3208.763 30177440 30248058 30318150 30387724 30456952 30525730 30593842 
3212.138 30661326 30728536 30795970 30864908 30936454 31011180 31089654 
3215.514 31171242 31254694 31338808 31422008 31503584 31583146 31660978 
3218.889 31737324 31812616 31886886 31959776 32031252 32101390 32170284 
3222.264 32238796 32308110 32379142 32452904 32530032 32610782 32694620 
3225.639 32780796 32867812 32953952 33037536 33117056 33191730 33261512 
3229.015 33326942 33389450 33450354 33510658 33571724 33633980 33697392 
3232.390 33761924 33827392 33892836 33957716 34021424 34083384 34143672 
3235.765 34203140 34262440 34323216 34386224 34451900 34519696 34588832 
3239.140 34658412 34727568 34796492 34865528 34935616 35006832 35078524 
3242.516 35149620 35218064 35282248 35341080 35394568 35443928 35490844 
3245.891 35537448 35585744 35636456 35690804 35748940 35810824 35876640 
3249.266 35946356 36019712 36096328 36175436 36256112 36337596 36418768 
3252.641 36498804 36576728 36652392 36725404 36796012 36865224 36934124 
3256.017 37003644 37075092 37148316 37223180 37298420 37373016 37445572 
3259.392 37515396 37582192 37645856 37707072 37766124 37823708 37880972 
3262.767 37939076 37999536 38063588 38132096 38204996 38281488 38360132 
3266.142 38439220 38517856 38595672 38672812 38750256 38828476 38907728 
3269.518 38987788 39067896 39147336 39225772 39303752 39381488 39460040 
3272.893 39540276 39622560 39707216 39794360 39883992 39976220 40071084 
3276.268 40168516 40268220 40370132 40474028 40580204 40689284 40801520 
3279.643 40917392 41036788 41159280 41284024 41410520 41538332 41667708 
3283.019 41799388 41933844 42071296 42211352 42353460 42496928 42641212 
3286.394 42786604 42933840 43083720 43237168 43394700 43556168 43721584 
3289.769 43890760 44064036 44241676 44424312 44612196 44805232 45002984 
3293.144 45205164 45411416 45622104 45837500 46058156 46283612 46513420 
3296.520 46746564 46981676 47218024 47455352 47694256 47935840 48181260 
3299.895 48431412 48686900 48948060 49215172 49488160 49767420 50053288 
3303.270 50346192 50646516 50954428 51270348 51594480 51926740 52266124 
3306.645 52612024 52962692 53316972 53674136 54034440 54398912 54769596 
3310.021 55148076 55534912 55930044 56331984 56739056 57149872 57564328 
3313.396 57982592 58406036 58835468 59271140 59713100 60160684 60613568 
3316.771 61072572 61538972 62014092 62498492 62991320 63490160 63992104 
3320.146 64493976 64994080 65492072 65989628 66487908 66988960 67493376 
3323.521 68000440 68508952 69017048 69523280 70026496 70525728 71020344 
3326.897 71509624 71993048 72469920 72940296 73404016 73860360 74307912 
3330.272 74744672 75167568 75574120 75962304 76331048 76680728 77011464 
3333.647 77323128 77614824 77884464 78130392 78351064 78546792 78718504 
3337.022 78868032 78996504 79103824 79188392 79247320 79277664 79276984 
3340.398 79244184 79179328 79083152 78956368 78799816 78613424 78397224 
3343.773 78151136 77874832 77568080 77230184 76860240 76457392 76021824 
3347.148 75554480 75057672 74534872 73989408 73424296 72841896 72243176 
3350.523 71628944 71000056 70357688 69703096 69037824 68362752 67678704 
3353.899 66986488 66287300 65583540 64879112 64178364 63485832 62804624 
3357.274 62136412 61480984 60837560 60205024 59582944 58972228 58374388 
3360.649 57790952 57222896 56670152 56131608 55605780 55090936 54585984 
3364.024 54090732 53605080 53129068 52663268 52208240 51764520 51333512 
3367.400 50916684 50514624 50128144 49756572 49397976 49050100 48710772 
3370.775 48377704 48050220 47728056 47411520 47100756 46796008 46496272 
3374.150 46201012 45908864 45618940 45329940 45040952 44750868 44458996 
3377.525 44164976 43869060 43572212 43275972 42981028 42688040 42396344 
3380.901 42104332 41809820 41510732 41205908 40895548 40580680 40263528 
3384.276 39945924 39629968 39316812 39007108 38700740 38397268 38096032 
3387.651 37796272 37497260 37198200 36898952 36599616 36300564 36002580 
3391.026 35706092 35411608 35119152 34829160 34542116 34258532 33979860 
3394.402 33706916 33440408 33179962 32924890 32673080 32423198 32174386 
3397.777 31926398 31680472 31437502 31198120 30962428 30729176 30496726 
3401.152 30263686 30029320 29794226 29559364 29326546 29096688 28870560 
3404.527 28647596 28426940 28207950 27990202 27773870 27559728 27348726 
3407.903 27141250 26937820 26738434 26542800 26350916 26162284 25976196 
3411.278 25791982 25608548 25425262 25241842 25059062 24877904 24700256 
3414.653 24527802 24361336 24200716 24045024 23892292 23741260 23590734 
3418.028 23440714 23291900 23145236 23001484 22861204 22724388 22590234 
3421.404 22457764 22326134 22194612 22062716 21930580 21798900 21668410 
3424.779 21540676 21416216 21295966 21179718 21066874 20956008 20846664 
3428.154 20737764 20629552 20522164 20416264 20311812 20208286 20104406 
3431.529 19998884 19890786 19780600 19669298 19559306 19452982 19351636 
3434.905 19256064 19165050 19076720 18989274 18901120 18812150 18722612 
3438.280 18634200 18548088 18464792 18383830 18303850 18223090 18140032 
3441.655 18053740 17964360 17873236 17782096 17692286 17604842 17519244 
3445.030 17434182 17348306 17259794 17168438 17075276 16982478 16892662 
3448.406 16808168 16729580 16655687 16583977 16511073 16434157 16351610 
3451.781 16263852 16172292 16079275 15986791 15895119 15804257 15713103 
3455.156 15620355 15526117 15430731 15335674 15241840 15150290 15060544 
3458.531 14971605 14882341 14791586 14699309 14606196 14513169 14421054 
3461.906 14330670 14241607 14153725 14066512 13979658 13893437 13808465 
3465.282 13724809 13643015 13563424 13486002 13410883 13338340 13268028 
3468.657 13199915 13132769 13065120 12994922 12920467 12840360 12754332 
3472.032 12663339 12568955 12473091 12378100 12285073 12195099 12108618 
3475.407 12025630 11945892 11868894 11793884 11720214 11646999 11573252 
3478.783 11498395 11422020 11344367 11265706 11187061 11109482 11034127 
3482.158 10961878 10893411 10828591 10766769 10706993 10647735 10588010 
3485.533 10526731 10464273 10401383 10339316 10279430 10222300 10167789 
3488.908 10114742 10061296 10006195 9948219 9887539 9825647 9764070 9705178 
3492.766 9650392 9600187 9553612 9509413 9465489 9420485 9373828 9326261 
3496.623 9279682 9236289 9198111 9165894 9139262 9115779 9092128 9065162 
3500.481 9032312 8992698 8947203 8898803 8850849 8806789 8769461 8740014 
3504.338 8718243 8703301 8693362 8686804 8681936 8677474 8671931 8664562 
3508.196 8655030 8643944 8632654 8622582 8615823 8613220 8614572 8618797 
3512.053 8624238 8629275 8633262 8636542 8639921 8645127 8652900 8663345 
3515.910 8675649 8688190 8699312 8707594 8712529 8714050 8712361 8708269 
3519.768 8701272 8691131 8677508 8659491 8636812 8609300 8577058 8540223 
3523.625 8499506 8455210 8407678 8356602 8301581 8241975 8177245 8107056 
3527.483 8031849 7953145 7872566 7792204 7713713 7638068 7564965 7493830 
3531.340 7423481 7353110 7282346 7210853 7138428 7064331 6987621 6907288 
3535.198 6822326 6733577 6642154 6550583 6461722 6377283 6298307 6223984 
3539.055 6152665 6082499 6012009 5941027 5869754 5799433 5730365 5663054 
3542.912 5596828 5530712 5463332 5394049 5322430 5248843 5174231 5100367 
3546.770 5028864 4961862 4900635 4845783 4796934 4752177 4709000 4664320 
3550.627 4615458 4560976 4500877 4436702 4370830 4306105 4244870 4188126 
3554.485 4136642 4090080 4048273 4010582 3976206 3943705 3911674 3878041 
3558.342 3841034 3799819 3754563 3706305 3657117 3609070 3563166 3520073 
3562.199 3479189 3439110 3398200 3354556 3306209 3251157 3187633 3114074 
3566.057 3031218 2941039 2848877 2761070 2684149 2622709 2577876 2547879 
3569.914 2528448 2513751 2498555 2478793 2451302 2415683 2372770 2324532 
3573.772 2274134 2224541 2178151 2136727 2100734 2069671 2041606 2014309 
3577.629 1985749 1954395 1919915 1883074 1844840 1806808 1769977 1735012 
3581.487 1702279 1671444 1642574 1615635 1590060 1564920 1538650 1508825 
3585.344 1472817 1428601 1375482 1314492 1249391 1185130 1127489 1080718 
3589.201 1047801 1028704 1021596 1023190 1028670 1033951 1034649 1027873 
3593.059 1012031 987721 957302 924362 892752 865428 843981 828544 817423 
3597.398 808726 800394 790302 777357 760926 740846 718210 694049 670023 
3601.738 647723 628643 612749 600306 590087 580929 571142 559132 543274 
3606.078 521478 492319 454571 408536 356635 302519 251891 209557 178695 
3610.417 159304 149195 143295 136898 126391 110681 91194 70912 52984 39265 
3615.239 29026 20079 9111 -6891 -29455 -58245 -91009 -124301 -154443 -178820 
3620.061 -196208 -206475 -211078 -211443 -208992 -204985 -199652 -193062 
3623.918 -184153 -172428 -157755 -142088 -129302 -125327 -137948 -173620 
3627.776 -235585 -319725 -413680 -500433 -564005 -596466 -599510 -581576 
3631.633 -553548 -525055 -502981 -489908 -485076 -485605 -488088 -490040 
3635.490 -490934 -491596 -494244 -500300 -509865 -522308 -535811 -548419 
3639.348 -558611 -565693 -569697 -571087 -570458 -567943 -563807 -557950 
3643.205 -550570 -541768 -532568 -524129 -517973 -515921 -519826 -531674 
3647.063 -552622 -583529 -624028 -672563 -725923 -778978 -826173 -860532 
3650.920 -876901 -872304 -847007 -804312 -750400 -693140 -640869 -601430 
3654.778 -581179 -582304 -602323 -633491 -664954 -687285 -693769 -683117 
3658.635 -659032 -627734 -596003 -569829 -553052 -546301 -547823 -554243 
3662.492 -561821 -567579 -568969 -565031 -554475 -536241 -508673 -471009 
3666.350 -423379 -367433 -305752 -240685 -170706 -88359 21835 181678 414605 
3670.689 735303 1148252 1646299 2217747 2848010 3521710 4218337 4898625 
3674.547 5500812 5944991 6148934 6064691 5698202 5102010 4350213 3516065 
3678.404 2666446 1854689 1126260 516933 43374 -295786 -520654 -660256 
3682.262 -745604 -801402 -841153 -870023 -888342 -895616 -894095 -889731 
3686.119 -889731 -901072 -927953 -970272 -1023264 -1080547 -1135541 -1184052 
3689.977 -1224331 -1256016 -1278911 -1292687 -1296750 -1291762 -1279671 
3693.352 -1263251 -1246237 -1231600 -1221093 -1214980 -1212767 -1213064 
3696.727 -1214683 -1217161 -1220300 -1224430 -1230444 -1239100 -1251589 
3700.102 -1268570 -1289945 -1314457 -1339925 -1362981 -1380024 -1388843 
3703.478 -1388414 -1379496 -1363642 -1342964 -1319049 -1293083 -1265696 
3706.853 -1237613 -1209826 -1184945 -1164854 -1152461 -1149685 -1157220 
3710.228 -1174833 -1200706 -1232789 -1268108 -1302862 -1333055 -1354261 
3713.603 -1363509 -1359480 -1342799 -1316934 -1285981 -1255322 -1229023 
3716.979 -1210024 -1199186 -1195585 -1197633 -1203416 -1212040 -1223042 
3720.354 -1235135 -1247426 -1257271 -1262293 -1261104 -1254034 -1243858 
3723.729 -1234871 -1231369 -1235862 -1248252 -1265531 -1282611 -1294140 
3727.104 -1295528 -1285089 -1263780 -1234904 -1202920 -1172619 -1148760 
3730.479 -1135112 -1134120 -1146216 -1169183 -1199285 -1232029 -1264903 
3733.855 -1297114 -1330478 -1366845 -1406116 -1445384 -1478769 -1499209 
3737.230 -1502577 -1488213 -1459220 -1420615 -1377646 -1333814 -1291498 
3740.605 -1251225 -1214848 -1185771 -1170438 -1177047 -1212734 -1277722 
3743.980 -1361495 -1443435 -1498648 -1512219 -1485077 -1430490 -1367110 
3747.356 -1311979 -1277821 -1269495 -1286179 -1318586 -1356177 -1388645 
3750.731 -1410344 -1420516 -1421044 -1413547 -1398289 -1374442 -1342403 
3754.106 -1304150 -1263945 -1226082 -1194131 -1170075 -1153552 -1143109 
3757.481 -1137656 -1137128 -1142614 -1155403 -1175395 -1198922 -1219903 
3760.857 -1231237 -1228791 -1212139 -1186035 -1157881 -1136004 -1125462 
3764.232 -1127742 -1139044 -1152990 -1162342 -1162474 -1153651 -1139243 
3767.607 -1125264 -1116307 -1115746 -1123281 -1136500 -1151173 -1163565 
3770.982 -1170736 -1171529 -1166473 -1156427 -1143341 -1128668 -1113796 
3774.358 -1099584 -1086199 -1073110 -1059625 -1045841 -1032950 -1023628 
3777.733 -1020884 -1027529 -1044387 -1069177 -1096610 -1120405 -1136004 
3781.108 -1141325 -1138020 -1130155 -1122454 -1118290 -1118654 -1121959 
3784.483 -1125098 -1124834 -1119381 -1109103 -1095817 -1082695 -1071689 
3787.859 -1064583 -1061641 -1062566 -1066500 -1072119 -1078299 -1083224 
3791.234 -1085042 -1082497 -1075589 -1066235 -1057906 -1055427 -1062699 
3794.609 -1081770 -1111119 -1145588 -1177344 -1198162 -1202656 -1190066 
3797.984 -1164556 -1133889 -1107318 -1094461 -1101435 -1130221 -1175329 
3801.360 -1225884 -1266555 -1283965 -1272403 -1234045 -1177807 -1115845 
3804.735 -1061178 -1024587 -1012191 -1024223 -1053840 -1089008 -1117034 
3808.110 -1129758 -1124999 -1106095 -1078432 -1047229 -1015463 -983860 
3811.485 -951824 -918894 -886821 -858779 -840525 -837648 -853753 -889102 
3815.343 -937608 -988091 -1027892 -1047527 -1043759 -1020521 -986538 -953577 
3819.200 -932615 -932714 -958238 -1006505 -1066962 -1124206 -1164556 
3822.575 -1179988 -1171066 -1144365 -1109565 -1075523 -1048320 -1029446 
3825.951 -1016752 -1005579 -990670 -969545 -943294 -916447 -894889 -883580 
3829.808 -884671 -896840 -915654 -934467 -947262 -949907 -941245 -922564 
3833.666 -897170 -869427 -843435 -823362 -813242 -815524 -831431 -859705 
3837.523 -896112 -934268 -967264 -989744 -999430 -996918 -985612 -970008 
3841.380 -954403 -942402 -936318 -937079 -944419 -956155 -969446 -980587 
3845.238 -986472 -984885 -974802 -957643 -935095 -909867 -883679 -857027 
3849.095 -830207 -802824 -776133 -753873 -743057 -752153 -790521 -861822 
3852.953 -960850 -1070499 -1168257 -1235168 -1263417 -1256247 -1223968 
3856.328 -1177675 -1125924 -1074432 -1026306 -982802 -944782 -913471 -889466 
3860.185 -873561 -865658 -864467 -868005 -874751 -883679 -895153 -909933 
3864.043 -927391 -945344 -959263 -964950 -959164 -942931 -921142 -901965 
3867.900 -893533 -902329 -929243 -969016 -1009513 -1037346 -1043924 -1028058 
3871.758 -996554 -959825 -928714 -910694 -908115 -917307 -931326 -941840 
3875.615 -942732 -932086 -911950 -887846 -865988 -851901 -849123 -858449 
3879.472 -877529 -900874 -922167 -934963 -935789 -924217 -903783 -880736 
3883.330 -861756 -853555 -860168 -881001 -910628 -938996 -956321 -954866 
3887.187 -933376 -896178 -852000 -810001 -779408 -766078 -772263 -795482 
3891.045 -829281 -865327 -895649 -914662 -920514 -913604 -896344 -871444 
3894.902 -842509 -812316 -784203 -761514 -747192 -743289 -750466 -767732 
3898.760 -792009 -818765 -843733 -863475 -876438 -883712 -887614 -891119 
3902.617 -897170 -906362 -918034 -930003 -939096 -942567 -938798 -927953 
3906.474 -911521 -891318 -869527 -847668 -826272 -805437 -784865 -764160 
3910.332 -743421 -723309 -705016 -689667 -678088 -670711 -667402 -667899 
3914.189 -672199 -680470 -692843 -709019 -728139 -748019 -765913 -779077 
3918.047 -785758 -785096 -777886 -765748 -750731 -734556 -718480 -703594 
3921.904 -690560 -680437 -674151 -672828 -676335 -683580 -692512 -700517 
3925.761 -705446 -706571 -704421 -700947 -698301 -698103 -700484 -704619 
3929.619 -708688 -711037 -710508 -707464 -702635 -697739 -693438 -689998 
3933.476 -686987 -683315 -678783 -673291 -667402 -662010 -657312 -653276 
3937.334 -649339 -645104 -640472 -636171 -633292 -633325 -637263 -645699 
3941.191 -657411 -671339 -685234 -697309 -706472 -712095 -714345 -713915 
3945.049 -711897 -709118 -706770 -705380 -705546 -707034 -708953 -710441 
3948.906 -710078 -707200 -701344 -693339 -683944 -674482 -665947 -659065 
3952.763 -653838 -650298 -648313 -647552 -647916 -649206 -650794 -652085 
3956.621 -652548 -651621 -649405 -646096 -642060 -637825 -633524 -629157 
3960.478 -624955 -621017 -617609 -614830 -612911 -611257 -608941 -604937 
3964.336 -598419 -588856 -577175 -564303 -552357 -542396 -535347 -531078 
3968.193 -528993 -528365 -528828 -530185 -532932 -537267 -543058 -549743 
3972.051 -556361 -561556 -564733 -565395 -563641 -559770 -554012 -546566 
3975.908 -537465 -526511 -513836 -499870 -485440 -471539 -458962 -448469 
3979.765 -440856 -436685 -435957 -438969 -445060 -453070 -461609 -468990 
3983.623 -474121 -476338 -476404 -475147 -473757 -473293 -473922 -475213 
3987.480 -476802 -477993 -478787 -479516 -480839 -483090 -486069 -488650 
3991.338 -490040 -489345 -486400 -481435 -475875 -470778 -467236 -465945 
3995.195 -467302 -471241 -478059 -487790 -500201 -514928 -530814 -546268 
3999.052 -559339 -568704 -573006 -572443 
##END=
