
##TITLE=Z240_2_e
##JCAMP-DX=5.01  $$ Nicolet v. 1
##DATATYPE=INFRARED SPECTRUM
##ORIGIN=UniL
##OWNER=Nicolet
##LONGDATE=2011/09/09
##TIME=11:41:05
##SPECTROMETER/DATA SYSTEM=Nicolet iS5
##DATA PROCESSING=
Ratio against background
%Transmittance->Absorbance
Truncated
ElementMultiply or ElementDivide
##COMMENTS=
Number of sample scans: 32
Collection length: 51.21 sec
Sample gain: 2.0
Background collected on: Ven Sep 09 11:29:40 2011 (GMT+02:00);
Number of background scans: 32
Background gain: 2.0
Sample spacing:  1.000
Number of scan points: 12415
Resolution points: 8192
Number of FFT points: 65536
Apodization: N-B fort;
Phase correction: Mertz;
Laser frequency: 15798.0 cm-1
Number of rejected sample scans: 0
Number of rejected background scans: 0
Bench serial number: ASB1000141;
##RESOLUTION=4.000
##XUNITS=1/CM
##YUNITS=ABSORBANCE
##FIRSTX=649.893372
##LASTX=4000.122314
##FIRSTY=0.084544
##MAXX=4000.122314
##MINX=649.893372
##MAXY=0.285303
##MINY=0.001342
##XFACTOR=1.000000
##YFACTOR=1.000000E-009
##NPOINTS=6950
##DELTAX=0.482117
##ZPD=6100
##XYDATA=(X++(Y..Y))
649.893 84543504 84231680 83961208 83758280 83630200 83568344 83555088 
653.268 83578744 83643816 83771744 83988304 84312024 84741608 85256680 
656.643 85827360 86431168 87062984 87737896 88480264 89306760 90219904 
660.018 91208496 92257328 93364848 94551856 95854696 97313112 98947392 
663.393 100745512 102664040 104647912 106646944 108615256 110513944 
666.285 112281824 113809224 114947000 115545800 115535168 114968888 
669.178 113983784 112719552 111259680 109631192 107830304 105853648 
672.071 103722896 101491392 99227824 97003832 94869904 92847992 90941736 
675.446 89147944 87468224 85911872 84489288 83204928 82050008 81004712 
678.820 80044584 79146888 78297976 77493528 76733392 76016536 75337480 
682.195 74686032 74051056 73426176 72812080 72214808 71644064 71106392 
685.570 70602360 70126872 69672672 69234608 68812592 68411928 68039856 
688.945 67701200 67393072 67103600 66812396 66496364 66133752 65708572 
692.320 65215184 64656720 64044936 63396676 62732840 62076240 61447776 
695.694 60866152 60344652 59890032 59502984 59178100 58907940 58683312 
699.069 58496484 58343084 58221180 58131244 58074092 58049284 58054396 
702.444 58084656 58134160 58197276 58270552 58352140 58441212 58536788 
705.819 58636704 58738008 58838768 58940580 59049320 59176844 59338024 
709.194 59548052 59822564 60177504 60630448 61206268 61934600 62844024 
712.569 63952604 65250808 66688912 68167640 69558088 70713200 71500408 
715.943 71839968 71715544 71184616 70360728 69403648 68492424 67792680 
719.318 67460168 67616632 68335184 69631712 71441936 73616480 75905280 
722.693 78000712 79586424 80375976 80204208 79056320 77081184 74543448 
726.068 71770848 69083344 66706644 64768368 63291824 62228100 61492092 
729.443 60996728 60677728 60489504 60402148 60392400 60434744 60504132 
732.817 60581764 60658488 60736524 60824868 60932176 61060140 61201764 
736.192 61345188 61479804 61602124 61716844 61833004 61959248 62097648 
739.567 62243780 62389228 62527268 62658572 62791340 62937968 63108176 
742.942 63304820 63520648 63742580 63955368 64147784 64316200 64462460 
746.317 64590664 64704172 64803868 64889656 64962528 65027760 65093188 
749.692 65167060 65254040 65352200 65453968 65550716 65637224 65715276 
753.066 65794424 65886692 66003548 66150576 66326716 66526672 66744700 
756.441 66977708 67224928 67486496 67760224 68040280 68319320 68591752 
759.816 68858128 69126400 69408856 69718104 70060208 70432192 70824032 
763.191 71226576 71637928 72071616 72557112 73141328 73882080 74837960 
766.566 76065288 77601392 79450576 81565184 83836008 86100984 88152368 
769.940 89801128 90931520 91551632 91815664 91999336 92435528 93379392 
773.315 94927784 96937184 99049640 100735528 101435512 100755920 98548848 
776.690 94985424 90469736 85556656 80783408 76539264 73055624 70374096 
780.065 68404952 66983468 65940528 65143236 64501056 63971064 63537376 
783.440 63196308 62948920 62798308 62752748 62824800 63030472 63384676 
786.815 63896476 64569788 65406128 66410140 67594912 68982280 70599864 
790.189 72478608 74647552 77132512 79961728 83166000 86780824 90841944 
793.564 95371928 100366400 105774928 111497032 117375616 123193480 128710344 
796.939 133664472 137804832 140944688 142983216 143947264 143990272 
799.832 143393568 142514752 141699600 141251776 141340304 141962368 
802.724 142924592 143872816 144372048 143962304 142308240 139275392 
805.617 134970736 129717320 123972128 118230672 112868760 108098472 
808.510 103934520 100231448 96746776 93230080 89514624 85538736 81359056 
811.885 77104208 72938376 69006048 65401232 62171316 59319792 56825644 
815.259 54658012 52787248 51187540 49833344 48698980 47758976 46987692 
818.634 46365412 45879588 45523148 45293128 45187076 45201344 45331412 
822.009 45575292 45936120 46423444 47052940 47843344 48809416 49959936 
825.384 51291040 52785752 54408076 56104348 57805000 59421980 60864856 
828.759 62054108 62934712 63497640 63786900 63904844 63988960 64203672 
832.133 64716904 65661080 67122896 69112064 71550872 74256528 76947216 
835.508 79293056 80922504 81512296 80861472 78921240 75824744 71844424 
838.883 67357200 62743364 58324892 54347356 50939040 48134504 45899108 
842.258 44160464 42833704 41836308 41102308 40575696 40209772 39968444 
845.633 39822504 39751188 39742620 39789424 39885916 40024832 40196648 
849.008 40392132 40605564 40837632 41095828 41390436 41731244 42123428 
852.382 42566104 43055368 43588404 44166552 44796856 45490476 46258840 
855.757 47110916 48052000 49086084 50220264 51466512 52845660 54385504 
859.132 56116944 58075604 60299232 62825604 65693848 68933080 72548696 
862.507 76500576 80685560 84929640 88972632 92517032 95255720 96910504 
865.882 97304368 96378208 94211032 90995784 87021160 82625416 78121504 
869.256 73793992 69858304 66443688 63617692 61388196 59723436 58564884 
872.631 57840692 57475780 57388192 57497188 57725820 57997892 58251720 
876.006 58444320 58556048 58594384 58589904 58589680 58640836 58782620 
879.381 59034632 59390636 59819180 60267864 60680132 60999472 61185972 
882.756 61224768 61127648 60929624 60677236 60422252 60206012 60054292 
886.131 59978960 59981016 60059576 60218724 60470808 60834856 61331752 
889.505 61974956 62766068 63691392 64726284 65838604 66994912 68167920 
892.880 69333952 70474008 71571664 72609792 73570640 74437248 75192072 
896.255 75817760 76296488 76607960 76732800 76656024 76372360 75891312 
899.630 75238920 74457424 73596152 72706224 71835776 71022136 70294112 
903.005 69674304 69178576 68821328 68615224 68569592 68691992 68986904 
906.379 69457376 70106232 70938016 71958472 73174304 74589792 76206872 
909.754 78024184 80039000 82249256 84654304 87254376 90048392 93030168 
913.129 96188504 99508848 102978680 106596072 110375160 114349024 118562896 
916.504 123069536 127915200 133125616 138694688 144569504 150645664 
919.397 156742336 162609584 167946576 172400352 175646832 177450640 
922.289 177722800 176576672 174333136 171514496 168725632 166610656 
925.182 165766432 166611152 169369616 174007408 180244912 187540560 
928.075 195144992 202245392 207974624 211584880 212568016 210660240 
930.967 205885296 198497680 188939072 177751632 165514768 152838832 
933.860 140271808 128284352 117270216 107487640 99090848 92142816 86627336 
937.235 82486176 79639440 78005504 77497136 78009912 79412224 81507096 
940.610 84026944 86662448 89052712 90856768 91813336 91758240 90668640 
943.985 88649280 85917240 82741264 79393488 76125104 73114432 70470264 
947.359 68239096 66415236 64962724 63830688 62970220 62336556 61891728 
950.734 61605676 61450828 61401632 61436704 61536568 61687512 61881144 
954.109 62113208 62381576 62684836 63020512 63385016 63775004 64187960 
957.484 64622424 65077752 65552792 66045016 66550268 67064276 67584424 
960.859 68110816 68646776 69197464 69767360 70358704 70970712 71600024 
964.233 72243016 72897624 73564160 74244776 74941656 75655360 76384296 
967.608 77125784 77877328 78638720 79412504 80203056 81013728 81846288 
970.983 82699128 83568544 84451696 85347128 86256664 87183656 88131872 
974.358 89102464 90095160 91107952 92140112 93193456 94272984 95384224 
977.733 96532496 97719608 98944560 100204992 101499888 102831824 104207840 
981.108 105636008 107124136 108675728 110289848 111961584 113684104 
984.000 115450440 117251640 119073544 120894816 122682304 124393384 
986.893 125984120 127412576 128649208 129681408 130513264 131164368 
989.786 131663832 132051112 132370664 132668424 132994040 133390816 
992.678 133892880 134522160 135285888 136179376 137191344 138310624 
995.571 139529888 140846704 142261424 143773616 145378640 147068576 
998.464 148833696 150666144 152562096 154519856 156535648 158600320 
1001.356 160694176 162789904 164858688 166874848 168823504 170702752 
1004.249 172521552 174295408 176043312 177787904 179553200 181368560 
1007.142 183267584 185281376 187435248 189741536 192197728 194787792 
1010.035 197488400 200277488 203134368 206041232 208978832 211919264 
1012.927 214826768 217663280 220393184 222995728 225467168 227817056 
1015.820 230057824 232192592 234207456 236072576 237749200 239200496 
1018.713 240405520 241362656 242092432 242631920 243035984 243375600 
1021.605 243731088 244198272 244876304 245850240 247188240 248924112 
1024.498 251056944 253554768 256366224 259432976 262689264 266067440 
1027.391 269490144 272857152 276054688 278955808 281429536 283366656 
1030.284 284679104 285303232 285198944 284341184 282721280 280352544 
1033.177 277278944 273578816 269352512 264718112 259786224 254643088 
1036.070 249353392 243958240 238485616 232963600 227424528 221906288 
1038.963 216454800 211117424 205944608 200992576 196313568 191951056 
1041.856 187924368 184211472 180736032 177362752 173924752 170233680 
1044.750 166124080 161496352 156325600 150675760 144675648 138506864 
1047.643 132363152 126417440 120820592 115675000 111035928 106920984 
1050.536 103313800 100176480 97457360 95103496 93064320 91294680 89759648 
1053.911 88428792 87273824 86267616 85378712 84571888 83812896 83067976 
1057.286 82308760 81515976 80677584 79790360 78858888 77896432 76924592 
1060.661 75971816 75075512 74275048 73608832 73112352 72811488 72722400 
1064.037 72851960 73197208 73745968 74474536 75349216 76321248 77327608 
1067.412 78301936 79174120 79884256 80393560 80684528 80763448 80653360 
1070.787 80389256 80008408 79544048 79024800 78471560 77898736 77317944 
1074.162 76738016 76168928 75623568 75117224 74667928 74294624 74012000 
1077.538 73828512 73742904 73744672 73815080 73931456 74072784 74220048 
1080.913 74359064 74478304 74566936 74614456 74613360 74562800 74474336 
1084.288 74374680 74309096 74335200 74516816 74922208 75609296 76623928 
1087.663 77995040 79727456 81798648 84151200 86699464 89322224 91874696 
1091.039 94217128 96218232 97783432 98869456 99481272 99669216 99509360 
1094.414 99096680 98523488 97868888 97202600 96578720 96040120 95624912 
1097.789 95362680 95272264 95355248 95587288 95910392 96226744 96414400 
1101.164 96328984 95826480 94798592 93181792 90979152 88256256 85136624 
1104.540 81778848 78342848 74987184 71840856 68993392 66503352 64395012 
1107.915 62667528 61303592 60275860 59552428 59097000 58874056 58846848 
1111.290 58975680 59221616 59541520 59888280 60216480 60480520 60641076 
1114.665 60671484 60558448 60303916 59922664 59439228 58882704 58280860 
1118.041 57660732 57044780 56450448 55892960 55383120 54929484 54538192 
1121.416 54212788 53954524 53761388 53627084 53539184 53476744 53412852 
1124.791 53313980 53145844 52881960 52507760 52026976 51459836 50843076 
1128.166 50221048 49635384 49122440 48705360 48392220 48179148 48051924 
1131.542 47990420 47969844 47965440 47954452 47917892 47845232 47735116 
1134.917 47596488 47446152 47305880 47198816 47142712 47149360 47221796 
1138.292 47354464 47533788 47739664 47948528 48133136 48266492 48326188 
1141.667 48294376 48161600 47926368 47594416 47175844 46683212 46131220 
1145.042 45534188 44907296 44266848 43627784 43003964 42405988 41839008 
1148.418 41303448 40795264 40309196 39840408 39386788 38949332 38531616 
1151.793 38138140 37772704 37438384 37137344 36871932 36645292 36460424 
1155.168 36320052 36225212 36174396 36164240 36190420 36249452 36339616 
1158.543 36460712 36613892 36800052 37019268 37270800 37553364 37865896 
1161.919 38207600 38576480 38968288 39375508 39785720 40184396 40556560 
1165.294 40888156 41168824 41391932 41553388 41651480 41686164 41659208 
1168.669 41575376 41442488 41272112 41077468 40872320 40669420 40478432 
1172.044 40307700 40164628 40056552 39992572 39982940 40037224 40164480 
1175.420 40372096 40665524 41050300 41532752 42120656 42823576 43650940 
1178.795 44611680 45713720 46964472 48371484 49945104 51696920 53639980 
1182.170 55787680 58150832 60737824 63553408 66598124 69864136 73330056 
1185.545 76958768 80684968 84416640 88043600 91432320 94446784 96964072 
1188.921 98874328 100100504 100602424 100378712 99468152 97943704 95910184 
1192.296 93483720 90786528 87939848 85044488 82185872 79428096 76809624 
1195.671 74350032 72050536 69900760 67882968 65978520 64172448 62454912 
1199.046 60822352 59276340 57821272 56461356 55198868 54033276 52961420 
1202.422 51979280 51083284 50272124 49547100 48910900 48365668 47911236 
1205.797 47542992 47253156 47030856 46864880 46745420 46664616 46615920 
1209.172 46593972 46592460 46605260 46627060 46655540 46692804 46745564 
1212.547 46825572 46946272 47121292 47363520 47683124 48087972 48584168 
1215.923 49175244 49862104 50642232 51510276 52458632 53479028 54565280 
1219.298 55713652 56923808 58197464 59537680 60948112 62433452 64000628 
1222.673 65659696 67422832 69304096 71315400 73463768 75748560 78160776 
1226.048 80682848 83286632 85936984 88588048 91182088 93656656 95943616 
1229.424 97976160 99700648 101077576 102088128 102735856 103048360 103077976 
1232.799 102898000 102609944 102334576 102198632 102340448 102887168 
1235.692 103945936 105606976 107932416 110959560 114704088 119161904 
1238.585 124307752 130089072 136430256 143222480 150322032 157572128 
1241.478 164794176 171799248 178409744 184443664 189728000 194114720 
1244.371 197476592 199727248 200827088 200781472 199636064 197465648 
1247.264 194373536 190480416 185917152 180825776 175333600 169541808 
1250.157 163514368 157269296 150788256 144033760 136976768 129617096 
1253.050 122000952 114218232 106402440 98713056 91302528 84317368 77871416 
1256.426 72032272 66828824 62248136 58246908 54759708 51712148 49030924 
1259.801 46643920 44490308 42521372 40698312 38996160 37399812 35900896 
1263.176 34495372 33180032 31950754 30802728 29730850 28731096 27801246 
1266.551 26939406 26143704 25410718 24735156 24111568 23535952 23007738 
1269.927 22530136 22108874 21750266 21458790 21236256 21082458 20997108 
1273.302 20981184 21038216 21172552 21387150 21680286 22044658 22465614 
1276.677 22921348 23387282 23833624 24229024 24544594 24754272 24840958 
1280.052 24800122 24641198 24386256 24063304 23702382 23326548 22948070 
1283.427 22569784 22188022 21798552 21401804 21004794 20620100 20262998 
1286.803 19945942 19677028 19459392 19293162 19177792 19113802 19102272 
1290.178 19143822 19236460 19375854 19555286 19768288 20009606 20274766 
1293.553 20559092 20855910 21154184 21441314 21705608 21939884 22144856 
1296.928 22329692 22510210 22704208 22929172 23200702 23530496 23928388 
1300.304 24401818 24952822 25574352 26245554 26932180 27584760 28147068 
1303.679 28567614 28803178 28829026 28640482 28251760 27691506 26997582 
1307.054 26215602 25391328 24567946 23785950 23074820 22453472 21928872 
1310.429 21497780 21150636 20876388 20666626 20516606 20423938 20386640 
1313.805 20400878 20460476 20558570 20689908 20852016 21044684 21267816 
1317.180 21518392 21789214 22069234 22347482 22616344 22874964 23128078 
1320.555 23383646 23648390 23924816 24209264 24494776 24774058 25042180 
1323.930 25299016 25548698 25799928 26063758 26353344 26684978 27076320 
1327.306 27542958 28095562 28732796 29438898 30182200 30922364 31618640 
1330.681 32237262 32760642 33188510 33535358 33823272 34076432 34317052 
1334.056 34561600 34823452 35113692 35441160 35813380 36234900 36707196 
1337.431 37229788 37802272 38426516 39107560 39851704 40663016 41541136 
1340.807 42479424 43466472 44487956 45529108 46575012 47607064 48603808 
1344.182 49539632 50386376 51121228 51730024 52209364 52564936 52805660 
1347.557 52934616 52944048 52811756 52505108 51992240 51248460 50268176 
1350.932 49068200 47689444 46190180 44636432 43100956 41650204 40340752 
1354.308 39219936 38317352 37644592 37193508 36938740 36842392 36861076 
1357.683 36957824 37103348 37279352 37477032 37692760 37926564 38182132 
1361.058 38470176 38810728 39230996 39763460 40433584 41250140 42201488 
1364.433 43256020 44369996 45490108 46563508 47536820 48353260 48960484 
1367.809 49310888 49368608 49118624 48567972 47745844 46694096 45464244 
1371.184 44110616 42683176 41235308 39824284 38508300 37351280 36409112 
1374.559 35717532 35286308 35097452 35117140 35307908 35645340 36124052 
1377.934 36759156 37581540 38632864 39964960 41632080 43692232 46196336 
1381.310 49166708 52569916 56284644 60107028 63737512 66825540 69041744 
1384.685 70087848 69767328 68022800 64971612 60913228 56272572 51545756 
1388.060 47151132 43357500 40278508 37889976 36092584 34756824 33764424 
1391.435 33016834 32437548 31975076 31592804 31267480 30988582 30753822 
1394.811 30567072 30433106 30354536 30329698 30353788 30420098 30521998 
1398.186 30653788 30810838 30990362 31191214 31414778 31663544 31940124 
1401.561 32245722 32579314 32937974 33317678 33715940 34132668 34570964 
1404.936 35034164 35524720 36041672 36580948 37138356 37712636 38307036 
1408.312 38928892 39586480 40285852 41028304 41810696 42627396 43472844 
1411.687 44341484 45224984 46105980 46956828 47739664 48413744 48950732 
1415.062 49344780 49619188 49820708 50014288 50270260 50647488 51188064 
1418.437 51905712 52782872 53774104 54819624 55861416 56851212 57757572 
1421.813 58569128 59294192 59966864 60644200 61402468 62312500 63420332 
1425.188 64734592 66227748 67852480 69558672 71311616 73089688 74879800 
1428.563 76670680 78445920 80186360 81878816 83526856 85155936 86805472 
1431.938 88523488 90349864 92311088 94423728 96705376 99188232 101924024 
1435.313 104979008 108410008 112234760 116401808 120804920 125323128 
1438.207 129854608 134324304 138658080 142765536 146501552 149668048 
1441.100 152058400 153465376 153734464 152791440 150641152 147367424 
1443.993 143113616 138084112 132512616 126631248 120678736 114865152 
1446.886 109374528 104375920 99995376 96302096 93289928 90884256 88967264 
1450.261 87417328 86153296 85147824 84427304 84042456 84039728 84428832 
1453.636 85179552 86223528 87475232 88857272 90296056 91739816 93161424 
1457.011 94568168 95994496 97486592 99100720 100880248 102855672 105045848 
1460.387 107451232 110051448 112795672 115611480 118387784 120971728 
1463.280 123195496 124884576 125914768 126261160 126018928 125372080 
1466.173 124516992 123626496 122811448 122124408 121584816 121186200 
1469.066 120902256 120676808 120417560 119993752 119240168 118010048 
1471.959 116230816 113957072 111365424 108691984 106147672 103856568 
1474.852 101872880 100212792 98886896 97920992 97346728 97179272 97404112 
1478.227 97971264 98811800 99851232 101033552 102333488 103755240 105327376 
1481.603 107087968 109075880 111322944 113859600 116725088 119971000 
1484.496 123657944 127836792 132523448 137660656 143083680 148530848 
1487.389 153621232 157890064 160867968 162108336 161300224 158362320 
1490.282 153485280 147109872 139791712 132089464 124419064 117014248 
1493.175 109982936 103331456 97036224 91106024 85596280 80617456 76310232 
1496.550 72791352 70114176 68254752 67139528 66671676 66760964 67337968 
1499.925 68344912 69728224 71434360 73398128 75546360 77804120 80075744 
1503.301 82247496 84178992 85663832 86436704 86189384 84641456 81694016 
1506.676 77547792 72676528 67603392 62700756 58123444 53871616 49892064 
1510.051 46144300 42618512 39344268 36367568 33721564 31420368 29450882 
1513.426 27781748 26375878 25197282 24213926 23392282 22699460 22107550 
1516.802 21597678 21168482 20831958 20603562 20489304 20478362 20540922 
1520.177 20638932 20737936 20825840 20920298 21059014 21276864 21584898 
1523.552 21971946 22413522 22888164 23384624 23908956 24479142 25115862 
1526.927 25830484 26619802 27469886 28364788 29295388 30262054 31274884 
1530.302 32347978 33493840 34721000 36031592 37420724 38877828 40385256 
1533.678 41920376 43457904 44975936 46456996 47889592 49260520 50555380 
1537.053 51760972 52858496 53828932 54652640 55308072 55770576 56016472 
1540.428 56036788 55844536 55475684 54977576 54387948 53723252 52975340 
1543.803 52123392 51151384 50067752 48910308 47737892 46604892 45535920 
1547.179 44522540 43528768 42512496 41447008 40339952 39232264 38185788 
1550.554 37251084 36446984 35759052 35152492 34593032 34062744 33568072 
1553.929 33133328 32785014 32533210 32363578 32237976 32105312 31902504 
1557.304 31558524 31006696 30203582 29169466 28004974 26852548 25825950 
1560.680 24970474 24275344 23699968 23196962 22721630 22240366 21735602 
1564.055 21210892 20688484 20201032 19778450 19433022 19156876 18925934 
1567.430 18712304 18492418 18256090 18009012 17768494 17555400 17383690 
1570.805 17257932 17175400 17131558 17122734 17145586 17195086 17260656 
1574.181 17326582 17376136 17396622 17389344 17371826 17372272 17412934 
1577.556 17501650 17631930 17790414 17965568 18152848 18355624 18582254 
1580.931 18841978 19139286 19473044 19836922 20222622 20621212 21023226 
1584.306 21416772 21784232 22103506 22352366 22512512 22578020 22557986 
1587.682 22478700 22377168 22295928 22278068 22357702 22560812 22903884 
1591.057 23391514 24014348 24742942 25529546 26302896 26978752 27477652 
1594.432 27731908 27703618 27392450 26834432 26093348 25243388 24361932 
1597.807 23513252 22745058 22093638 21581728 21221782 21017732 20965186 
1601.183 21053728 21271156 21607324 22054558 22606430 23253900 23979996 
1604.558 24756482 25547502 26308142 26990600 27550902 27948042 28150426 
1607.933 28138832 27906630 27461098 26821460 26020416 25100240 24111216 
1611.308 23110428 22148308 21263328 20476904 19790794 19192302 18660314 
1614.684 18172610 17709646 17259586 16822736 16410448 16042382 15738424 
1618.059 15512381 15367907 15299120 15292632 15331075 15397497 15476738 
1621.434 15561076 15651682 15757732 15891029 16059883 16264437 16497513 
1624.809 16749140 17012904 17288274 17579552 17891084 18222952 18567972 
1628.185 18913092 19245430 19556844 19847950 20125784 20399732 20675208 
1631.560 20951278 21219624 21467804 21682796 21852834 21969786 22029564 
1634.935 22033050 21985960 21900574 21793884 21681610 21575740 21479642 
1638.310 21388856 21291686 21172726 21018394 20821704 20586432 20326118 
1641.686 20060818 19808170 19577156 19366360 19163906 18952790 18714448 
1645.061 18436272 18115606 17761694 17395070 17041814 16727824 16471013 
1648.436 16280809 16157987 16097017 16086219 16107572 16136218 16137592 
1651.811 16072879 15914056 15666865 15381946 15127269 14948524 14849459 
1655.187 14806842 14790935 14778834 14758300 14725771 14683989 14637825 
1658.562 14590604 14542188 14488674 14424068 14342656 14239416 14111588 
1661.937 13959025 13784659 13595492 13402032 13216789 13051121 12911558 
1665.312 12798214 12704449 12618481 12524788 12408375 12258761 12072334 
1668.688 11854592 11617016 11374399 11139465 10920763 10722616 10546047 
1672.063 10389335 10247301 10111351 9969069 9807481 9619225 9407957 9190836 
1675.920 8991210 8829850 8713915 8637318 8585203 8541473 8495383 8445211 
1679.778 8398455 8367073 8361905 8385381 8429771 8477375 8506162 8496194 
1683.635 8439974 8349340 8252072 8177751 8141423 8143482 8175794 8229076 
1687.492 8296110 8372748 8455988 8542927 8630322 8716113 8800906 8888895 
1691.350 8986237 9098895 9228944 9373083 9522248 9664147 9786741 9883234 
1695.207 9957135 10022945 10100227 10201573 10327474 10465902 10597618 
1698.583 10698639 10745982 10725808 10641861 10520180 10395919 10297514 
1701.958 10233528 10196824 10172266 10143198 10095038 10016435 9902488 
1705.333 9755936 9586637 9407517 9230535 9063673 8908612 8763206 8622920 
1709.190 8484065 8345253 8208309 8077889 7958949 7856000 7769840 7699480 
1713.048 7641676 7593793 7554007 7522451 7498819 7480109 7458772 7424121 
1716.905 7365175 7278134 7170192 7058842 6963849 6899444 6870763 6873153 
1720.763 6897087 6931528 6968328 7002908 7034696 7065712 7098717 7135093 
1724.620 7174874 7216984 7260917 7306539 7353818 7401101 7445221 7481188 
1728.478 7503808 7511123 7505628 7493324 7481660 7475188 7470873 7457221 
1732.335 7414145 7320928 7163792 6949001 6705175 6474031 6288793 6161705 
1736.192 6086061 6044733 6020039 5996757 5965582 5923224 5871500 5815618 
1740.050 5761557 5714418 5677254 5651306 5636770 5633448 5639892 5654293 
1743.907 5674669 5699344 5728048 5761422 5800138 5844163 5891517 5938071 
1747.765 5978583 6008112 6022693 6019803 5998605 5959199 5903172 5834323 
1751.622 5759374 5686990 5626097 5583000 5559372 5551284 5550110 5545042 
1755.479 5525108 5483900 5422600 5348862 5274232 5208132 5154280 5110325 
1759.337 5069324 5023165 4966152 4896614 4818108 4736869 4659463 4591247 
1763.194 4534391 4489327 4455649 4432217 4417321 4407982 4399949 4388702 
1767.052 4371231 4348038 4323741 4305436 4298174 4303595 4317115 4329731 
1770.909 4330802 4312731 4275252 4226467 4179294 4144737 4128513 4128814 
1774.767 4140255 4157148 4176785 4199568 4228040 4263507 4305168 4348339 
1778.624 4386694 4414342 4428769 4431313 4427262 4422744 4421973 4425857 
1782.481 4432518 4439078 4443731 4446343 4448619 4452837 4460001 4469575 
1786.339 4480589 4492440 4506133 4524280 4549324 4581871 4618941 4654004 
1790.196 4677817 4681300 4659296 4612477 4548219 4477241 4410158 4353125 
1794.054 4307945 4272675 4244435 4221515 4202546 4187256 4174343 4161998 
1797.911 4147848 4130253 4108677 4084762 4061015 4040112 4023525 4010984 
1801.769 4001319 3993862 3988478 3986873 3990619 4000684 4016335 4035631 
1805.626 4056132 4075832 4094796 4113795 4134033 4156144 4178190 4197661 
1809.483 4211177 4217333 4217200 4214021 4212416 4215828 4225397 4240119 
1813.341 4257350 4275051 4292218 4310221 4331103 4356906 4388502 4425020 
1817.198 4464419 4505095 4545775 4586391 4627246 4668506 4709402 4748660 
1821.056 4785075 4818141 4847558 4873761 4896179 4913738 4924864 4929455 
1824.913 4929455 4929756 4935822 4952847 4982273 5020919 5061915 5096982 
1828.771 5119511 5127557 5125143 5120215 5122059 5136543 5164406 5202532 
1832.628 5246194 5291739 5337960 5386132 5438301 5496282 5560010 5628111 
1836.485 5699344 5774249 5855480 5947812 6056022 6182878 6328296 6489972 
1840.343 6663553 6845012 7031766 7221162 7410875 7597974 7779015 7951626 
1844.200 8115698 8274563 8432609 8592975 8755228 8914192 9060899 9184947 
1848.058 9278091 9336011 9359304 9352397 9320675 9268478 9196893 9105053 
1851.915 8991345 8855956 8701745 8534006 8358156 8178765 7997996 7816595 
1855.772 7635067 7455738 7282178 7119128 6969674 6833702 6707935 6587149 
1859.630 6466598 6344097 6221127 6101182 5988593 5885338 5791642 5706025 
1863.487 5628077 5559540 5504168 5466284 5448267 5448099 5459741 5473431 
1867.345 5480041 5474270 5456151 5430685 5405389 5386837 5378014 5378215 
1871.202 5385058 5395492 5407670 5419681 5429511 5433738 5428035 5408945 
1875.060 5374927 5328031 5273024 5216046 5162193 5112839 5066609 5019880 
1878.917 4969135 4912866 4852350 4790234 4729433 4670516 4612377 4552806 
1882.774 4490632 4427062 4365977 4312028 4268761 4236505 4212683 4192877 
1886.632 4173105 4152364 4131691 4114397 4103025 4098208 4098141 4100081 
1890.489 4102122 4104463 4109748 4120686 4138515 4161463 4185584 4206761 
1894.347 4222486 4234029 4245673 4262470 4287131 4318989 4353493 4384686 
1898.204 4408953 4425421 4437639 4450326 4467834 4491101 4518253 4545641 
1902.062 4570686 4593423 4616496 4643488 4676042 4712584 4748493 4777939 
1905.919 4796398 4803266 4801088 4795125 4789497 4786515 4785376 4784371 
1909.776 4782227 4779580 4778609 4782127 4790368 4802428 4814422 4823602 
1913.634 4828762 4832213 4837138 4846151 4858147 4868232 4868768 4853489 
1917.491 4820420 4774488 4725681 4683946 4655277 4638666 4628150 4615123 
1921.349 4593222 4561177 4522940 4485443 4453908 4430643 4413471 4398543 
1925.206 4383247 4369156 4360153 4361525 4375248 4398443 4423313 4441355 
1929.063 4446008 4436802 4418961 4400384 4388602 4387062 4393857 4404099 
1932.921 4413371 4418693 4421003 4422576 4424651 4426760 4425990 4419865 
1936.778 4408785 4396970 4391715 4399982 4424618 4462310 4504961 4542159 
1940.636 4565764 4573533 4568309 4556858 4545574 4538074 4534592 4534023 
1944.493 4536467 4544904 4563655 4597140 4645163 4703239 4762328 4813551 
1948.351 4852182 4878318 4897050 4914508 4934347 4955964 4974867 4985893 
1952.208 4988642 4986798 4989044 5003020 5032383 5073179 5116393 5150525 
1956.065 5166921 5163937 5146534 5123702 5103988 5092523 5089103 5090612 
1959.923 5094366 5098859 5105832 5116829 5130877 5145126 5154548 5156090 
1963.780 5152033 5148513 5153475 5172554 5204778 5241432 5270542 5281208 
1967.638 5269805 5242103 5210714 5187241 5180165 5189454 5207997 5227749 
1971.495 5243880 5257329 5274735 5302741 5344501 5397370 5455010 5511316 
1975.353 5565145 5621632 5689272 5774719 5877075 5986208 6086061 6162041 
1979.210 6204187 6211817 6190339 6147456 6090127 6021147 5942270 5855850 
1983.067 5767768 5687527 5624989 5586189 5571085 5572595 5580013 5585047 
1986.925 5585551 5585685 5594411 5618779 5660100 5712739 5766560 5810648 
1990.782 5840133 5856387 5866966 5880535 5902332 5932596 5967094 6001427 
1994.640 6034183 6067883 6107634 6156731 6214136 6272691 6321672 6352503 
1998.497 6361245 6350990 6330178 6308359 6291516 6281700 6275078 6266976 
2002.354 6255681 6242639 6232824 6232017 6242572 6262841 6287583 6311452 
2006.212 6331557 6349410 6367970 6389691 6413229 6433473 6443225 6438618 
2010.069 6419854 6392818 6366356 6348435 6342483 6347493 6359059 6373013 
2013.927 6389623 6412456 6446656 6496396 6561145 6635089 6709516 6777528 
2017.784 6835621 6884800 6928868 6970044 7008262 7041162 7065544 7081878 
2021.642 7094137 7108990 7132937 7167868 7209876 7250102 7280897 7297205 
2025.499 7300979 7299160 7299429 7306943 7319749 7331374 7334205 7325174 
2029.356 7307786 7291511 7287097 7302664 7339596 7392102 7451693 7511764 
2033.214 7569517 7626973 7687305 7751119 7814773 7872161 7917105 7948286 
2037.071 7969276 7988209 8012577 8045587 8083695 8118399 8141490 8147737 
2040.929 8139904 8125488 8114044 8112154 8119952 8130687 8136798 8130822 
2044.786 8111444 8082548 8051797 8027022 8013556 8013150 8024018 8043291 
2048.644 8068235 8094532 8117994 8132139 8130451 8108980 8069249 8018112 
2052.501 7967960 7932290 7920817 7935462 7969242 8009303 8042278 8059121 
2056.358 8058751 8046936 8033773 8027157 8031714 8046127 8065873 8086228 
2060.216 8104186 8118804 8130755 8139364 8142166 8135380 8116441 8085282 
2064.073 8046801 8007953 7975722 7954495 7944135 7940592 7938331 7933606 
2067.931 7925777 7916734 7909109 7903844 7899020 7890989 7875535 7851141 
2071.788 7819732 7785019 7751726 7721673 7694151 7665890 7634359 7599121 
2075.646 7563549 7532834 7512135 7503606 7504246 7507921 7507617 7498448 
2079.503 7479368 7453345 7425200 7399922 7379835 7365882 7357929 7355705 
2083.360 7361029 7375723 7400528 7433626 7469862 7503302 7527912 7541128 
2087.218 7543185 7537083 7525755 7510550 7490088 7462143 7425335 7381452 
2091.075 7335351 7294544 7265735 7251887 7251786 7259906 7270284 7278471 
2094.933 7283525 7288479 7297104 7312066 7333362 7358401 7383542 7406898 
2098.790 7428469 7450143 7473974 7500470 7527474 7552119 7571978 7587050 
2102.647 7600368 7616891 7640968 7674287 7714927 7758438 7800469 7839266 
2106.505 7875367 7913192 7956688 8007751 8065096 8125150 8183424 8237653 
2110.362 8288140 8337484 8388422 8442305 8497208 8549448 8594969 8631573 
2114.220 8659762 8683085 8705498 8730514 8759792 8792419 8827212 8863497 
2118.077 8901577 8943043 8988774 9038840 9091349 9143932 9194592 9243837 
2121.935 9293222 9346066 9404266 9467486 9532849 9596393 9654559 9706330 
2125.792 9753361 9799111 9846796 9897301 9949067 9998227 10041256 10076352 
2129.649 10104670 10129157 10154153 10183459 10218941 10262365 10314580 
2133.025 10377254 10452257 10539326 10635918 10735182 10829032 10909414 
2136.400 10972004 11017134 11049796 11076001 11100815 11125153 11147080 
2139.775 11163738 11174685 11182334 11192806 11211234 11239286 11272337 
2143.150 11301107 11313247 11302025 11265740 11210384 11145312 11080624 
2146.526 11020601 10964732 10908531 10846527 10778148 10706687 10638296 
2149.901 10578809 10530024 10488475 10448796 10405761 10357267 10306675 
2153.276 10259379 10218296 10182306 10146284 10103177 10051123 9996735 
2156.651 9954118 9942794 9978427 10064246 10189123 10331105 10465427 
2160.027 10573207 10648176 10692934 10715280 10721562 10712869 10686141 
2163.402 10638296 10567503 10478156 10376643 10270982 10165651 10061907 
2166.777 9956864 9848491 9736825 9626068 9523299 9433962 9361301 9303986 
2170.635 9257207 9215271 9174828 9136521 9103497 9080015 9068072 9067395 
2174.492 9074263 9084752 9094158 9099571 9097778 9085394 9058903 9016073 
2178.349 8958229 8891329 8825860 8773755 8743530 8736532 8746032 8758608 
2182.207 8758913 8737107 8691807 8630289 8564824 8507412 8464874 8437778 
2186.064 8422203 8412373 8406191 8404333 8409907 8425176 8450143 8480483 
2189.922 8510792 8535965 8553808 8565467 8573678 8579627 8582972 8580573 
2193.779 8569117 8548468 8523462 8501026 8490484 8497377 8520287 8553166 
2197.636 8585439 8607441 8614843 8608758 8594226 8578309 8566312 8558505 
2201.494 8553098 8546069 8534648 8518496 8499776 8480854 8464131 8449873 
2205.351 8437406 8425717 8415143 8406428 8400921 8399637 8400954 8402880 
2209.209 8403759 8402847 8402745 8406428 8416967 8434940 8458657 8482780 
2213.066 8502209 8513224 8515690 8511940 8505013 8497715 8490822 8483321 
2216.924 8474098 8463657 8454129 8449501 8452204 8463049 8478828 8494336 
2220.781 8505081 8508629 8506432 8502952 8503425 8510656 8523935 8539750 
2224.638 8553673 8562189 8565230 8565399 8565973 8570028 8577430 8585845 
2228.496 8592367 8594869 8593483 8590441 8588379 8588379 8589495 8589224 
2232.353 8584155 8574016 8559992 8545731 8535053 8530356 8530931 8534614 
2236.211 8538534 8541541 8544954 8552388 8566785 8589833 8619608 8651413 
2240.068 8680179 8702083 8716417 8725409 8732948 8741840 8753469 8767501 
2243.926 8782140 8797254 8814532 8835903 8864376 8900867 8943043 8986779 
2247.783 9027169 9060053 9083669 9098624 9106711 9109383 9107456 9100621 
2251.640 9088811 9073350 9057448 9045844 9042731 9049836 9066143 9087661 
2255.498 9108842 9124882 9132833 9131649 9121903 9104512 9079947 9048990 
2259.355 9012250 8972368 8932963 8898060 8871241 8854129 8845303 8842023 
2263.213 8841280 8841448 8843173 8849294 8862414 8883855 8912298 8944090 
2267.070 8974195 8998043 9012623 9016817 9011236 8997028 8975751 8948454 
2270.927 8916999 8883957 8852777 8827009 8810035 8802901 8804659 8813079 
2274.785 8825184 8838473 8851965 8865018 8877261 8888049 8895556 8897857 
2278.642 8894271 8885141 8872965 8861029 8852066 8847840 8847603 8849530 
2282.500 8850443 8848516 8842902 8834347 8824170 8813721 8803408 8793265 
2286.357 8783324 8773519 8764559 8757391 8752455 8749649 8748230 8746911 
2290.215 8745085 8743158 8741941 8742921 8747688 8755802 8766689 8778658 
2294.072 8790526 8801684 8813045 8825690 8841077 8859675 8881048 8903504 
2297.929 8925015 8943989 8958736 8968072 8970778 8965976 8952953 8931610 
2301.787 8903369 8870902 8837762 8807161 8781059 8759521 8741062 8723347 
2305.644 8704551 8684235 8663480 8644382 8629308 8619337 8614505 8613389 
2309.502 8614775 8617546 8621331 8626773 8634445 8644281 8656112 8669023 
2313.359 8682207 8695458 8708472 8721353 8733590 8743632 8749852 8750292 
2317.217 8744273 8731934 8715200 8696641 8678488 8662872 8650433 8641645 
2321.074 8636068 8633094 8631472 8628767 8621501 8605413 8576686 8533533 
2324.931 8476767 8410717 8341402 8275509 8218135 8171505 8134908 8105030 
2328.789 8078868 8054092 8030634 8010416 7995566 7987669 7986353 7989761 
2332.646 7995330 8001338 8007379 8014399 8024693 8040186 8061484 8088624 
2336.504 8120053 8154017 8189164 8224348 8258522 8291214 8321609 8349576 
2340.361 8375416 8400381 8425346 8451461 8478455 8505114 8529680 8551003 
2344.219 8569860 8589596 8615417 8652664 8705599 8775514 8859946 8954002 
2348.076 9051325 9145522 9230671 9302430 9357577 9394346 9412698 9414153 
2351.933 9402844 9383883 9363366 9347285 9339058 9340513 9351043 9369223 
2355.791 9393736 9424447 9461933 9507109 9560386 9620613 9685085 9750379 
2359.648 9813819 9873607 9929743 9983275 10035525 10087136 10137907 10187394 
2363.506 10235190 10281703 10328085 10375082 10423442 10472385 10520519 
2366.881 10566145 10608415 10647124 10683119 10717487 10750636 10782019 
2370.256 10811164 10837356 10861238 10885088 10912778 10948421 10995758 
2373.631 11056933 11132190 11220822 11320798 11430355 11548242 11673173 
2377.007 11804132 11940273 12080953 12225940 12375986 12532019 12695033 
2380.382 12865514 13042277 13223040 13404664 13583457 13756648 13922243 
2383.757 14079791 14228699 14368582 14498507 14616578 14720527 14808694 
2387.132 14879940 14934566 14973319 14997774 15009710 15010978 15003124 
2390.508 14987930 14967146 14941665 14912482 14879666 14842704 14801803 
2393.883 14757306 14710552 14663939 14620108 14581455 14549727 14525811 
2397.258 14509949 14502686 14504879 14517692 14542634 14580255 14630080 
2400.633 14690639 14760152 14836945 14920952 15012967 15114952 15228285 
2404.009 15353489 15489409 15633717 15784224 15939010 16098013 16262269 
2407.384 16433777 16614271 16804552 17004666 17213494 17429974 17652980 
2410.759 17881762 18114984 18350820 18586612 18818620 19043138 19256412 
2414.134 19454956 19636086 19797350 19936506 20052144 20143240 20210404 
2417.510 20255498 20281952 20293618 20294348 20286846 20272892 20253208 
2420.885 20228142 20198566 20165766 20131578 20097986 20066372 20037744 
2424.260 20012658 19992256 19978102 19972690 19979246 20001312 20041456 
2427.635 20101490 20182462 20284314 20406678 20549504 20711976 20893734 
2431.010 21093622 21309818 21540676 21784686 22040752 22308832 22588734 
2434.386 22881112 23185952 23503458 23833448 24176440 24532920 24903062 
2437.761 25287322 25685246 26095530 26517404 26949984 27393334 27848370 
2441.136 28316830 28799990 29298188 29811082 30336628 30873232 31418872 
2444.511 31972758 32534246 33102826 33677520 34256668 34838208 35420488 
2447.887 36002072 36582676 37161816 37738912 38312216 38879132 39436240 
2451.262 39980364 40508836 41020400 41514632 41991432 42450304 42889840 
2454.637 43307524 43700144 44063928 44394364 44686960 44936360 45136964 
2458.012 45283344 45370364 45394164 45352596 45245284 45073148 44838076 
2461.388 44542584 44190468 43785640 43333920 42842148 42317952 41770352 
2464.763 41207692 40638272 40069996 39509868 38965244 38443712 37952528 
2468.138 37499352 37091076 36732940 36428572 36179544 35985840 35845512 
2471.513 35755668 35713144 35713504 35751784 35823344 35922272 36043256 
2474.889 36181200 36330892 36487488 36646120 36801564 36948948 37084652 
2478.264 37205236 37309176 37395736 37464532 37515464 37547472 37559284 
2481.639 37549532 37517596 37464208 37391004 37301268 37198596 37086064 
2485.014 36966772 36843076 36716716 36589416 36462224 36335652 36209292 
2488.390 36081816 35950780 35813520 35667460 35511124 35344280 35167368 
2491.765 34981836 34788664 34588512 34381060 34165216 33939552 33702260 
2495.140 33451426 33185650 32903444 32604352 32288368 31956282 31610370 
2498.515 31253200 30888244 30518762 30147428 29776340 29406846 29039506 
2501.891 28675168 28314318 27957936 27606722 27261752 26924036 26595248 
2505.266 26276988 25971448 25680710 25406186 25148372 24906044 24676794 
2508.641 24457338 24244684 24036900 23833412 23634884 23442812 23258516 
2512.016 23082718 22915654 22756652 22605488 22461984 22326726 22200228 
2515.392 22082866 21974770 21875448 21784546 21701778 21628184 21565188 
2518.767 21514596 21478180 21456980 21450714 21458580 21478876 21509722 
2522.142 21549414 21596424 21648976 21705748 21765176 21825692 21886252 
2525.517 21945878 22003700 22058636 22109884 22156046 22196148 22229068 
2528.893 22253830 22269908 22276464 22272628 22257560 22231020 22193010 
2532.268 22145448 22090884 22032700 21974282 21917928 21864332 21813114 
2535.643 21762702 21712018 21660818 21610076 21561810 21518252 21481174 
2539.018 21451374 21428920 21413118 21403302 21398914 21399856 21405598 
2542.394 21415346 21427946 21441488 21454680 21466518 21476786 21485734 
2545.769 21493706 21500460 21505196 21507042 21504848 21498478 21488694 
2549.144 21476890 21464708 21453810 21445074 21438598 21434526 21432646 
2552.519 21433376 21436858 21443438 21452802 21463838 21475012 21484620 
2555.895 21491444 21494752 21494716 21491688 21486084 21477518 21464916 
2559.270 21447024 21422064 21388472 21345732 21293288 21232010 21163124 
2562.645 21088508 21010116 20930242 20851042 20773874 20700020 20629828 
2566.020 20563468 20501114 20443664 20392160 20348166 20313200 20287890 
2569.396 20272510 20265948 20266642 20273274 20284174 20298688 20316290 
2572.771 20336670 20359938 20386294 20416160 20450194 20489270 20534010 
2576.146 20584384 20639906 20699152 20760494 20822606 20884870 20947696 
2579.521 21011958 21078700 21148270 21220598 21294820 21370410 21447510 
2582.896 21527130 21610666 21699756 21794858 21895136 21998438 22102390 
2586.272 22204552 22303880 22400682 22496356 22592854 22691290 22792056 
2589.647 22894698 22998062 23101310 23203846 23305396 23405990 23505486 
2593.022 23603118 23698112 23789592 23877238 23961158 24042152 24121198 
2596.397 24199246 24277306 24355590 24434554 24514548 24596206 24680476 
2599.773 24768340 24860324 24957384 25059730 25167718 25281632 25401550 
2603.148 25527648 25659726 25797432 25940246 26087614 26239324 26395242 
2606.523 26555832 26721412 26892240 27068634 27250180 27436038 27625118 
2609.898 27815870 28006070 28193666 28375966 28550664 28716016 28871056 
2613.274 29015418 29149338 29273198 29386812 29490066 29582668 29664256 
2616.649 29735534 29797668 29852498 29901798 29946846 29988524 30026478 
2620.024 30060566 30090040 30115394 30137236 30156556 30174492 30191754 
2623.399 30208626 30225074 30241628 30258748 30278004 30300742 30328348 
2626.775 30361570 30400198 30443838 30491464 30542116 30595086 30650090 
2630.150 30706914 30765024 30824070 30883478 30942610 31001820 31060968 
2633.525 31120906 31181884 31243978 31307038 31370218 31433084 31495356 
2636.900 31557244 31619172 31681682 31745308 31810548 31877398 31946260 
2640.276 32017380 32091110 32168142 32248396 32331664 32417272 32504358 
2643.651 32592136 32680366 32769218 32859594 32952450 33048618 33148632 
2647.026 33252892 33361434 33474084 33590736 33711176 33835020 33961980 
2650.401 34091776 34223828 34358324 34495624 34635732 34779404 34927072 
2653.777 35078704 35234236 35393348 35556252 35723040 35894020 36070080 
2657.152 36251468 36438444 36630980 36828868 37031716 37239356 37451316 
2660.527 37667172 37886288 38107392 38329404 38551204 38771888 38990760 
2663.902 39208112 39424120 39638860 39852720 40065816 40278256 40490212 
2667.278 40702388 40915464 41130392 41348016 41568888 41793224 42021216 
2670.653 42252540 42487064 42724632 42964820 43207412 43451932 43698096 
2674.028 43945456 44193696 44442404 44690524 44937240 45181048 45420904 
2677.403 45656260 45887360 46115596 46342884 46571732 46804460 47042820 
2680.779 47287924 47540628 47801840 48072800 48355372 48651280 48962452 
2684.154 49290400 49635236 49996960 50374804 50767724 51174532 51594184 
2687.529 52025520 52467232 52918448 53378116 53845924 54321932 54806584 
2690.904 55300616 55804484 56318404 56842260 57375980 57919552 58473588 
2694.280 59038956 59616352 60205748 60806804 61417888 62037520 62663740 
2697.655 63295544 63932448 64574824 65222888 65877244 66537916 67204272 
2701.030 67875648 68551000 69228080 69905816 70581384 71252384 71915968 
2704.405 72569368 73209680 73834408 74440744 75025608 75585480 76116648 
2707.781 76615352 77078488 77504336 77891920 78241232 78552632 78827032 
2711.156 79064984 79266928 79433392 79565416 79663840 79729208 79761896 
2714.531 79760896 79725184 79652856 79542248 79392696 79203976 78976992 
2717.906 78713264 78414928 78085024 77727232 77346496 76948640 76539976 
2721.281 76127544 75717632 75316152 74928592 74559576 74213880 73895824 
2724.657 73609216 73357048 73141176 72962016 72819320 72712216 72639944 
2728.032 72602312 72599568 72631880 72698816 72799184 72930896 73090952 
2731.407 73276824 73485624 73715336 73963792 74228776 74507456 74796312 
2734.782 75092176 75392336 75694920 75999016 76304576 76611512 76918696 
2738.158 77224488 77526288 77821632 78108616 78385952 78653328 78911496 
2741.533 79160992 79403272 79639992 79873384 80106816 80343840 80587864 
2744.908 80842112 81108136 81386192 81674856 81972608 82276928 82585184 
2748.283 82894584 83202200 83503760 83795296 84071896 84329688 84566288 
2751.659 84780752 84973680 85147144 85304104 85447400 85579976 85704312 
2755.034 85821864 85933480 86038288 86134392 86218712 86287264 86335848 
2758.409 86361104 86360096 86330712 86271376 86180168 86055616 85896160 
2761.784 85701088 85470760 85206768 84911672 84588592 84240616 83870120 
2765.160 83480032 83073192 82653512 82225592 81795968 81370320 80954320 
2768.535 80552800 80168944 79804936 79463112 79145328 78854048 78591384 
2771.910 78358488 78155384 77980488 77830832 77702904 77593264 77498840 
2775.285 77416936 77345144 77280096 77217880 77152968 77079360 76990064 
2778.661 76878640 76739008 76566104 76356800 76109584 75825136 75506576 
2782.036 75158864 74788760 74403272 74009680 73614440 73222504 72837544 
2785.411 72462008 72096656 71741184 71393968 71051912 70711256 70367552 
2788.786 70017264 69657968 69288976 68911288 68527376 68140432 67753368 
2792.162 67368840 66989312 66616744 66253608 65902196 65565316 65245716 
2795.537 64945408 64665756 64407312 64170292 63954516 63759692 63585816 
2798.912 63432792 63299872 63186348 63090512 63010596 62944480 62889980 
2802.287 62844948 62807760 62776484 62749260 62724836 62701868 62679932 
2805.663 62659144 62639744 62621980 62605752 62590100 62573336 62553400 
2809.038 62527648 62493632 62449520 62393476 62324624 62242056 62145396 
2812.413 62034040 61908196 61767528 61612436 61443536 61261968 61069792 
2815.788 60869960 60666376 60464444 60270188 60089944 59930348 59798116 
2819.164 59698880 59638172 59620268 59648284 59724392 59848920 60020620 
2822.539 60236308 60491560 60780656 61096600 61432624 61781280 62134996 
2825.914 62486744 62829240 63155420 63459256 63735248 63978820 64186884 
2829.289 64356624 64486944 64577364 64628848 64644104 64626612 64581552 
2832.665 64514504 64431288 64337252 64237060 64134456 64033112 63935944 
2836.040 63846232 63767136 63702060 63654104 63626668 63623524 63648924 
2839.415 63708656 63809120 63958132 64164536 64436784 64784712 65218464 
2842.790 65748580 66388176 67152328 68056744 69118704 70352472 71766280 
2846.166 73357480 75107536 76979736 78912568 80825624 82623776 84198216 
2849.541 85448816 86289480 86658768 86531400 85917600 84862488 83433296 
2852.916 81715856 79804648 77786040 75743120 73746040 71847080 70085672 
2856.291 68485520 67055656 65793916 64689100 63724196 62878064 62129340 
2859.667 61457700 60844268 60272852 59729980 59204336 58687448 58173596 
2863.042 57659296 57144052 56628816 56117056 55613352 55124004 54656696 
2866.417 54219136 53820156 53468012 53168764 52927548 52746052 52623732 
2869.792 52557232 52540820 52566960 52626012 52707372 52799820 52891840 
2873.167 52974256 53040292 53087020 53115252 53129144 53134912 53138392 
2876.543 53145096 53158504 53180672 53212096 53252996 53303452 53363092 
2879.918 53432184 53509836 53595632 53688532 53788056 53894348 54008136 
2883.293 54130736 54263208 54406384 54559832 54722276 54892484 55068408 
2886.668 55248536 55431600 55616704 55803504 55991668 56182096 56376084 
2890.044 56575784 56784368 57005072 57241080 57495032 57769344 58065868 
2893.419 58387236 58736568 59117616 59534600 59990868 60488024 61024372 
2896.794 61594600 62189824 62795624 63396288 63972948 64507200 64983576 
2900.169 65391100 65725380 65989240 66192792 66351808 66483812 66608556 
2903.545 66743768 66904224 67102828 67349304 67652296 68019392 68457472 
2906.920 68973232 69573488 70265168 71055464 71952768 72965312 74100800 
2910.295 75365376 76760944 78284088 79923880 81662264 83471272 85314584 
2913.670 87150568 88929120 90597856 92107832 93413168 94479944 95289144 
2917.046 95837304 96136152 96208176 96083696 95791728 95356904 94796408 
2920.421 94117280 93318472 92393224 91334336 90137608 88806616 87353752 
2923.796 85802240 84183904 82533376 80887936 79282120 77742248 76288864 
2927.171 74933664 73680944 72529080 71472472 70503512 69612928 68792488 
2930.547 68035280 67335800 66691688 66102268 65569096 65094844 64682640 
2933.922 64335220 64053544 63837328 63683376 63586548 63538828 63530200 
2937.297 63549532 63584512 63623488 63656860 63677700 63682876 63672900 
2940.672 63651800 63625136 63599436 63580336 63571320 63573316 63583404 
2944.048 63595480 63599816 63584320 63536756 63446216 63305468 63113384 
2947.423 62875844 62605560 62319768 62038820 61782500 61565812 61399568 
2950.798 61287340 61227056 61211452 61230492 61273032 61327136 61382320 
2954.173 61429800 61462016 61473352 61459840 61418688 61348548 61249564 
2957.549 61123260 60972516 60801656 60616160 60421036 60221616 60022180 
2960.924 59825344 59633076 59446788 59267680 59097264 58937808 58791348 
2964.299 58659912 58545048 58447128 58366352 58302344 58254408 58222016 
2967.674 58204436 58200420 58207996 58224476 58247024 58272748 58300072 
2971.050 58327924 58356840 58387616 58421500 58459408 58501752 58549068 
2974.425 58601208 58658056 58718624 58780724 58839984 58888740 58917240 
2977.800 58914052 58866432 58763992 58599348 58369724 58077764 57731724 
2981.175 57344256 56930000 56505164 56085120 55681596 55303024 54953400 
2984.551 54632120 54335412 54057032 53791092 53532096 53276820 53024456 
2987.926 52775572 52530460 52288100 52042964 51785348 51501504 51174680 
2991.301 50789624 50335628 49809480 49217028 48573604 47901468 47223788 
2994.676 46562696 45933836 45344544 44794100 44275544 43779080 43294820 
2998.052 42815240 42336472 41857728 41380380 40906288 40437588 39975348 
3001.427 39520568 39073772 38636160 38208868 37793452 37390748 37001300 
3004.802 36624888 36261012 35908884 35568228 35238908 34921180 34614920 
3008.177 34319920 34035544 33760812 33494770 33236436 32985158 32740422 
3011.552 32501712 32268740 32040742 31817180 31597648 31382076 31170708 
3014.928 30964206 30763318 30569170 30382678 30204542 30035142 29874574 
3018.303 29722088 29576498 29436096 29298898 29162804 29026328 28888266 
3021.678 28748514 28607284 28465464 28324504 28185782 28051378 27923556 
3025.053 27805096 27698852 27607392 27532650 27475358 27434520 27407874 
3028.429 27391464 27380242 27367888 27347846 27313442 27258506 27178004 
3031.804 27069374 26932002 26767998 26581510 26378448 26164852 25946754 
3035.179 25729258 25516228 25310256 25112982 24925168 24746802 24577798 
3038.554 24417170 24264202 24117698 23976740 23840694 23708924 23581114 
3041.930 23457082 23336618 23219576 23106096 22996174 22890122 22788250 
3045.305 22690594 22597112 22507278 22420814 22337540 22257316 22180734 
3048.680 22108142 22039848 21975258 21913154 21851824 21789040 21723164 
3052.055 21653364 21579570 21502794 21424536 21345976 21268338 21192384 
3055.431 21118214 21045764 20974994 20905590 20837694 20771616 20707388 
3058.806 20645672 20587196 20532586 20482600 20437934 20398516 20364554 
3062.181 20335734 20312158 20294104 20282056 20276502 20277406 20284278 
3065.556 20295458 20309068 20323026 20335630 20345666 20352818 20356498 
3068.932 20356358 20351500 20340352 20321256 20293340 20256018 20210472 
3072.307 20158826 20104024 20049402 19997946 19952048 19912918 19880832 
3075.682 19854956 19833626 19814586 19795026 19772762 19745820 19713398 
3079.057 19675642 19633554 19588596 19542530 19496644 19451906 19408664 
3082.433 19366706 19325516 19284570 19242972 19200096 19155908 19110928 
3085.808 19066576 19024930 18988444 18959230 18938220 18925344 18918802 
3089.183 18916484 18915688 18914616 18912506 18909390 18906170 18903956 
3092.558 18903230 18904198 18906726 18910704 18916068 18923336 18932750 
3095.934 18944866 18959610 18976846 18996094 19017174 19040126 19064948 
3099.309 19091676 19119930 19148706 19176962 19203732 19228390 19251180 
3102.684 19272828 19294720 19318102 19343322 19370586 19399620 19429938 
3106.059 19461054 19492588 19524336 19555700 19585926 19614350 19640316 
3109.435 19664026 19686182 19708544 19732608 19759862 19791280 19826654 
3112.810 19865258 19906048 19947816 19989516 20030180 20069182 20105690 
3116.185 20138868 20168682 20195028 20218666 20240640 20262130 20283654 
3119.560 20305388 20326880 20347574 20366812 20384486 20401052 20417166 
3122.936 20433490 20450506 20468324 20486942 20506256 20526680 20548842 
3126.311 20573510 20601164 20631740 20664264 20697450 20729492 20759068 
3129.686 20785762 20809364 20831090 20852052 20873570 20897246 20923948 
3133.061 20954268 20988452 21026218 21067048 21110318 21154950 21199966 
3136.437 21244642 21288174 21329898 21369434 21406400 21440896 21473236 
3139.812 21504362 21535418 21568044 21603250 21641906 21683978 21728632 
3143.187 21774686 21820918 21866736 21912108 21957518 22003700 22051386 
3146.562 22101134 22153188 22207446 22263978 22322958 22384530 22449074 
3149.938 22516212 22585278 22654846 22723482 22789404 22851564 22909576 
3153.313 22963894 23015704 23066646 23118362 23172286 23229188 23289244 
3156.688 23351618 23415606 23480094 23544278 23607806 23671062 23734540 
3160.063 23799042 23865268 23933604 24004262 24077420 24153496 24232668 
3163.438 24315394 24401432 24489868 24578956 24666694 24751012 24830714 
3166.814 24905974 24978054 25048566 25119584 25191944 25265618 25339444 
3170.189 25411700 25481090 25546800 25608654 25667492 25723810 25777846 
3173.564 25829782 25879156 25925406 25968704 26009052 26046556 26081492 
3176.939 26113794 26143562 26171080 26197336 26223662 26251644 26282936 
3180.315 26318280 26357920 26401194 26447040 26494722 26543714 26594050 
3183.690 26646154 26700166 26755770 26812262 26868620 26923824 26977696 
3187.065 27030090 27081646 27133102 27184706 27236878 27289764 27343646 
3190.440 27398944 27456616 27516976 27580840 27647858 27717852 27789800 
3193.816 27863172 27937442 28012536 28088458 28164708 28240904 28316122 
3197.191 28389726 28460972 28529964 28597022 28662780 28728018 28792734 
3200.566 28857742 28922832 28988498 29055342 29123970 29194518 29266926 
3203.941 29340336 29413546 29485386 29555216 29622538 29687990 29751998 
3207.317 29815164 29877842 29940386 30002726 30065536 30129350 30195164 
3210.692 30263262 30333712 30405706 30478064 30549726 30619726 30688138 
3214.067 30755564 30822540 30889596 30956878 31023776 31089904 31155114 
3217.442 31219694 31284214 31349632 31416592 31484950 31554214 31623486 
3220.818 31692340 31760778 31829480 31899296 31971012 32044738 32119904 
3224.193 32195334 32269880 32342802 32413736 32482896 32551174 32619034 
3227.568 32686688 32754392 32821712 32888542 32954666 33020158 33085338 
3230.943 33150208 33214942 33279292 33343044 33405408 33465814 33523188 
3234.319 33576700 33626176 33672112 33715868 33759416 33805076 33854508 
3237.694 33908456 33966532 34027556 34089660 34151488 34212820 34273700 
3241.069 34335160 34397632 34461368 34525508 34589084 34651056 34710916 
3244.444 34769100 34826612 34884304 34942728 35001552 35060168 35118040 
3247.820 35175164 35232404 35291412 35353552 35419696 35489408 35561396 
3251.195 35633756 35704692 35773872 35841408 35908776 35977560 36048876 
3254.570 36123008 36199208 36276500 36353340 36428748 36502192 36573412 
3257.945 36642696 36709900 36775168 36838280 36899708 36959408 37018512 
3261.321 37077832 37138104 37200256 37264768 37331420 37400500 37471072 
3264.696 37542704 37614852 37687484 37760632 37835348 37912752 37993716 
3268.071 38079104 38168528 38261224 38355792 38450228 38543312 38634348 
3271.446 38723524 38811596 38899900 38989348 39080372 39173336 39267664 
3274.822 39362660 39457936 39553268 39648624 39744580 39841896 39941456 
3278.197 40044632 40151904 40263604 40379804 40499996 40623500 40750092 
3281.572 40879968 41013848 41152684 41297032 41446972 41601228 41758492 
3284.947 41916764 42075092 42233264 42392688 42555032 42721928 42894336 
3288.323 43071904 43253604 43438016 43624120 43811844 44001736 44195088 
3291.698 44392856 44595856 44804168 45017356 45235392 45458284 45686292 
3295.073 45919912 46159076 46403680 46652920 46905668 47161324 47419984 
3298.448 47681680 47947160 48216800 48490944 48769596 49052844 49341028 
3301.823 49634712 49935108 50243144 50559440 50884200 51217216 51558028 
3305.199 51906536 52262240 52624780 52994172 53369424 53749540 54133856 
3308.574 54522148 54914704 55313036 55718436 56131984 56553964 56983912 
3311.949 57420712 57863368 58311816 58766192 59227580 59696676 60173508 
3315.324 60657956 61149044 61646076 62148760 62657616 63172624 63694804 
3318.700 64223536 64757252 65294744 65834440 66375160 66917172 67460400 
3322.075 68005320 68551824 69099120 69646648 70194088 70741512 71289312 
3325.450 71838248 72387552 72935872 73480728 74018992 74548640 75068424 
3328.825 75578304 76078824 76569776 77050632 77518952 77972200 78408136 
3332.201 78825280 79223424 79602424 79962120 80300712 80615904 80905064 
3335.576 81166048 81398896 81605248 81788008 81949640 82091552 82212704 
3338.951 82310600 82381576 82422272 82430328 82404968 82345968 82253584 
3342.326 82128144 81969328 81776728 81550192 81289696 80995168 80666608 
3345.702 80303544 79905360 79471584 79002664 78499904 77965856 77403192 
3349.077 76814688 76202528 75568328 74913464 74239392 73548304 72842800 
3352.452 72125872 71400184 70667776 69929760 69187712 68442536 67697128 
3355.827 66953896 66216408 65487296 64768516 64060956 63365200 62681004 
3359.203 62008780 61349348 60703528 60072136 59455144 58852052 58261760 
3362.578 57683132 57115896 56560116 56016848 55487432 54972388 54472380 
3365.953 53987276 53516804 53060960 52619468 52192324 51779076 51378936 
3369.328 50990420 50612076 50242584 49880984 49527192 49181512 48844080 
3372.704 48514656 48192144 47875200 47561740 47250276 46939256 46627576 
3376.079 46314796 46000136 45683056 45363448 45042016 44720312 44400052 
3379.454 44083476 43771896 43465188 43161920 42859632 42555324 42246228 
3382.829 41930776 41608596 41280488 40947864 40612692 40276764 39941600 
3386.205 39608436 39278508 38952048 38629568 38310768 37995020 37681556 
3389.580 37370024 37059648 36750828 36443848 36139608 35838928 35542696 
3392.955 35251592 34966072 34686120 34411404 34140484 33871952 33603980 
3396.330 33335280 33065244 32794840 32525640 32260318 32001008 31748340 
3399.706 31502158 31260536 31020716 30780674 30538812 30295198 30050586 
3403.081 29806574 29564260 29324456 29087156 28851792 28618292 28386578 
3406.456 28157426 27931682 27710436 27494384 27283696 27078120 26876870 
3409.831 26679272 26484158 26290084 26096412 25902052 25706652 25511098 
3413.207 25316612 25125132 24938434 24758202 24584672 24417764 24256106 
3416.582 24098644 23944422 23792356 23641848 23492826 23344554 23196472 
3419.957 23048300 22900112 22753158 22609222 22470220 22337678 22211840 
3423.332 22091792 21975190 21859350 21742114 21621742 21497780 21371106 
3426.708 21243180 21115884 20990398 20867938 20748886 20632782 20518760 
3430.083 20405566 20291882 20176976 20060612 19943860 19828528 19716798 
3433.458 19610780 19511546 19418606 19330504 19244876 19159266 19072254 
3436.833 18983216 18892710 18802152 18712892 18626212 18542590 18462166 
3440.208 18384522 18308724 18234080 18159274 18083066 18004212 17921954 
3443.584 17835258 17744680 17650254 17552502 17452118 17349376 17244936 
3446.959 17140414 17037334 16938308 16845470 16760504 16683852 16614409 
3450.334 16550072 16487740 16424900 16359214 16289031 16214389 16134463 
3453.709 16049808 15960665 15867865 15772920 15678098 15585872 15497856 
3457.085 15414629 15335194 15257043 15177946 15095637 15009641 14920678 
3460.460 14830738 14741812 14655543 14572648 14492854 14415814 14341081 
3463.835 14268587 14198742 14131475 14066101 14001249 13935279 13866890 
3467.210 13795467 13721902 13647323 13573510 13500905 13429473 13357918 
3470.586 13284768 13208762 13129831 13048798 12967405 12886914 12808588 
3473.961 12732700 12658563 12585941 12514319 12443800 12374964 12308660 
3477.336 12245093 12184433 12126063 12068995 12011800 11953249 11891879 
3480.711 11826773 11758137 11686447 11613476 11541539 11472505 11408142 
3484.087 11348720 11293421 11240544 11188182 11135216 11081201 11026923 
3487.462 10973126 10920389 10868950 10817754 10765919 10712902 10659076 
3490.837 10605495 10554059 10505821 10461151 10419879 10380207 10341217 
3494.212 10301992 10262941 10225217 10190040 10158393 10130140 10104737 
3497.588 10081100 10058210 10035931 10013891 9992225 9970459 9948422 9924794 
3501.445 9899911 9874116 9848762 9825512 9806228 9791621 9781691 9775523 
3505.302 9772135 9770609 9770847 9772304 9775388 9779421 9783114 9785893 
3509.160 9786978 9787181 9788333 9792740 9802161 9817175 9836866 9858727 
3513.017 9880489 9900284 9917743 9933573 9949473 9966119 9984020 10002363 
3516.875 10019351 10033253 10043697 10050852 10056447 10061737 10067909 
3520.250 10074860 10082185 10087781 10090053 10087646 10079167 10063636 
3523.625 10040340 10008805 9968764 9920793 9865811 9805211 9740653 9673532 
3527.483 9604387 9533222 9459664 9383308 9304257 9223292 9141327 9059715 
3531.340 8979336 8900359 8822310 8744138 8664021 8580708 8493221 8401461 
3535.198 8306141 8209491 8113808 8022128 7936677 7858732 7787988 7723831 
3539.055 7663866 7606371 7549928 7494234 7439390 7386541 7336362 7288917 
3542.912 7243835 7199635 7154327 7106969 7055777 7000113 6939776 6875577 
3546.770 6808425 6740442 6674185 6611640 6555023 6504973 6460780 6420526 
3550.627 6381117 6339323 6292491 6239916 6181433 6119462 6056257 5994305 
3554.485 5935417 5880635 5829958 5783617 5740941 5701123 5663222 5625794 
3558.342 5587329 5546686 5503262 5457124 5409314 5361576 5315688 5273729 
3562.199 5236972 5206958 5183686 5167122 5154850 5143785 5129435 5106101 
3566.057 5069156 5016495 4949261 4872789 4793952 4720355 4656717 4604775 
3569.914 4562885 4527427 4495018 4462679 4428802 4393288 4356605 4318956 
3573.772 4280405 4240286 4197594 4152498 4105332 4057503 4010449 3965573 
3577.629 3923243 3883390 3845814 3810381 3777458 3747946 3722848 3702897 
3581.487 3688460 3679304 3675094 3675528 3679772 3686957 3695645 3702663 
3585.344 3703899 3694943 3671986 3633694 3582275 3522645 3462021 3407016 
3589.201 3361936 3327477 3302870 3284040 3267381 3249554 3227922 3200651 
3593.059 3167607 3128858 3085808 3040494 2995818 2954550 2919256 2891136 
3596.916 2869956 2854114 2841106 2828133 2812992 2795350 2775509 2755568 
3600.774 2737495 2723225 2714189 2710888 2713455 2721424 2734328 2751467 
3604.631 2771807 2793416 2813726 2829233 2836804 2833769 2819462 2795317 
3608.489 2764972 2733194 2705354 2683949 2670114 2661879 2656245 2648611 
3612.346 2636410 2617942 2594509 2568710 2544246 2524116 2509686 2500488 
3616.203 2493656 2486258 2474128 2453901 2423813 2383365 2334292 2279363 
3620.061 2222343 2166429 2114884 2069837 2032751 2005022 1987879 1982787 
3623.918 1991441 2015208 2054057 2106494 2168427 2233434 2292321 2334459 
3627.776 2350316 2334259 2288790 2224641 2157971 2103897 2070170 2058052 
3631.633 2062613 2076862 2093609 2107959 2117382 2122043 2123208 2122276 
3635.490 2119080 2112520 2100434 2081557 2056621 2028457 2000861 1978060 
3639.348 1962217 1952964 1947805 1943112 1935990 1926205 1915988 1909631 
3643.205 1911661 1926338 1954695 1996101 2047432 2104296 2162367 2216448 
3647.063 2261477 2293053 2306277 2298050 2267772 2219179 2159603 2100035 
3650.920 2051261 2020900 2012146 2023397 2049097 2081590 2112820 2135462 
3654.778 2143819 2135428 2111155 2075797 2036580 2000462 1972402 1954262 
3658.635 1944210 1938153 1931796 1921046 1904040 1881710 1857318 1835789 
3662.492 1822113 1819618 1829766 1851961 1884805 1927336 1979392 2042306 
3666.350 2116982 2204293 2302513 2410152 2526549 2654845 2804288 2990580 
3670.207 3233030 3546597 3940228 4415045 4966990 5589008 6270271 6991695 
3674.065 7711757 8360891 8848618 9079676 8998482 8609706 7972549 7170091 
3677.922 6284087 5386971 4533989 3769670 3127023 2620242 2245790 1982920 
3681.780 1804379 1681090 1590925 1522091 1470390 1435150 1416468 1411648 
3685.637 1414905 1420124 1421853 1417764 1409121 1399249 1392168 1389609 
3689.494 1390872 1392966 1393764 1391869 1388213 1384423 1382994 1384889 
3693.352 1391071 1400977 1413975 1429233 1445822 1462677 1478702 1493098 
3697.209 1505201 1514876 1522723 1528875 1533230 1533895 1528675 1514444 
3701.067 1490338 1457225 1419593 1383892 1356470 1341812 1341679 1353910 
3704.924 1374917 1400877 1428701 1457291 1487845 1522091 1561827 1607221 
3708.781 1656144 1703876 1745126 1773604 1784749 1777197 1752511 1715884 
3712.639 1674305 1634525 1601767 1578687 1564854 1558203 1555542 1554212 
3716.496 1552350 1549823 1548094 1549025 1554578 1565219 1579785 1595647 
3720.354 1608950 1617032 1617896 1611810 1600303 1585704 1570640 1556274 
3724.211 1543306 1531368 1520030 1509589 1501011 1496456 1498418 1510155 
3728.069 1533197 1567946 1612741 1664127 1716450 1764321 1803048 1829600 
3731.926 1845472 1854756 1862675 1873291 1885970 1895554 1893790 1872925 
3735.783 1829367 1766717 1694928 1626044 1570972 1536356 1523421 1531169 
3739.641 1556174 1595282 1644769 1700383 1756204 1803813 1831397 1827670 
3743.498 1783984 1702811 1598873 1498517 1425742 1392401 1397221 1430496 
3747.356 1478735 1529573 1573799 1606090 1624548 1630102 1624581 1609050 
3751.213 1584407 1551885 1515375 1480564 1454033 1440902 1443195 1459220 
3755.071 1484487 1514344 1543838 1569376 1588863 1601467 1605990 1602199 
3758.928 1589362 1568013 1540978 1512914 1488842 1473183 1467797 1471387 
3762.785 1480597 1491469 1501477 1510288 1520628 1535658 1558203 1587733 
3766.643 1620524 1650191 1670247 1675536 1664859 1640811 1609449 1579186 
3770.500 1556873 1546564 1548360 1559899 1576891 1594949 1611345 1624049 
3774.358 1632896 1638916 1643772 1648761 1655047 1662031 1667952 1670513 
3778.215 1667021 1656244 1638849 1617763 1596778 1579718 1568910 1563889 
3782.073 1563357 1564687 1565751 1565685 1564787 1563590 1562991 1562459 
3785.930 1560397 1555177 1545567 1531834 1516705 1503871 1497088 1498850 
3789.787 1510022 1528808 1552284 1576958 1600636 1621488 1639514 1654747 
3793.645 1667054 1675802 1679893 1678596 1673041 1665923 1662098 1666888 
3797.502 1683718 1713257 1752478 1794531 1829700 1848666 1843143 1810468 
3801.360 1755838 1692267 1635590 1598275 1586402 1597942 1626111 1660235 
3805.217 1689739 1706404 1705572 1688442 1661233 1633095 1611245 1599106 
3809.074 1595780 1597610 1600935 1603163 1604826 1608152 1616599 1632098 
3812.932 1654182 1679061 1700583 1711261 1705606 1682321 1647563 1612176 
3816.789 1588098 1584607 1604028 1642242 1690371 1737973 1774169 1790405 
3820.647 1784117 1759497 1727029 1698653 1683419 1684117 1698088 1718645 
3824.504 1737275 1747421 1744294 1727295 1699618 1668384 1641211 1624481 
3828.362 1621322 1631200 1650324 1672442 1691103 1701647 1701913 1693764 
3832.219 1682022 1673706 1674771 1688674 1715685 1752012 1791836 1828402 
3836.076 1856320 1873191 1879514 1879081 1876519 1876219 1879048 1883241 
3839.934 1885104 1880279 1865371 1839516 1803813 1762092 1718845 1679560 
3843.791 1648095 1626876 1615734 1612409 1613739 1616267 1617530 1617231 
3847.649 1617464 1622386 1637253 1666688 1712924 1774735 1845538 1914557 
3851.506 1968973 1994570 1981722 1929766 1850397 1763456 1689473 1641344 
3855.364 1620790 1622486 1638583 1662198 1688907 1716783 1745957 1776764 
3859.221 1809603 1843143 1875121 1902376 1921312 1929466 1924774 1906236 
3863.078 1874422 1831363 1780790 1729191 1684151 1653417 1642607 1652851 
3866.936 1680824 1718612 1756803 1785148 1795229 1785215 1759364 1727528 
3870.793 1701015 1687144 1687477 1698254 1712525 1723403 1727394 1724434 
3874.651 1718812 1716350 1722105 1737607 1761161 1787411 1810268 1823777 
3878.508 1824243 1810967 1786845 1757934 1731120 1713855 1711194 1724766 
3882.365 1752977 1791104 1832528 1868798 1892692 1898948 1887467 1863707 
3886.223 1837386 1819318 1816690 1830665 1856885 1887401 1913125 1925539 
3890.080 1920647 1898349 1864140 1825407 1789540 1761627 1743096 1733016 
3893.938 1729424 1731586 1739404 1753309 1774136 1801318 1833060 1866935 
3897.795 1899614 1928468 1951999 1970272 1983985 1994670 2003291 2009915 
3901.653 2014076 2014343 2008650 1995635 1974199 1944643 1908899 1870828 
3905.510 1834558 1804978 1785514 1777662 1781056 1793300 1810468 1828169 
3909.367 1842710 1851728 1854656 1852992 1849199 1846703 1847901 1854789 
3913.225 1867501 1885038 1904573 1922411 1935224 1940183 1935990 1924275 
3917.082 1908133 1892359 1881743 1879380 1886469 1902576 1925306 1952298 
3920.940 1980889 2009017 2034383 2055455 2069671 2074998 2070104 2055289 
3924.797 2032052 2004556 1977195 1953563 1935990 1924541 1918184 1915056 
3928.655 1913358 1912726 1912560 1913392 1914557 1915488 1914789 1910929 
3932.512 1903441 1892825 1880445 1868099 1857384 1848766 1842610 1838551 
3936.369 1836721 1837286 1841080 1848300 1858882 1872026 1885903 1898150 
3940.227 1907135 1911262 1909931 1903541 1892692 1878615 1862942 1847768 
3944.084 1835489 1828036 1826772 1832195 1843010 1856619 1870063 1880578 
3947.942 1886369 1887334 1884905 1881544 1878981 1878682 1880712 1884339 
3951.799 1888765 1892925 1896253 1898615 1899714 1899148 1896752 1892126 
3955.656 1885570 1878183 1871194 1865737 1862143 1860812 1860479 1860080 
3959.514 1859115 1857617 1855754 1854889 1855887 1859015 1864605 1871893 
3963.371 1880578 1890229 1900779 1911761 1923043 1933993 1943445 1950834 
3967.229 1955959 1958822 1960952 1963315 1967043 1972335 1978992 1985949 
3971.086 1992506 1997832 2001061 2002226 2001161 1997899 1992906 1986848 
3974.944 1981023 1976862 1975830 1978859 1986115 1996800 2009449 2022265 
3978.801 2034016 2043704 2051028 2056221 2059317 2060150 2059084 2055921 
3982.658 2050994 2045102 2038444 2031520 2024030 2015508 2005155 1993272 
3986.516 1980523 1968541 1959687 1955726 1957224 1964247 1974865 1987047 
3990.373 1998731 2008484 2015608 2020335 2023064 2024030 2023331 2021300 
3994.231 2017705 2013178 2008085 2002459 1996367 1989577 1981356 1971403 
3998.088 1960153 1948204 1937088 1928002 1921645 1918118 
##END=
