
##TITLE=Z240_2_d
##JCAMP-DX=5.01  $$ Nicolet v. 1
##DATATYPE=INFRARED SPECTRUM
##ORIGIN=UniL
##OWNER=Nicolet
##LONGDATE=2011/09/09
##TIME=11:38:47
##SPECTROMETER/DATA SYSTEM=Nicolet iS5
##DATA PROCESSING=
Ratio against background
%Transmittance->Absorbance
Truncated
ElementMultiply or ElementDivide
##COMMENTS=
Number of sample scans: 32
Collection length: 51.19 sec
Sample gain: 2.0
Background collected on: Ven Sep 09 11:29:40 2011 (GMT+02:00);
Number of background scans: 32
Background gain: 2.0
Sample spacing:  1.000
Number of scan points: 12415
Resolution points: 8192
Number of FFT points: 65536
Apodization: N-B fort;
Phase correction: Mertz;
Laser frequency: 15798.0 cm-1
Number of rejected sample scans: 0
Number of rejected background scans: 0
Bench serial number: ASB1000141;
##RESOLUTION=4.000
##XUNITS=1/CM
##YUNITS=ABSORBANCE
##FIRSTX=649.893372
##LASTX=4000.122314
##FIRSTY=0.079045
##MAXX=4000.122314
##MINX=649.893372
##MAXY=0.270662
##MINY=0.000851
##XFACTOR=1.000000
##YFACTOR=1.000000E-009
##NPOINTS=6950
##DELTAX=0.482117
##ZPD=6100
##XYDATA=(X++(Y..Y))
649.893 79045232 78846384 78660872 78516424 78424920 78381664 78373840 
653.268 78392856 78446320 78560336 78766728 79089672 79533376 80078168 
656.643 80690872 81341240 82018632 82734528 83516576 84391536 85373832 
660.018 86461488 87641920 88906432 90259872 91719360 93303352 95015656 
663.393 96834720 98714216 100600968 102450040 104223712 105896736 107432432 
666.767 108762080 109786592 110400024 110540312 110224808 109526760 
669.660 108524552 107265408 105763816 104022800 102058208 99917168 97678456 
673.035 95427768 93245480 91179440 89241768 87422552 85707064 84090152 
676.410 82579408 81188456 79927752 78795720 77778512 76855104 76003984 
679.785 75210592 74466904 73768312 73109688 72481784 71872328 71270112 
683.159 70668872 70070720 69483344 68917816 68381368 67875800 67396432 
686.534 66936584 66491684 66062144 65653256 65272404 64924664 64607464 
689.909 64309588 64011036 63689320 63323064 62896684 62405100 61852452 
693.284 61252272 60622292 59983716 59357128 58759176 58202656 57694864 
696.659 57238244 56832292 56474976 56164680 55901100 55685140 55517892 
700.034 55400620 55333060 55312136 55332116 55384172 55457428 55540484 
703.408 55624464 55704348 55779728 55854448 55933964 56023592 56126368 
706.783 56243420 56374840 56521548 56687292 56878596 57104144 57376428 
710.158 57711744 58130788 58662376 59339884 60193416 61240868 62471900 
713.533 63836256 65236136 66546568 67627240 68353448 68652400 68513368 
716.908 67995520 67209568 66308148 65459752 64816796 64521192 64681792 
720.282 65362640 66575764 68260416 70278328 72399416 74340744 75811768 
723.657 76549776 76403776 75360288 73556312 71234656 68695792 66233308 
727.032 64054616 62277468 60924896 59953852 59287924 58847952 58574440 
730.407 58422904 58362296 58368364 58415624 58481204 58550396 58617968 
733.782 58689156 58774048 58880848 59009688 59153684 59300952 59443028 
737.156 59578156 59712188 59853784 60009392 60178228 60353220 60524320 
740.531 60685352 60837944 60992684 61163464 61360068 61584180 61825596 
743.906 62067908 62292804 62487012 62646440 62774264 62877112 62961140 
747.281 63030316 63086064 63130320 63168100 63206696 63253836 63313828 
750.656 63385636 63462860 63537568 63605032 63666992 63732372 63813576 
754.031 63922696 64067060 64247392 64459428 64696596 64953180 65223692 
757.405 65503784 65787672 66068164 66338912 66596932 66845320 67093664 
760.780 67354608 67639368 67953168 68292712 68649608 69017120 69395480 
764.155 69799112 70255776 70807496 71504976 72399568 73540496 74960752 
767.530 76663648 78605400 80685120 82753200 84617784 86104688 87107608 
770.905 87635552 87832760 87955352 88312816 89142328 90535112 92361128 
774.279 94293736 95847960 96510768 95919320 93931928 90696808 86575936 
777.654 82071744 77675080 73745656 70501048 67985480 66121056 64759052 
781.029 63744420 62953980 62303740 61754312 61293060 60920016 60639172 
784.404 60456184 60379760 60420768 60592312 60906140 61369228 61984472 
787.779 62752820 63678152 64771712 66052964 67545984 69279104 71278808 
791.154 73568984 76175328 79125176 82448312 86174544 90321552 94883960 
794.528 99816128 105029816 110386608 115694288 120739240 125285896 129105896 
797.903 132027312 133954272 134906640 135020832 134551376 133824840 
800.796 133158760 132833184 133004576 133669976 134649728 135614336 
803.689 136159472 135856816 134394224 131645384 127708408 122882184 
806.581 117590320 112292720 107337440 102919920 99050560 95590920 92312976 
809.956 88983608 85450104 81660392 77674088 73617544 69649720 65909944 
813.331 62487892 59428248 56733092 54380588 52338784 50576936 49068388 
816.706 47787672 46710884 45815112 45078628 44485648 44026012 43694648 
820.081 43488592 43404588 43437468 43581772 43834092 44196484 44677304 
823.455 45290696 46053332 46978464 48073316 49333936 50744148 52270684 
826.830 53863624 55459124 56975564 58329704 59448460 60281724 60822084 
830.205 61111244 61244300 61348584 61575092 62077884 62978148 64354852 
833.580 66216288 68490096 71006056 73501760 75669008 77160608 77673856 
836.955 77020560 75155792 72205848 68428264 64179508 59819180 55650940 
840.329 51905192 48701652 46070608 43977504 42353748 41119684 40198572 
843.704 39529280 39058948 38742220 38543092 38431656 38387024 38397884 
847.079 38458804 38566232 38715196 38897184 39103284 39327400 39569204 
850.454 39835796 40137804 40486032 40886048 41336792 41832332 42366792 
853.829 42938192 43551000 44215412 44944040 45748656 46637720 47617748 
857.204 48696792 49885856 51203496 52674264 54325876 56190548 58302232 
860.578 60694724 63402616 66451148 69844216 73544424 77457208 81422880 
863.953 85202576 88521696 91095728 92665312 93063584 92232656 90243112 
867.328 87272968 83590352 79511136 75328840 71310792 67660192 64499436 
870.703 61892992 59849300 58338988 57306824 56684008 56398152 56369556 
874.078 56519848 56774624 57060800 57319900 57511752 57618316 57646884 
877.452 57626488 57601328 57615784 57707504 57896116 58177916 58526016 
880.827 58894964 59234488 59494968 59641096 59660028 59562308 59379200 
884.202 59152200 58926992 58740208 58614440 58559876 58577392 58665832 
887.577 58828788 59077600 59429652 59904596 60515752 61266204 62145092 
890.952 63130892 64194492 65304904 66435656 67563752 68670448 69740088 
894.327 70756912 71704920 72568944 73332256 73977896 74487632 74840552 
897.701 75016632 75000136 74784152 74375704 73797368 73086864 72288960 
901.076 71451616 70621616 69836464 69127328 68519384 68030784 67677312 
904.451 67471784 67422944 67537472 67819512 68271744 68897232 69700408 
907.826 70686416 71860720 73226896 74785528 76534760 78471448 80593408 
911.201 82899472 85389280 88060400 90905456 93912760 97067016 100355376 
914.575 103774728 107336888 111071232 115018504 119227000 123739352 
917.468 128580200 133745384 139187120 144809936 150446496 155865472 
920.361 160788512 164890272 167873664 169525248 169767008 168706800 
923.254 166642032 164054688 161501840 159576928 158829920 159645632 
926.146 162229824 166546912 172333824 179085520 186106832 192647680 
929.039 197912176 201217312 202100896 200322752 195902464 189067008 
931.932 180212752 169829024 158442720 146614624 134854640 123606008 
934.824 113244976 104023392 96095552 89529192 84315608 80403848 77720816 
938.199 76189856 75728048 76235744 77587128 79594624 82003944 84521608 
941.574 86805304 88532144 89454728 89417552 88398824 86498000 83920688 
944.949 80921744 77759920 74673992 71833632 69342304 67244584 65534800 
948.324 64178860 63128440 62336900 61761684 61366632 61123224 61005116 
951.698 60987996 61051256 61176740 61351292 61566960 61819596 62107088 
955.073 62427560 62778084 63154728 63553324 63970724 64405084 64855836 
958.448 65322584 65803908 66297844 66802232 67316456 67841600 68381016 
961.823 68938824 69517760 70117640 70736088 71368624 72011072 72661920 
965.198 73322176 73994904 74682880 75387288 76106744 76838568 77580592 
968.573 78332576 79097224 79878560 80680024 81502984 82345288 83203200 
971.947 84073184 84953616 85845368 86751776 87676056 88619376 89581200 
975.322 90560008 91555272 92569600 93608480 94678424 95785488 96932336 
978.697 98118688 99342056 100601384 101898512 103239032 104630456 106079472 
982.072 107589680 109160360 110787488 112465000 114186296 115942480 
984.964 117719216 119495056 121236968 122902808 124449512 125835704 
987.857 127032232 128026024 128820032 129432664 129891472 130235064 
990.750 130507232 130754264 131026360 131367744 131813440 132386488 
993.643 133094728 133934064 134893120 135960000 137126400 138388080 
996.535 139744400 141193568 142730880 144348672 146037840 147791136 
999.428 149605024 151477696 153405408 155378544 157377584 159376288 
1002.321 161346624 163263520 165112688 166891728 168608416 170277120 
1005.213 171915760 173545664 175190736 176879856 178646512 180521888 
1008.106 182531696 184689216 186992912 189427824 191971056 194600432 
1010.999 197294112 200032768 202796400 205557264 208281104 210932432 
1013.891 213478528 215900192 218193824 220367632 222431552 224387648 
1016.784 226222272 227907984 229409856 230695328 231746320 232562560 
1019.677 233163264 233582608 233871536 234096480 234332960 234671648 
1022.570 235205760 236014640 237160720 238673584 240550352 242759472 
1025.462 245252704 247976336 250870464 253874032 256916400 259905424 
1028.355 262735840 265290768 267449744 269113632 270203232 270662368 
1031.249 270456288 269562976 267974768 265703200 262787424 259297616 
1034.142 255324928 250976896 246355232 241539264 236589520 231544544 
1037.035 226431344 221277040 216112752 210974384 205904992 200947936 
1039.928 196148656 191556160 187214608 183159472 179402880 175919696 
1042.821 172635520 169422896 166127712 162578400 158626480 154185536 
1045.714 149239088 143852000 138148144 132299128 126486552 120871400 
1048.607 115593584 110747168 106382584 102514528 99126568 96182000 93631752 
1051.982 91425400 89514904 87856968 86418024 85169080 84083472 83135984 
1055.357 82297872 81537200 80822880 80123272 79411472 78668104 77880336 
1058.733 77043440 76160832 75244984 74317112 73405936 72548584 71784296 
1062.108 71150656 70681776 70402112 70326136 70459192 70797472 71328520 
1065.483 72029064 72867048 73796544 74758088 75689000 76522904 77202560 
1068.858 77690376 77968832 78043024 77934536 77676624 77305760 76854352 
1072.234 76351232 75817168 75266344 74709680 74155080 73611144 73089216 
1075.609 72603208 72169968 71807712 71531072 71349016 71261592 71260112 
1078.984 71327664 71443144 71586432 71738680 71884456 72011232 72106472 
1082.359 72158856 72160384 72110072 72019368 71914408 71839568 71850320 
1085.735 72008416 72378976 73017128 73966072 75252400 76880016 78826864 
1089.110 81038536 83434056 85899872 88300512 90504912 92390192 93867552 
1092.485 94895216 95476968 95658072 95508760 95116776 94568008 93936328 
1095.860 93287544 92673352 92135320 91710640 91428552 91308008 91350608 
1099.236 91533592 91801336 92060928 92196608 92071984 91551552 90533808 
1102.611 88959856 86833232 84216560 81226928 78014712 74732080 71530480 
1105.986 68533232 65826460 63466116 61475184 59851884 58578532 57627552 
1109.361 56967480 56562872 56379516 56382120 56532868 56794412 57125608 
1112.737 57481756 57819420 58095224 58271496 58322504 58234556 58008684 
1116.112 57657780 57204752 56677100 56102084 55506600 54913280 54339768 
1119.487 53800764 53306672 52864708 52480316 52156268 51893880 51691884 
1122.862 51545268 51443500 51367936 51293912 51190300 51024664 50772008 
1126.238 50418528 49967556 49438444 48866072 48292672 47757640 47295128 
1129.613 46926376 46658012 46484800 46391808 46358368 46359844 46371936 
1132.988 46372676 46344360 46277420 46171716 46036936 45890048 45753000 
1136.363 45648380 45593432 45599172 45668072 45794160 45964004 46158044 
1139.739 46353500 46524076 46643920 46690960 46647756 46504604 46259760 
1143.114 45918664 45491504 44991112 44432456 43830060 43198848 42554520 
1146.489 41911584 41283588 40681172 40110476 39572760 39065072 38582672 
1149.864 38120484 37675484 37247584 36839292 36454120 36095608 35766928 
1153.240 35470352 35208616 34984744 34801876 34662720 34568456 34517904 
1156.615 34508252 34535592 34597088 34691356 34818856 34981008 35179260 
1159.990 35413512 35682892 35984832 36317100 36676948 37061380 37465584 
1163.365 37882308 38300672 38707224 39088492 39430836 39723700 39959692 
1166.740 40133844 40243720 40289236 40272512 40198756 40075956 39915628 
1170.116 39730052 39532076 39333244 39142948 38969444 38821016 38706100 
1173.491 38634860 38618524 38666944 38788876 38990544 39276332 39650000 
1176.866 40116400 40682120 41355924 42147016 43064256 44115640 45308464 
1180.241 46650120 48150088 49818812 51668444 53710876 55955860 58410396 
1183.617 61077608 63955940 67035816 70294776 73695984 77177536 80653120 
1186.992 84021032 87158224 89940248 92254664 94000872 95108448 95540880 
1190.367 95297512 94414752 92960920 91033656 88741008 86197104 83514808 
1193.742 80788720 78098696 75505472 73045432 70737024 68581656 66568924 
1197.118 64681640 62901468 61213552 59608028 58080756 56633044 55268180 
1200.493 53989680 52799296 51696172 50677272 49739220 48879380 48097452 
1203.868 47395444 46776896 46244244 45797916 45433820 45144720 44920744 
1207.243 44751456 44628316 44544416 44494196 44473092 44475516 44495700 
1210.619 44528560 44571548 44626112 44697908 44797040 44935368 45124760 
1213.994 45376656 45699952 46101892 46588364 47162952 47826956 48578648 
1217.369 49412860 50322528 51299280 52336876 53431252 54581624 55789224 
1220.744 57056760 58387464 59785184 61256240 62809752 64457504 66213244 
1224.120 68088992 70092136 72222712 74472056 76822560 79246528 81709056 
1227.495 84166720 86565696 88849384 90957296 92830552 94422736 95699488 
1230.870 96644776 97261792 97574776 97631112 97496800 97264776 97046008 
1234.245 96957568 97127552 97673968 98695872 100276568 102472824 105317920 
1237.621 108824648 112986928 117779496 123151944 129033368 135323392 
1240.514 141890656 148592480 155266496 161740848 167853472 173437312 
1243.407 178332304 182401424 185525632 187623488 188656768 188628368 
1246.300 187578320 185573824 182709040 179094576 174851904 170114096 
1249.193 165001056 159608784 153998912 148188528 142160112 135876176 
1252.086 129306216 122445784 115334104 108052400 100724288 93499992 86524328 
1255.461 79938064 73851528 68331304 63407256 59069136 55277320 51970992 
1258.836 49080408 46536580 44271212 42226612 40356060 38622288 37001228 
1262.212 35477832 34044000 32695942 31430590 30244432 29133180 28092770 
1265.587 27120370 26215144 25376820 24604974 23897054 23248170 22652368 
1268.962 22104514 21602448 21147644 20744680 20399454 20116552 19898590 
1272.337 19746478 19660700 19642844 19696722 19826376 20034482 20319138 
1275.713 20672570 21080160 21520272 21968636 22396496 22773794 23073320 
1279.088 23270542 23349904 23307564 23153064 22907864 22599170 22256062 
1282.463 21900746 21545236 21191790 20836442 20474124 20104162 19732226 
1285.838 19369790 19031300 18728770 18470534 18260342 18098714 17985840 
1289.214 17922712 17910906 17950994 18041548 18178346 18354658 18563890 
1292.589 18800388 19059722 19336844 19625268 19914338 20191764 20446340 
1295.964 20670900 20865992 21040476 21209498 21390248 21599558 21852138 
1299.339 22159152 22529892 22971580 23486670 24069538 24701204 25349982 
1302.715 25969266 26504902 26907150 27133350 27158850 26978328 26605042 
1306.090 26066890 25400388 24650246 23860682 23073564 22327738 21651658 
1309.465 21063292 20569202 20165766 19843232 19590640 19399378 19264550 
1312.840 19184270 19156912 19179524 19246504 19351602 19489644 19657822 
1316.216 19855892 20083548 20337852 20612248 20896272 21179302 21454124 
1319.591 21719542 21980104 22243332 22516108 22800718 23093796 23387910 
1322.966 23675156 23949604 24209896 24459336 24705868 24960824 25237840 
1326.341 25553898 25927584 26374926 26906904 27522730 28207066 28928958 
1329.717 29648506 30325612 30926740 31434368 31847984 32182202 32459292 
1333.092 32703694 32937832 33178136 33437222 33725036 34049088 34415528 
1336.467 34827936 35287384 35793480 36345916 36947000 37601916 38316844 
1339.842 39095596 39937748 40836284 41779868 42754284 43744776 44737168 
1343.218 45713900 46655396 47538336 48337076 49030624 49605480 50057860 
1346.593 50392180 50615428 50729556 50726572 50585088 50274944 49766640 
1349.968 49038264 48085940 46927296 45602452 44167980 42686760 41227988 
1353.343 39854064 38617944 37563476 36718192 36093088 35680156 35455504 
1356.719 35382884 35420596 35532556 35689472 35872536 36072096 36283776 
1360.094 36506984 36745488 37009852 37320444 37704760 38195624 38819132 
1363.469 39584884 40482396 41481056 42538328 43602212 44621376 45544452 
1366.844 46317520 46891196 47221092 47273696 47034808 46511060 45729736 
1370.219 44729932 43560232 42272116 40912696 39532872 38187016 36931236 
1373.595 35827196 34929584 34274020 33871092 33704196 33740756 33943816 
1376.970 34288360 34767596 35394352 36197156 37215380 38498088 40096888 
1380.345 42066588 44455436 47284076 50520688 54050012 57679160 61124256 
1383.720 64053008 66152848 67139992 66826424 65156704 62241288 58364912 
1387.096 53932948 49419580 45225316 41607828 38676072 36406376 34703096 
1390.471 33441334 32506642 31803846 31258862 30822006 30458480 30147180 
1393.846 29879260 29654642 29478258 29355012 29286562 29269478 29297444 
1397.221 29362742 29458612 29580540 29725528 29892960 30082902 30297152 
1400.597 30537710 30805894 31101828 31423892 31769086 32134034 32516998 
1403.972 32918778 33343044 33793976 34274272 34782992 35316320 35869408 
1407.347 36439920 37029480 37643576 38289052 38971008 39690844 40446100 
1410.722 41232648 42046256 42882636 43734516 44585832 45409648 46169800 
1414.098 46826312 47350956 47736228 48002148 48191364 48364072 48587132 
1417.473 48917352 49398384 50048568 50857192 51786540 52781672 53786368 
1420.848 54750800 55640132 56438980 57151496 57807988 58462552 59188960 
1424.223 60057372 61114680 62371440 63801980 65360172 66995688 68672544 
1427.599 70367432 72066224 73758528 75430336 77065552 78654088 80200704 
1430.974 81729736 83278408 84891160 86604400 88441760 90416120 92541096 
1434.349 94843360 97368912 100179488 103332216 106851872 110700392 114785944 
1437.724 118997368 123235192 127421424 131478832 135317456 138799776 
1440.617 141742576 143957456 145256752 145501040 144623392 142627568 
1443.510 139588880 135636752 130957456 125765128 120273560 114703656 
1446.404 109251192 104089328 99379168 95243504 91752096 88903536 86630776 
1449.779 84823808 83368168 82187192 81255496 80598512 80265112 80298440 
1453.154 80705832 81455016 82475912 83682024 84995440 86344896 87684936 
1456.529 88999192 90307512 91652856 93082104 94644672 96374112 98291912 
1459.905 100409984 102725240 105216288 107833192 110505944 113127800 
1462.798 115553112 117623384 119176168 120099472 120376720 120104584 
1465.691 119461944 118636080 117789920 117026352 116393576 115907776 
1468.584 115560808 115325112 115144136 114926624 114545496 113841952 
1471.477 112677328 110985616 108823248 106361512 103826488 101416560 
1474.370 99246976 97365760 95786152 94518288 93587976 93027952 92854720 
1477.745 93055584 93582552 94368992 95342000 96446632 97657744 98978888 
1481.120 100437080 102068768 103911032 105993864 108345192 111001224 
1484.013 114009112 117424856 121295536 125635776 130392952 135414480 
1486.906 140458800 145173408 149127808 151887120 153035216 152280592 
1489.800 149543584 144996480 139045680 132206264 124998336 117810392 
1492.693 110860456 104249112 97981896 92036560 86422640 81195568 76463904 
1496.068 72365904 69016576 66469288 64702368 63645588 63206048 63297420 
1499.443 63853332 64818636 66141812 67771064 69643072 71686232 73827920 
1502.818 75975408 78018832 79823568 81192816 81875616 81583456 80058888 
1506.194 77219376 73265296 68649528 63863232 59249640 54945052 50942428 
1509.569 47187476 43641264 40296508 37184844 34353912 31837966 29652088 
1512.944 27783336 26200644 24866640 23745808 22806898 22018548 21350466 
1516.319 20777106 20281188 19860922 19526242 19289558 19154730 19110338 
1519.695 19128968 19178174 19231716 19286440 19365424 19506036 19737116 
1523.070 20062278 20463324 20911536 21383808 21869770 22377134 22926378 
1526.445 23540466 24232178 24999078 25827284 26700658 27610042 28555300 
1529.820 29545674 30594056 31711124 32903124 34170556 35507888 36905516 
1533.196 38349276 39821088 41299404 42763788 44195420 45579340 46898208 
1536.571 48133728 49269576 50285772 51164468 51890408 52451268 52833980 
1539.946 53026256 53025880 52845848 52515876 52074300 51550568 50955024 
1543.321 50276808 49495032 48595028 47586508 46507704 45415828 44362472 
1546.697 43369876 42427400 41498156 40540704 39529244 38472492 37412236 
1550.072 36409800 35514720 34744476 34083352 33495772 32947626 32421946 
1553.447 31926930 31488548 31134576 30874762 30693366 30549476 30389180 
1556.822 30148068 29757462 29158586 28322666 27286836 26160558 25081036 
1560.198 24145894 23384030 22773412 22269246 21823950 21395436 20953016 
1563.573 20482182 19988926 19496438 19037356 18640496 18316984 18057678 
1566.948 17838054 17630238 17411626 17173576 16923840 16682165 16471151 
1570.323 16305510 16189523 16118646 16086530 16087458 16116204 16166652 
1573.698 16227493 16283218 16317964 16321542 16298251 16268564 16262613 
1577.074 16302310 16394103 16528696 16690774 16867514 17053772 17252828 
1580.449 17473538 17725800 18014330 18338480 18691792 19066022 19452150 
1583.824 19841256 20221998 20577748 20887338 21128756 21283718 21345872 
1587.199 21323876 21243354 21141102 21059154 21039956 21116510 21313298 
1590.575 21644796 22114138 22711576 23408508 24159310 24896712 25540686 
1593.950 26015878 26257768 26230208 25932720 25399722 24691910 23879866 
1597.325 23037086 22224394 21486884 20858866 20362124 20009256 19804946 
1600.700 19745888 19823048 20024698 20340736 20762994 21284206 21894824 
1604.076 22577844 23305990 24045304 24753396 25385880 25902052 26264174 
1607.451 26443554 26423060 26196914 25771940 25165822 24408476 23539136 
1610.826 22604198 21656638 20743114 19899006 19143372 18476894 17887182 
1614.201 17354204 16858594 16384881 15926946 15490850 15092446 14752747 
1617.577 14489188 14310534 14214627 14190902 14222126 14288859 14372520 
1620.952 14457774 14537529 14614900 14702463 14816305 14969409 15165181 
1624.327 15397635 15656114 15931793 16221337 16525976 16847640 17185020 
1627.702 17530456 17871026 18194584 18494044 18770908 19032752 19289490 
1631.078 19547002 19804632 20054400 20284036 20480794 20633338 20735052 
1634.453 20783850 20784058 20744298 20677780 20599080 20519802 20446582 
1637.828 20379104 20311186 20231476 20126476 19986324 19807060 19595042 
1641.203 19364420 19133780 18917628 18721402 18540102 18359358 18161210 
1644.579 17927616 17648288 17324100 16969076 16608110 16269734 15979676 
1647.954 15753232 15596176 15504689 15469150 15474712 15499676 15516433 
1651.329 15488687 15379235 15166828 14871094 14557778 14302076 14146776 
1654.704 14086088 14087868 14116072 14145031 14160811 14159442 14143079 
1658.080 14115764 14080031 14035334 13977775 13902606 13806173 13686372 
1661.455 13543974 13381530 13204116 13018650 12834422 12661224 12507362 
1664.830 12377419 12269974 12177856 12089096 11987990 11859871 11694821 
1668.205 11490366 11254009 10999938 10746186 10507144 10291779 10103042 
1671.581 9939133 9795010 9662487 9530648 9386051 9216252 9015701 8791202 
1675.438 8563338 8357446 8194566 8080894 8008932 7962594 7925609 7887311 
1679.295 7846013 7808903 7786065 7785930 7808127 7842437 7870171 7870947 
1683.153 7830055 7748892 7648320 7561357 7515708 7519720 7565606 7638911 
1687.010 7727137 7821959 7919703 8018820 8118331 8216784 8313571 8409941 
1690.868 8509811 8618493 8740149 8875130 9018407 9159566 9285538 9385069 
1694.725 9453840 9499083 9539624 9597410 9683730 9795349 9915200 10020368 
1698.583 10085848 10091952 10032439 9922657 9797179 9691828 9627423 9601881 
1702.440 9599340 9599103 9583115 9538133 9456243 9337366 9188433 9022467 
1706.297 8853115 8691165 8542116 8405650 8277873 8153071 8027326 7898479 
1710.155 7768018 7639990 7518979 7408988 7310954 7223553 7143918 7069349 
1714.012 6998429 6931460 6868878 6809636 6748989 6680242 6597107 6499356 
1717.870 6395541 6301064 6231177 6194977 6192692 6216925 6256589 6301030 
1721.727 6342820 6379300 6411951 6444436 6480589 6522228 6568546 6617325 
1725.584 6666581 6714967 6761845 6805665 6843800 6872143 6886652 6885743 
1729.442 6871773 6850296 6827442 6806405 6783216 6746061 6676507 6556571 
1733.299 6377855 6151959 5911031 5695953 5535109 5434779 5382676 5358322 
1737.157 5342824 5321189 5285904 5236267 5177516 5117701 5064564 5023400 
1741.014 4996150 4982542 4981201 4990585 5008450 5032551 5060005 5088969 
1744.872 5118841 5150122 5183552 5219969 5257597 5293450 5322765 5341180 
1748.729 5345273 5333398 5305391 5262560 5207528 5144389 5078811 5017836 
1752.586 4967795 4932672 4912632 4903149 4895910 4881770 4851981 4802931 
1756.444 4737941 4666061 4598915 4544536 4504828 4475165 4447180 4411329 
1760.301 4361559 4296601 4220646 4141158 4066233 4001955 3950860 3913079 
1764.159 3887402 3871923 3864067 3860423 3856712 3848589 3833647 3812454 
1768.016 3789557 3771375 3762451 3763253 3768701 3770172 3758173 3727359 
1771.874 3680240 3627479 3583244 3558055 3555750 3572086 3599448 3630319 
1775.731 3660959 3691368 3723616 3759610 3798515 3836288 3867410 3887068 
1779.588 3893587 3890009 3882354 3877439 3878910 3887134 3898802 3909835 
1783.446 3917358 3920902 3922674 3925482 3931568 3941130 3953368 3967345 
1787.303 3983162 4002089 4025330 4052754 4081284 4105199 4116872 4109781 
1791.161 4081050 4033558 3975337 3915954 3863465 3821312 3788722 3762652 
1795.018 3740560 3721143 3704434 3691134 3680474 3670416 3657919 3640510 
1798.875 3617356 3590394 3562832 3538713 3521075 3510319 3505643 3505676 
1802.733 3509217 3516399 3527756 3543089 3560995 3579402 3595672 3608268 
1806.590 3617957 3626410 3635665 3647393 3660692 3673624 3683348 3688828 
1810.448 3690733 3692136 3696948 3707542 3723984 3744303 3765058 3784310 
1814.305 3801791 3819674 3841268 3869750 3905957 3948821 3995400 4042721 
1818.163 4088709 4132962 4175681 4217333 4257718 4295631 4329531 4358312 
1822.020 4381506 4399447 4412233 4419965 4422643 4421271 4418526 4418894 
1825.877 4427062 4446611 4477576 4516244 4555317 4586960 4605478 4610067 
1829.735 4605880 4601527 4606182 4625069 4658057 4701095 4748861 4798174 
1833.592 4848296 4901507 4960723 5027891 5102010 5180098 5258469 5335344 
1837.450 5412166 5493296 5584644 5691186 5815383 5956445 6111263 6275851 
1841.307 6446790 6620757 6794962 6966947 7133914 7295184 7451491 7606573 
1845.165 7764443 7927296 8093350 8256597 8407678 8535762 8632924 8694782 
1849.022 8722029 8718918 8690895 8642118 8573813 8484976 8374301 8242110 
1852.879 8091663 7928309 7757696 7584285 7409999 7235076 7059852 6886214 
1856.737 6717525 6558656 6412590 6279515 6156193 6037744 5920033 5801481 
1860.594 5684237 5572495 5470613 5380093 5299722 5226307 5157197 5092355 
1864.452 5035065 4989681 4959918 4945943 4943765 4945809 4944368 4934783 
1868.309 4916955 4895173 4875470 4862603 4857912 4859286 4863340 4867595 
1872.167 4870980 4873694 4876107 4876844 4872890 4860827 4838077 4804539 
1876.024 4763199 4718479 4674736 4633877 4594863 4554815 4511055 4462177 
1879.881 4409354 4355266 4302725 4251930 4201843 4149688 4093592 4033992 
1883.739 3974367 3919096 3872391 3835652 3807106 3782973 3759544 3734945 
1887.596 3709781 3686756 3668277 3655379 3647494 3642782 3640143 3640377 
1891.454 3646157 3659823 3682813 3712922 3746175 3778093 3805368 3828165 
1895.311 3849759 3874363 3904252 3938924 3974401 4005366 4028943 4045162 
1899.168 4057604 4071751 4091920 4119314 4151862 4185383 4216564 4244134 
1903.026 4269630 4295497 4323004 4350949 4375682 4393053 4400585 4399447 
1906.883 4393857 4389506 4390142 4396267 4404668 4410225 4408986 4399781 
1910.741 4384552 4367349 4351686 4339169 4329430 4321867 4316211 4314705 
1914.598 4320260 4334416 4355367 4377322 4391347 4389104 4366914 4327690 
1918.456 4280707 4236505 4203114 4182238 4170161 4159791 4144469 4121723 
1922.313 4093224 4063858 4037805 4017137 4000417 3985135 3969251 3954104 
1926.170 3943237 3941264 3949991 3966977 3985670 3998143 3999012 3987108 
1930.028 3966710 3944775 3927790 3918996 3917224 3919197 3921437 3922240 
1933.885 3923008 3925549 3930665 3937051 3940997 3939459 3932036 3922072 
1937.743 3915887 3919765 3935714 3960657 3987508 4007205 4013726 4006503 
1941.600 3989816 3971090 3956243 3947416 3942769 3939893 3937319 3938021 
1945.458 3947517 3971826 4012355 4066333 4125235 4179863 4224493 4258889 
1949.315 4287834 4318052 4354397 4396434 4439346 4476069 4502417 4518554 
1953.172 4529904 4543029 4562449 4587596 4613114 4631666 4637460 4629289 
1957.030 4612209 4593590 4580263 4576044 4579527 4585688 4589740 4588802 
1960.887 4583009 4574136 4564090 4553376 4542628 4532918 4528431 4534793 
1964.745 4556489 4594528 4642885 4690779 4725714 4738745 4730236 4708397 
1968.602 4686927 4676913 4683410 4702335 4724207 4738611 4740352 4732582 
1972.459 4724575 4725882 4742363 4773349 4813149 4855835 4899295 4947518 
1976.317 5007679 5085248 5177952 5275439 5362616 5425921 5458366 5461822 
1980.174 5444240 5414514 5378886 5337524 5287580 5226073 5154716 5080219 
1984.032 5012841 4961728 4931064 4919267 4918731 4922283 4925702 4929187 
1987.889 4936492 4950668 4970845 4991055 5004060 5003121 4988072 4965516 
1991.747 4947183 4943999 4963035 5003121 5057256 5116762 5175136 5229259 
1995.604 5280638 5330581 5377443 5416862 5441959 5447461 5432799 5403275 
1999.461 5367648 5335344 5312434 5299823 5294255 5290230 5284730 5277049 
2003.319 5269469 5264304 5261655 5259475 5253975 5243344 5229225 5216113 
2007.176 5209071 5210546 5217421 5221881 5216146 5196395 5165647 5134129 
2011.034 5113744 5114750 5140064 5184424 5238179 5291773 5340141 5383616 
2014.891 5426357 5472324 5521081 5568669 5608072 5635092 5650735 5661745 
2018.749 5677321 5704749 5746179 5797754 5852357 5903676 5949055 5990743 
2022.606 6032369 6075241 6117480 6152563 6173501 6176492 6163856 6143288 
2026.463 6123730 6112573 6110221 6111095 6107163 6093151 6069059 6042280 
2030.321 6022223 6017855 6033679 6067076 6112943 6165940 6223009 6284322 
2034.178 6350755 6420492 6487854 6546076 6588763 6614331 6627856 6638756 
2038.036 6655915 6684414 6722068 6760835 6791461 6807044 6807583 6799270 
2041.893 6791125 6790216 6799876 6816300 6833702 6846156 6851138 6849926 
2045.750 6846931 6846931 6852350 6863997 6880256 6899040 6919138 6938833 
2049.608 6955500 6965061 6962671 6945197 6913988 6875240 6839188 6817243 
2053.465 6817377 6840165 6879078 6922573 6959169 6981695 6990617 6991459 
2057.323 6992907 7000888 7017152 7038367 7059212 7074940 7083865 7087468 
2061.180 7088816 7088748 7086592 7078274 7060088 7030958 6993648 6953749 
2065.038 6917590 6889513 6869787 6855615 6842790 6828653 6813406 6799808 
2068.895 6790351 6786245 6785773 6784966 6779615 6768509 6753162 6737447 
2072.752 6725837 6719746 6717256 6713824 6705546 6690202 6670147 6649590 
2076.610 6633508 6624828 6621362 6619041 6612581 6599259 6579647 6557781 
2080.467 6538507 6525289 6519099 6517417 6517081 6516409 6516072 6518696 
2084.325 6527239 6542779 6563332 6584962 6602657 6613221 6616316 6613624 
2088.182 6607367 6598856 6587216 6570295 6546782 6517855 6486912 6460376 
2092.040 6443730 6439728 6447563 6462798 6480084 6495421 6508067 6520007 
2095.897 6534269 6553106 6576115 6601278 6625904 6648648 6670417 6693432 
2099.754 6719712 6749797 6781062 6810343 6834611 6853696 6869753 6887460 
2103.612 6910958 6942335 6980180 7021327 7062041 7101513 7140752 7183566 
2107.469 7233021 7290298 7353144 7417380 7478896 7535903 7589679 7643565 
2111.327 7700930 7762385 7825231 7883970 7932797 7968432 7991010 8004476 
2115.184 8014331 8026044 8042413 8063543 8088152 8114922 8143246 8174105 
2119.042 8208546 8247074 8288309 8330662 8372275 8412913 8453825 8497343 
2122.899 8546001 8599870 8657531 8715808 8771828 8824203 8873913 8923087 
2126.756 8973958 9027710 9082857 9136183 9184744 9226372 9260558 9288788 
2130.614 9313093 9335030 9356087 9377519 9401524 9431321 9470771 9521537 
2134.471 9583351 9651138 9718120 9777692 9826122 9864117 9896488 9929641 
2138.329 9967543 10010500 10054751 10094021 10124409 10144318 10155849 
2141.704 10162870 10167924 10169586 10164193 10146183 10113047 10066145 
2145.079 10011585 9956322 9906285 9862218 9820428 9774439 9719578 9655135 
2148.937 9585790 9518489 9459528 9410361 9368106 9326261 9279275 9224714 
2152.794 9165116 9105053 9048144 8993070 8935162 8868671 8791370 8709622 
2156.651 8636710 8591996 8591049 8639009 8727708 8838303 8948995 9042596 
2160.509 9112362 9160040 9192392 9214797 9228403 9230603 9218418 9189380 
2164.366 9145827 9091519 9030721 8964960 8893223 8812436 8721657 8623258 
2168.224 8523564 8432778 8357176 8301176 8262744 8235458 8211044 8183491 
2172.081 8149762 8110432 8069788 8031005 7997827 7972786 7957970 7953516 
2175.938 7959726 7972786 7986049 7991078 7979839 7948117 7898547 7839603 
2179.796 7783130 7739482 7712566 7698536 7687473 7667272 7630211 7576665 
2183.653 7514764 7456008 7411920 7387889 7382362 7389473 7401640 7413706 
2187.511 7424492 7435109 7446232 7457861 7467435 7471682 7469390 7462412 
2191.368 7455199 7452637 7457322 7468311 7480582 7488942 7490223 7486244 
2195.226 7481930 7483683 7496156 7517967 7543792 7565066 7575215 7571742 
2199.083 7557379 7538263 7520799 7508865 7502089 7497234 7490223 7478559 
2202.940 7462682 7444749 7427188 7411651 7397225 7382733 7366759 7349976 
2206.798 7334104 7321703 7314121 7310448 7308258 7305091 7300305 7296060 
2210.655 7295757 7303069 7319513 7342899 7368174 7389912 7403764 7409392 
2214.513 7409662 7407269 7405820 7405617 7404977 7402146 7396989 7391496 
2218.370 7389878 7396180 7411752 7433660 7456749 7474547 7482503 7480413 
2222.228 7471345 7460626 7452671 7448558 7447008 7444817 7438783 7427525 
2226.085 7412324 7394967 7377408 7360221 7343068 7325410 7308393 7294948 
2229.942 7288512 7292050 7304854 7322579 7338923 7346977 7343303 7328544 
2233.800 7307954 7287569 7273215 7267285 7268734 7274428 7281335 7288074 
2237.657 7295689 7306337 7321332 7340405 7361029 7379868 7394495 7404708 
2241.515 7412156 7420077 7431098 7445895 7464064 7484087 7504988 7527204 
2245.372 7552760 7583172 7619016 7658470 7697557 7731555 7757055 7772268 
2249.229 7778003 7776586 7770345 7761339 7751018 7740460 7731353 7726091 
2253.087 7727710 7738065 7756853 7781612 7808094 7831675 7848881 7858328 
2256.944 7860183 7855224 7844225 7826918 7803101 7772977 7738672 7704067 
2260.802 7673106 7649770 7635674 7629469 7628592 7630379 7633145 7637832 
2264.659 7647240 7663293 7686428 7714590 7743125 7766803 7781713 7786470 
2268.517 7782253 7772066 7758708 7743934 7727980 7710239 7690374 7669363 
2272.374 7649466 7633583 7624579 7623500 7630245 7642857 7659212 7676850 
2276.231 7694488 7710778 7724911 7736884 7746430 7754525 7762418 7772201 
2280.089 7785188 7801650 7820441 7839333 7855595 7867067 7873376 7875771 
2283.946 7876210 7876783 7878201 7880428 7881912 7881406 7878302 7872903 
2287.804 7866594 7860824 7856405 7853875 7852997 7853503 7855865 7860757 
2291.661 7868686 7880090 7893991 7909109 7923719 7936711 7948286 7959625 
2295.519 7972482 7988344 8007716 8030195 8053890 8077181 8098751 8117724 
2299.376 8133456 8145204 8151923 8152261 8145171 8130654 8110027 8085619 
2303.233 8060100 8035697 8013589 7993406 7974474 7956249 7939039 7923956 
2307.091 7912955 7907691 7908535 7915283 7926149 7939680 7954428 7969782 
2310.948 7985442 8001034 8015817 8029216 8040084 8048253 8053789 8057265 
2314.806 8059324 8059459 8056557 8048995 8034920 8013758 7986421 7955204 
2318.663 7923078 7892810 7866425 7844562 7827526 7814908 7806035 7800031 
2322.521 7794802 7786976 7772639 7747914 7710576 7661101 7603302 7542949 
2326.378 7486312 7438682 7402112 7375858 7356716 7341214 7326926 7313380 
2330.235 7302361 7296195 7296902 7304282 7316918 7332048 7347381 7361535 
2334.093 7374409 7387013 7400663 7416133 7433525 7452603 7473064 7494504 
2337.950 7517057 7540656 7565133 7589848 7614665 7639788 7665957 7694252 
2341.808 7725315 7758843 7793284 7826108 7855595 7881372 7906240 7934956 
2345.665 7973528 8027461 8099528 8189062 8292057 8402576 8513359 8616735 
2349.522 8706309 8776561 8823831 8846927 8847299 8829715 8800229 8766250 
2353.380 8734537 8709216 8692145 8683153 8681091 8685317 8696776 8716586 
2357.237 8746505 8787212 8837492 8894610 8955354 9016682 9076800 9135439 
2361.095 9193475 9251622 9310181 9368716 9426614 9483471 9539556 9595478 
2364.952 9651849 9708837 9765730 9821682 9876048 9928929 9981614 10035356 
2368.810 10090494 10146284 10200182 10249779 10292662 10328628 10359745 
2372.185 10390048 10424461 10467159 10520791 10586584 10664136 10752605 
2375.560 10851488 10960145 11078415 11205624 11340762 11482235 11629064 
2378.935 11780266 11936083 12096421 12261385 12429820 12599653 12768219 
2382.311 12932414 13090457 13240939 13383819 13519294 13647255 13766532 
2385.686 13875443 13971685 14053027 14118399 14167794 14202474 14224042 
2389.061 14234622 14236060 14229761 14217195 14199255 14176729 14149891 
2392.436 14119015 14084138 14045908 14005356 13964191 13924399 13887792 
2395.812 13855533 13828167 13805763 13788455 13777100 13773680 13780589 
2399.187 13800495 13834769 13883139 13944073 14015075 14093824 14179503 
2402.562 14271840 14371938 14480555 14597628 14722000 14851859 14986009 
2405.937 15124284 15268094 15419573 15581510 15755294 15940936 16136974 
2409.313 16341358 16552033 16767494 16987334 17210564 17436008 17661400 
2412.688 17883040 18096746 18298562 18484604 18652116 18799246 18924480 
2416.063 19027594 19108504 19168650 19209550 19234382 19245984 19246920 
2419.438 19239058 19223612 19201204 19172702 19139564 19103448 19066576 
2422.813 19030814 18997200 18966602 18939432 18916934 18901120 18895408 
2426.189 18903196 18927942 18972176 19037114 19122872 19229048 19354616 
2429.564 19499140 19661670 19841152 20035906 20243972 20463358 20692758 
2432.939 20932016 21181980 21444168 21720134 22010950 22316820 22637496 
2436.314 22972382 23320884 23682086 24055180 24438656 24830960 25230992 
2439.690 25638178 26053310 26478558 26916632 27369936 27839714 28325742 
2443.065 28825980 29338316 29860272 30390566 30928162 31472448 32022410 
2446.440 32576208 33131394 33685932 34237952 34787048 35332528 35874624 
2449.815 36412320 36943504 37465692 37976252 38473180 38955604 39423468 
2453.191 39877200 40316248 40738920 41141612 41520356 41869584 42183744 
2456.566 42457684 42686540 42865776 42991892 43061916 43074172 43028148 
2459.941 42923892 42761964 42543192 42268140 41938404 41555940 41125076 
2463.316 40651516 40143328 39609964 39060792 38505256 37952128 37408376 
2466.692 36880984 36376468 35901004 35461076 35063044 34711564 34410540 
2470.067 34161848 33965884 33821196 33725680 33676372 33669676 33700972 
2473.442 33765572 33857084 33969400 34095932 34230496 34367612 34502656 
2476.817 34631824 34752340 34862620 34961436 35048244 35122348 35182604 
2480.193 35227588 35254684 35261620 35246632 35209044 35150160 35072276 
2483.568 34979036 34874108 34761024 34642768 34521528 34398888 34276316 
2486.943 34154604 34034004 33914116 33793508 33670036 33541620 33405658 
2490.318 33261262 33107794 32945230 32774366 32595600 32408736 32213390 
2493.694 32008820 31793826 31567398 31328694 31076876 30811086 30531062 
2497.069 30236724 29928422 29607426 29275256 28934094 28586192 28233868 
2500.444 27879320 27524954 27172854 26825514 26484792 26151972 25827776 
2503.819 25512116 25204902 24905938 24615984 24336560 24069258 23815946 
2507.195 23577544 23353084 23140554 22936788 22738564 22543782 22351458 
2510.570 22161940 21976548 21796566 21623238 21457328 21299240 21149522 
2513.945 21008794 20877776 20756878 20646020 20544396 20450958 20364902 
2517.320 20285946 20215054 20154104 20105376 20070674 20050930 20046212 
2520.696 20055336 20076470 20107736 20147060 20192562 20242202 20294244 
2524.071 20347124 20399142 20449638 20498368 20545196 20589978 20632538 
2527.446 20672394 20708674 20740578 20766992 20787082 20799664 20803140 
2530.821 20796154 20777386 20746556 20704748 20654082 20597864 20539776 
2534.197 20482636 20427898 20376430 20327332 20280460 20235850 20194056 
2537.572 20156708 20125090 20099824 20080878 20067378 20058148 20051866 
2540.947 20048154 20046350 20046280 20047528 20049646 20051866 20054226 
2544.322 20056656 20059674 20064012 20069704 20076158 20082612 20087504 
2547.698 20090212 20090594 20089448 20087748 20086430 20085840 20085318 
2551.073 20084276 20081884 20078032 20073520 20069460 20067482 20068350 
2554.448 20072340 20078726 20086394 20094202 20100934 20105654 20107460 
2557.823 20105240 20098090 20085076 20065748 20040174 20008564 19971302 
2561.198 19928146 19878506 19821348 19756048 19682300 19601144 19515082 
2564.574 19426888 19339960 19256860 19180044 19110616 19049924 18998586 
2567.949 18957222 18926210 18905202 18893332 18889076 18890736 18896932 
2571.324 18906760 18920154 18937320 18958606 18984186 19014094 19048192 
2574.699 19086206 19128068 19173604 19222122 19272688 19324198 19375472 
2578.075 19425814 19475504 19525722 19577988 19633452 19692734 19755562 
2581.450 19820932 19888218 19957840 20030736 20108742 20193118 20283862 
2584.825 20379520 20477250 20574378 20668608 20759694 20848958 20938622 
2588.200 21030876 21126632 21225192 21325234 21424220 21520898 21614846 
2591.576 21706306 21796250 21885416 21973586 22060206 22144228 22225162 
2594.951 22302868 22378356 22452426 22526262 22600950 22676698 22753752 
2598.326 22832566 22913454 22997188 23084010 23174104 23267360 23363924 
2601.701 23463936 23568554 23678936 23796416 23921876 24055146 24195252 
2605.077 24340800 24490324 24642916 24798964 24959068 25124252 25295434 
2608.452 25472236 25653678 25837870 26022772 26206416 26386934 26562876 
2611.827 26733218 26896576 27051954 27198252 27334330 27459510 27573214 
2615.202 27675014 27765074 27843954 27912532 27972250 28024588 28071208 
2618.578 28113484 28152584 28188928 28223118 28255120 28285000 28312656 
2621.953 28338084 28361004 28381200 28398674 28413744 28427928 28442610 
2625.328 28460300 28483048 28512202 28548576 28591182 28639100 28690460 
2628.703 28743946 28798680 28854626 28912030 28971318 29032670 29096332 
2632.079 29161634 29228436 29295778 29363272 29430104 29495598 29559826 
2635.454 29622220 29683412 29744156 29805226 29867476 29931368 29996940 
2638.829 30063868 30131802 30200740 30271254 30344160 30420808 30501986 
2642.204 30587836 30678074 30771392 30866402 30961930 31057196 31152268 
2645.580 31247572 31343792 31441812 31542276 31646010 31753078 31863992 
2648.955 31978856 32097462 32219954 32345980 32475256 32607674 32743316 
2652.330 32882002 33023876 33169162 33317786 33469968 33625780 33785452 
2655.705 33949656 34118580 34292632 34471660 34655540 34843520 35035280 
2659.081 35230284 35428540 35630124 35834752 36042144 36251428 36461976 
2662.456 36672764 36883080 37092520 37300944 37508348 37714624 37919836 
2665.831 38123812 38326764 38528900 38730916 38933712 39138272 39345356 
2669.206 39555704 39769668 39987556 40209444 40435224 40664616 40896932 
2672.582 41131412 41366856 41602760 41838496 42073924 42309300 42544432 
2675.957 42778744 43011060 43240316 43465116 43685416 43901944 44116484 
2679.332 44331868 44550808 44775660 45008092 45249440 45500520 45762204 
2682.707 46035980 46322832 46624000 46940108 47271112 47616528 47975800 
2686.083 48348184 48733416 49131052 49540488 49960792 50390768 50828880 
2689.458 51274152 51725996 52184628 52651036 53126148 53611004 54106232 
2692.833 54612128 55128704 55656096 56194280 56743624 57303572 57874044 
2696.208 58453756 59041536 59635968 60235892 60840268 61448768 62060684 
2699.583 62675952 63294312 63915788 64540260 65167912 65797812 66429332 
2702.959 67060448 67688768 68311368 68925192 69527832 70116896 70690120 
2706.334 71244696 71777176 72283280 72758672 73199440 73602784 73967600 
2709.709 74293992 74583072 74836464 75055584 75241560 75395376 75517896 
2713.084 75610120 75672824 75706040 75708960 75680008 75617104 75517736 
2716.460 75380352 75204408 74990960 74741912 74460576 74150400 73815544 
2719.835 73460472 73089736 72708496 72322144 71936264 71556304 71188088 
2723.210 70836600 70506744 70202960 69928592 69686208 69477632 69303280 
2726.585 69163384 69058096 68986904 68949696 68946360 68976064 69037704 
2729.961 69129624 69249448 69394816 69563880 69754880 69966272 70196616 
2733.336 70443768 70704896 70977152 71256952 71541696 71829288 72118368 
2736.711 72408104 72697720 72985768 73270944 73551168 73825056 74091488 
2740.086 74349944 74600568 74843664 75079768 75309608 75534376 75756056 
2743.462 75977736 76202336 76432976 76672104 76920800 77179200 77446520 
2746.837 77721600 78002808 78288648 78576776 78863976 79146128 79418472 
2750.212 79675976 79914648 80132400 80328936 80505376 80664296 80808384 
2753.587 80940552 81062856 81177320 81285296 81387464 81483392 81571744 
2756.963 81649904 81714448 81761608 81788168 81791288 81769008 81719536 
2760.338 81640912 81531240 81388632 81211592 81000272 80755672 80480088 
2763.713 80176792 79849128 79499912 79132168 78749128 78354512 77952928 
2767.088 77550328 77152256 76764112 76390576 76034376 75697672 75382208 
2770.464 75089104 74820048 74576536 74359032 74167928 74001784 73858392 
2773.839 73735280 73629912 73539432 73461496 73393304 73331032 73270552 
2777.214 73206352 73133056 73044688 72936064 72802280 72638968 72443376 
2780.589 72213360 71948896 71652200 71327272 70980232 70617952 70247208 
2783.965 69874216 69503880 69139064 68781880 68432760 68091672 67757624 
2787.340 67429136 67103760 66778740 66451380 66119248 65780848 65436020 
2790.715 65085104 64729860 64371996 64013996 63658208 63307344 62964736 
2794.090 62633312 62316324 62016460 61735444 61474152 61232628 61010340 
2797.466 60806956 60621800 60454928 60306008 60174840 60060912 59963328 
2800.841 59880788 59812144 59755680 59709524 59671848 59640300 59612856 
2804.216 59587088 59561584 59535400 59508456 59480984 59453624 59426576 
2807.591 59399220 59370804 59339812 59304484 59263084 59213944 59155088 
2810.967 59085004 59002100 58905056 58793128 58666168 58525144 58370976 
2814.342 58205688 58031252 57849664 57663496 57475440 57289316 57110152 
2817.717 56943112 56794788 56672116 56580876 56527396 56515848 56549320 
2821.092 56629116 56754764 56923924 57132712 57376316 57649192 57945332 
2824.468 58259108 58584940 58916824 59249032 59575268 59888588 60182532 
2827.843 60450736 60687524 60889020 61052364 61176740 61262616 61311912 
2831.218 61327976 61314736 61277076 61219616 61147292 61064412 60974916 
2834.593 60882500 60790908 60703108 60622868 60553192 60497240 60457820 
2837.969 60437980 60441104 60471380 60534568 60637000 60786260 60990968 
2841.344 61258992 61599568 62022040 62536484 63155688 63894444 64768480 
2844.719 65795040 66988804 68357944 69900408 71598544 73416880 75296256 
2848.094 77159216 78914080 80455808 81687696 82525920 82910184 82815064 
2851.469 82248576 81252776 79891024 78245272 76406104 74457112 72479160 
2854.845 70541120 68695056 66980688 65422608 64030736 62803744 61730708 
2858.220 60794948 59975232 59250172 58599804 58005696 57452820 56928868 
2861.595 56423624 55929212 55439960 54951704 54462800 53973508 53486524 
2864.970 53006040 52538764 52092720 51676020 51297680 50965640 50685428 
2868.346 50461588 50295072 50185192 50128144 50118288 50148000 50207544 
2871.721 50286444 50373464 50457828 50530812 50586688 50623692 50643276 
2875.096 50649868 50649716 50648416 50651020 50660668 50679468 50708364 
2878.471 50747836 50798448 50859984 50932592 51015048 51106432 51205288 
2881.847 51310916 51423056 51542356 51669712 51805732 51950564 52103440 
2885.222 52262876 52427752 52596540 52768764 52944240 53122928 53305324 
2888.597 53491356 53681672 53876944 54078536 54288512 54509492 54744148 
2891.972 54995064 55264944 55556000 55871216 56213852 56587368 56995660 
2895.348 57441780 57926516 58448452 59002632 59580360 60168068 60750628 
2898.723 61309468 61826092 62285384 62676064 62994004 63242072 63430572 
2902.098 63574844 63692504 63802368 63921392 64063756 64242052 64466076 
2905.473 64744480 65085420 65495924 65982648 66552012 67210344 67964296 
2908.849 68821712 69790704 70879232 72093800 73436656 74904928 76488048 
2912.224 78168120 79918024 81702176 83479952 85202696 86819672 88283376 
2915.599 89549560 90585160 91371832 91905936 92198776 92271920 92154488 
2918.974 91875064 91457552 90919344 90267952 89503128 88619008 87608752 
2922.350 86467920 85199032 83813296 82331712 80784048 79203064 77624568 
2925.725 76081472 74599512 73198696 71890520 70679592 69564856 68541304 
2929.100 67602040 66738672 65943152 65208988 64530648 63905648 63333220 
2932.475 62814736 62352620 61949732 61608272 61329044 61111208 60951736 
2935.851 60845872 60786680 60765220 60771664 60794528 60822660 60846176 
2939.226 60857688 60852924 60831884 60797616 60755732 60712440 60673920 
2942.601 60644240 60625040 60614296 60607248 60595096 60566752 60510684 
2945.976 60415932 60274868 60085644 59853368 59589900 59312040 59039980 
2949.352 58793128 58586572 58430636 58328340 58276992 58268696 58293024 
2952.727 58338800 58394248 58449360 58495764 58526280 58535724 58520444 
2956.102 58478248 58407892 58309772 58185380 58037124 57868896 57685556 
2959.477 57491780 57293060 57094016 56898160 56707904 56525092 56350468 
2962.853 56185040 56030116 55886928 55757092 55642240 55543348 55460928 
2966.228 55395200 55345552 55310932 55289932 55280788 55281088 55288464 
2969.603 55300732 55315972 55333512 55353156 55375852 55402464 55434048 
2972.978 55470792 55512924 55559916 55611204 55666120 55723372 55780296 
2976.354 55832780 55873628 55893788 55882784 55829348 55724088 55560592 
2979.729 55337012 55055880 54725092 54356440 53963152 53560136 53160972 
2983.104 52776284 52413320 52075796 51763172 51472408 51198576 50936952 
2986.479 50683640 50436356 50194788 49959636 49730972 49506728 49280936 
2989.854 49043568 48780976 48476904 48117068 47691036 47195824 46636876 
2993.230 46028428 45391036 44746496 44115784 43514116 42949056 42420712 
2996.605 41923152 41447628 40984968 40527680 40072104 39617044 39163616 
2999.980 38713852 38269804 37832744 37403644 36983152 36571860 36170612 
3003.355 35780312 35401288 35033732 34677180 34331144 33994980 33668636 
3006.731 33352416 33046938 32752820 32470326 32199506 31939734 31690166 
3010.106 31449578 31216846 30990754 30770042 30553956 30341780 30132832 
3013.481 29927428 29725670 29528260 29335904 29149090 28968344 28794148 
3016.856 28626820 28466738 28314212 28169236 28031376 27899388 27771786 
3020.232 27646480 27521742 27396016 27268666 27139804 27009922 26880148 
3023.607 26751506 26625438 26503634 26388518 26282726 26189276 26111012 
3026.982 26049932 26006450 25979116 25964412 25957200 25950730 25937610 
3030.357 25910598 25863330 25790858 25690554 25562440 25408576 25233204 
3033.733 25041898 24840712 24635202 24430488 24230180 24036654 23851300 
3037.108 23674738 23506816 23347316 23195494 23050782 22912092 22778788 
3040.483 22649958 22525040 22403962 22286650 22173588 22065016 21961492 
3043.858 21862870 21768764 21678440 21590922 21505196 21420810 21337694 
3047.234 21256786 21179094 21105900 21037972 20975236 20916612 20860394 
3050.609 20804532 20746904 20686468 20622774 20556070 20487082 20416368 
3053.984 20344588 20272024 20198984 20125922 20053498 19982784 19914616 
3057.359 19849892 19789478 19733266 19681604 19634700 19592234 19554210 
3060.735 19520350 19489886 19462234 19436972 19413792 19393280 19376510 
3064.110 19364696 19358806 19359396 19365736 19376510 19390230 19404886 
3067.485 19418920 19431184 19440404 19445358 19444802 19437076 19420930 
3070.860 19395464 19360956 19318344 19269988 19218660 19167438 19119204 
3074.236 19076478 19040576 19012050 18990348 18973732 18959714 18945246 
3077.611 18927698 18904856 18875856 18840524 18800006 18755824 18709744 
3080.986 18663184 18617322 18573056 18530626 18490204 18451586 18414528 
3084.361 18378128 18342144 18306270 18271158 18238018 18208336 18184048 
3087.737 18166012 18154404 18148322 18146422 18146838 18148426 18150394 
3091.112 18152744 18155716 18159620 18164318 18169742 18175512 18181524 
3094.487 18188158 18196070 18205814 18218148 18233216 18250734 18270466 
3097.862 18291996 18315152 18339830 18365820 18392750 18420058 18447266 
3101.238 18473748 18499298 18524126 18548468 18572986 18598266 18624378 
3104.613 18651666 18680480 18710920 18742918 18776236 18810006 18842704 
3107.988 18873018 18899492 18921988 18941094 18958642 18977088 18998344 
3111.363 19024168 19055012 19090708 19130596 19173776 19219454 19266386 
3114.739 19313114 19358080 19399344 19435274 19465630 19490856 19512724 
3118.114 19533414 19554696 19577226 19600762 19623918 19645412 19664132 
3121.489 19680426 19695404 19710382 19726506 19744016 19762532 19781398 
3124.864 19800124 19818816 19838308 19859638 19883466 19909656 19936992 
3128.240 19964016 19989100 20011616 20031776 20050616 20069876 20091184 
3131.615 20115580 20143832 20176006 20212000 20251714 20294834 20340736 
3134.990 20388828 20438038 20487186 20535088 20580700 20623296 20662248 
3138.365 20697276 20728552 20756428 20782146 20807174 20833766 20863732 
3141.740 20898532 20938690 20983304 21031016 21079952 21128616 21176762 
3145.116 21224600 21273036 21323250 21376186 21432020 21490294 21550180 
3148.491 21610806 21671406 21731664 21791234 21850082 21908170 21965186 
3151.866 22021232 22076346 22130664 22184292 22237648 22291008 22344972 
3155.241 22400194 22457274 22517014 22579414 22644548 22711680 22779940 
3158.617 22848246 22915828 22982584 23048650 23114762 23181548 23249742 
3161.992 23319416 23390812 23463658 23537946 23613648 23690624 23768418 
3165.367 23846538 23924642 24002196 24078890 24154792 24229794 24303900 
3168.742 24376512 24447034 24514690 24579062 24640144 24698504 24755010 
3172.118 24810260 24864746 24917660 24968194 25015292 25058432 25097678 
3175.493 25134258 25169052 25202970 25236084 25268464 25299404 25328696 
3178.868 25357006 25385178 25414476 25446062 25480316 25516790 25555128 
3182.243 25594490 25634768 25676562 25721032 25769022 25820920 25876272 
3185.619 25933706 25991604 26048420 26103132 26155632 26206276 26255762 
3188.994 26305080 26355000 26406122 26459154 26514656 26573020 26634422 
3192.369 26698756 26765602 26834184 26903872 26974310 27044970 27115750 
3195.744 27186186 27255508 27322934 27387544 27448744 27506668 27561954 
3199.120 27615656 27669576 27724598 27781958 27842082 27904936 27970304 
3202.495 28037700 28106308 28175528 28244794 28313752 28382368 28451242 
3205.870 28520870 28591748 28663772 28736478 28808558 28878954 28946560 
3209.245 29011238 29073586 29134668 29195194 29255902 29316656 29376710 
3212.621 29435566 29493080 29549682 29606682 29665322 29726664 29791102 
3215.996 29858212 29926826 29995908 30064258 30131516 30197544 30262656 
3219.371 30326856 30390460 30453612 30516488 30579552 30643334 30708302 
3222.746 30774452 30841890 30910054 30978476 31047052 31115782 31184732 
3226.122 31254054 31323742 31393334 31461798 31528308 31592160 31653244 
3229.497 31711624 31767696 31822312 31875868 31928678 31981140 32033178 
3232.872 32084942 32136172 32186198 32234338 32280232 32323670 32365184 
3236.247 32406058 32447976 32492180 32539640 32590210 32643284 32697514 
3239.623 32752070 32807096 32863236 32921602 32982870 33046902 33112336 
3242.998 33177208 33239584 33297964 33352308 33403762 33453864 33503968 
3246.373 33555188 33607664 33661228 33715616 33771160 33828572 33888752 
3249.748 33952200 34018880 34087652 34157328 34226336 34293992 34359972 
3253.124 34425176 34490352 34556472 34623496 34691000 34758080 34823664 
3256.499 34886888 34947576 35005936 35062648 35118364 35174016 35230032 
3259.874 35286740 35344136 35402080 35460536 35519432 35578548 35638364 
3263.249 35698720 35760164 35822696 35886644 35951824 36018524 36086856 
3266.625 36157720 36231764 36309208 36390628 36474840 36560976 36647560 
3270.000 36732904 36816388 36897904 36978064 37057952 37138536 37220652 
3273.375 37304232 37389124 37474828 37561128 37647736 37734756 37822480 
3276.750 37911344 38002032 38095312 38192444 38294408 38401900 38515360 
3280.125 38634384 38757832 38884608 39013884 39145236 39279232 39416176 
3283.501 39556684 39700284 39846072 39992460 40138132 40282652 40426712 
3286.876 40572060 40720544 40873852 41032820 41197164 41365692 41537456 
3290.251 41711728 41888336 42068376 42252540 42442012 42637740 42839552 
3293.626 43047500 43261288 43480316 43704140 43932040 44163544 44397556 
3297.002 44633712 44871504 45111048 45352708 45596932 45844200 46095148 
3300.377 46350072 46609984 46875988 47149104 47430108 47719364 48016544 
3303.752 48320852 48631308 48947544 49269912 49598796 49935032 50279040 
3307.127 50629984 50986544 51347052 51710544 52076880 52447380 52823804 
3310.503 53207976 53600356 54000748 54407816 54820000 55236756 55658096 
3313.878 56085080 56519320 56961696 57412504 57870864 58335808 58806176 
3317.253 59281428 59761192 60245864 60735344 61229156 61726696 62227256 
3320.628 62730232 63235244 63742348 64251000 64760400 65269248 65776268 
3324.004 66280708 66782212 67281288 67778728 68274880 68769696 69262200 
3327.379 69751640 70237120 70718152 71194880 71666696 72132136 72588440 
3330.754 73031784 73458160 73864600 74249416 74612848 74955600 75278128 
3334.129 75580040 75859624 76115232 76345344 76550488 76732872 76895328 
3337.505 77040584 77169592 77281208 77372352 77438520 77475864 77481960 
3340.880 77455624 77397296 77307888 77188304 77039000 76860088 76651200 
3344.255 76412264 76142632 75841280 75507488 75139760 74737512 74301032 
3347.630 73832200 73334256 72810704 72265680 71702104 71121728 70525680 
3351.006 69914384 69288664 68649296 67998040 67335992 66664376 65983608 
3354.381 65294704 64598544 63897668 63195468 62496500 61805040 61124788 
3357.756 60458240 59806140 59168568 58544368 57932916 57333516 56746076 
3361.131 56170484 55606460 55054188 54513360 53983860 53465952 52960408 
3364.507 52467944 51988992 51523816 51072440 50634680 50210112 49798560 
3367.882 49399832 49013564 48638976 48275196 47921220 47576156 47239304 
3371.257 46910428 46589252 46275424 45967756 45664616 45363744 45062564 
3374.632 44759352 44453052 44143956 43833392 43523168 43215320 42911236 
3378.008 42611864 42317224 42026692 41739160 41453136 41167184 40880148 
3381.383 40590900 40298648 40002416 39702060 39396984 39087296 38773192 
3384.758 38455696 38136184 37816296 37497944 37182676 36871392 36564652 
3388.133 36261948 35962800 35666236 35371884 35078920 34787300 34496844 
3391.509 34207444 33919276 33633196 33350200 33071678 32798626 32531746 
3394.884 32270416 32012920 31757250 31501624 31244832 30987444 30731204 
3398.259 30478314 30230970 29989768 29754056 29522054 29291312 29059982 
3401.634 28827502 28594508 28362278 28132186 27905006 27680698 27458698 
3405.010 27237798 27017502 26797990 26580136 26364716 26152746 25944574 
3408.385 25740016 25538718 25340076 25143808 24949874 24758308 24569138 
3411.760 24382646 24198650 24017744 23840274 23666620 23497162 23331898 
3415.135 23170014 23011092 22854114 22698902 22545736 22394892 22246924 
3418.510 22102214 21960132 21820188 21681298 21543322 21406852 21273280 
3421.886 21143748 21019540 20899992 20783988 20668954 20552456 20433004 
3425.261 20310178 20185204 20060090 19937442 19819198 19706534 19599446 
3428.636 19496990 19397402 19298738 19198884 19096316 18989932 18879732 
3432.011 18766790 18653292 18541726 18434474 18333262 18238398 18148980 
3435.387 18063584 17980038 17897402 17814786 17732634 17651566 17572270 
3438.762 17495062 17419454 17344790 17270136 17194842 17118632 17041090 
3442.137 16962494 16882808 16801900 16719664 16636167 16551172 16464647 
3445.512 16376279 16286004 16193993 16101142 16008345 15917804 15831025 
3448.888 15749419 15673460 15602427 15535113 15469082 15402750 15334748 
3452.263 15264216 15191224 15115227 15036566 14954697 14870065 14782982 
3455.638 14694648 14606641 14520433 14436604 14355225 14275162 14195147 
3459.013 14114018 14031364 13947904 13864803 13783530 13704872 13629407 
3462.389 13556417 13485045 13414642 13344421 13274314 13203604 13132392 
3465.764 13059963 12986148 12911080 12835753 12761395 12689506 12621142 
3469.139 12555994 12493175 12430946 12367225 12300991 12232347 12161670 
3472.514 12090799 12020861 11952568 11885852 11820032 11754494 11688557 
3475.890 11622495 11556783 11492339 11429606 11368957 11309914 11251731 
3479.265 11193384 11133550 11071005 11005104 10935985 10864227 10791870 
3482.640 10721087 10654119 10592865 10537696 10488101 10442178 10397785 
3486.015 10353195 10307522 10260634 10212971 10164973 10116676 10067569 
3489.391 10017113 9965408 9913233 9862253 9814632 9772168 9735334 9703686 
3493.248 9675124 9647614 9619090 9589043 9557880 9526854 9497525 9470365 
3497.105 9445441 9422110 9399424 9376842 9353921 9331001 9308015 9284895 
3500.963 9261132 9236458 9210905 9185116 9160514 9139127 9122851 9112903 
3504.820 9109282 9111076 9116354 9122750 9127588 9129653 9127622 9121261 
3508.678 9112023 9101940 9094090 9091552 9096763 9110771 9132968 9161596 
3512.535 9193442 9225898 9256563 9284793 9310249 9333844 9356189 9377586 
3516.393 9397731 9415948 9431287 9444053 9454246 9462914 9470771 9477984 
3520.250 9484081 9488280 9489127 9485503 9476732 9462407 9441920 9415237 
3524.107 9381717 9340886 9292410 9236458 9173915 9106304 9035762 8964284 
3527.965 8893359 8823797 8755701 8688021 8619980 8550935 8480686 8409536 
3531.822 8338328 8267708 8197842 8128021 8056557 7981830 7902157 7816763 
3535.680 7726529 7633549 7541162 7452131 7369354 7293600 7225272 7162983 
3539.537 7105251 7050928 6999036 6949338 6901700 6856086 6811588 6767330 
3543.395 6721697 6673007 6620319 6562659 6500365 6434112 6365616 6296626 
3547.252 6229093 6164998 6104979 6049437 5997698 5948350 5900048 5851249 
3551.109 5800675 5747925 5693066 5635965 5577361 5517692 5457594 5398209 
3554.967 5341113 5288084 5240896 5200888 5167893 5140902 5117835 5096579 
3558.824 5075023 5052395 5028763 5004596 4980832 4957773 4935487 4913403 
3562.682 4891286 4868467 4845012 4819817 4791674 4758174 4715532 4661205 
3566.539 4593691 4514637 4428936 4342951 4263373 4194550 4137946 4091719 
3570.396 4052788 4017037 3981289 3943738 3904285 3863599 3823083 3784143 
3574.254 3747712 3714225 3683381 3654878 3628014 3602287 3576663 3550271 
3578.111 3522679 3493852 3464293 3435136 3407517 3382505 3360633 3342001 
3581.969 3326375 3313454 3303070 3295158 3289382 3285042 3279733 3270252 
3585.826 3251991 3221046 3175017 3114541 3043964 2970496 2901743 2844442 
3589.684 2801920 2774775 2760270 2754034 2751233 2747265 2738229 2722558 
3593.541 2699752 2671414 2639810 2609009 2582042 2562310 2551612 2550179 
3597.398 2556478 2567410 2578509 2585309 2584242 2573576 2553811 2527815 
3601.256 2499754 2474394 2455067 2443771 2440040 2442672 2449236 2457966 
3605.113 2466430 2473062 2475328 2470929 2457667 2433842 2399790 2358178 
3608.971 2313639 2271869 2236731 2210354 2191471 2177185 2163466 2147915 
3612.828 2129601 2110489 2093409 2081257 2075131 2073866 2074665 2073067 
3616.686 2066109 2051361 2028690 1999829 1967709 1935457 1905804 1880578 
3620.543 1860646 1846403 1838251 1835822 1839416 1848666 1863840 1885171 
3624.400 1913259 1947872 1988246 2031387 2071669 2101000 2109524 2088981 
3628.258 2035581 1954628 1859647 1768912 1697356 1651288 1629370 1624382 
3632.115 1627774 1631898 1632497 1628871 1623118 1618861 1618661 1623118 
3635.973 1630235 1636454 1638516 1634559 1625180 1612542 1599904 1589628 
3639.830 1582611 1577989 1574065 1569077 1563124 1558070 1557305 1564122 
3643.688 1581813 1610613 1649592 1695194 1742963 1788276 1826139 1852094 
3647.545 1862442 1853757 1824176 1773936 1706703 1630069 1554744 1491868 
3651.402 1450044 1433422 1441068 1467631 1505034 1544370 1577390 1597443 
3655.260 1601401 1590227 1569077 1545434 1526879 1518667 1522557 1536988 
3659.117 1557737 1580350 1599971 1613606 1620158 1620856 1618694 1617231 
3662.975 1619692 1628605 1644769 1668917 1701381 1742897 1794664 1856885 
3666.832 1929367 2009549 2095606 2186843 2287591 2409052 2569577 2791716 
3670.689 3092283 3481059 3957749 4515708 5144187 5828849 6547690 7257919 
3674.547 7890347 8358291 8572090 8481361 8093890 7468614 6685861 5823946 
3678.404 4953115 4126673 3389150 2773708 2294785 1949269 1716417 1567979 
3682.262 1474745 1413675 1372956 1347562 1336494 1338954 1351085 1365544 
3686.119 1374485 1370529 1349889 1313097 1264876 1211710 1159348 1111444 
3689.977 1068826 1031859 1000640 976131 959361 951491 951657 958631 969423 
3694.316 981843 993666 1003662 1011599 1017909 1023024 1028238 1033984 
3698.174 1040760 1047901 1053747 1055341 1049063 1032058 1003828 966434 
3702.031 925956 889299 862938 850787 853675 869146 893284 922469 953849 
3706.371 986459 1020268 1055341 1091380 1126526 1157521 1180312 1191443 
3710.228 1187721 1167986 1133103 1086364 1033187 980282 934622 901717 885182 
3714.568 885249 900123 925657 956804 988385 1016415 1038435 1053946 1063412 
3718.907 1068095 1068992 1066601 1060688 1051920 1040561 1028338 1016481 
3722.765 1006186 997717 990212 982640 973740 963147 951591 940998 934191 
3727.104 933659 942193 960457 988352 1023688 1063346 1102409 1136326 1161009 
3731.444 1174000 1176392 1170877 1161508 1150910 1138518 1121244 1094669 
3735.301 1056437 1008179 956671 911545 881165 870375 879073 903676 939935 
3739.641 983603 1032822 1086099 1142139 1197091 1244041 1271888 1269961 
3743.498 1229852 1154996 1061286 974969 919116 903543 924694 970585 1026511 
3747.838 1079422 1120446 1145163 1153767 1149182 1135196 1114766 1089719 
3751.695 1062117 1035545 1014987 1005422 1009241 1025947 1050990 1078525 
3755.553 1103040 1120513 1129515 1131177 1127888 1121642 1113504 1103173 
3759.410 1090483 1076732 1064375 1057068 1057832 1067232 1083109 1101279 
3763.268 1116327 1124400 1124234 1117656 1108753 1102741 1102774 1109351 
3767.125 1120147 1131177 1138153 1138452 1131077 1117590 1101412 1086663 
3770.982 1076831 1073908 1078359 1089287 1104601 1122207 1139880 1156325 
3774.840 1171043 1184366 1196858 1208919 1219552 1226995 1228590 1222609 
3778.697 1208753 1189217 1168285 1150711 1139747 1136292 1138419 1142704 
3782.555 1145495 1144299 1138552 1129615 1119682 1110979 1104468 1100349 
3786.412 1098057 1097160 1097592 1100083 1105066 1112407 1120945 1129316 
3790.270 1136259 1141541 1146093 1151840 1160478 1172804 1187157 1200613 
3794.127 1209384 1210182 1201676 1185828 1167089 1151840 1145628 1151309 
3797.984 1168053 1191908 1215897 1231447 1231381 1210448 1169249 1114799 
3801.842 1060589 1020899 1005787 1018142 1053414 1102409 1152571 1191908 
3805.699 1211843 1208288 1185030 1151740 1121310 1103305 1101910 1115297 
3809.557 1138219 1164863 1190811 1215133 1238625 1263215 1289767 1316852 
3813.414 1339918 1352847 1349124 1324961 1282057 1229454 1180412 1147621 
3817.271 1139449 1156192 1191609 1234504 1272619 1294320 1291362 1262650 
3821.129 1215531 1163966 1122506 1101379 1102940 1122805 1153003 1184233 
3824.986 1210049 1226563 1234239 1236531 1238791 1245669 1259194 1278601 
3828.844 1300833 1321704 1337392 1345601 1346266 1341114 1333603 1327520 
3832.701 1326623 1333337 1348194 1370230 1396390 1422651 1444326 1457757 
3836.559 1460849 1453767 1439439 1421953 1405664 1392733 1383160 1375050 
3840.416 1365510 1351883 1333137 1309507 1282522 1254375 1227925 1205264 
3844.273 1188652 1179448 1178186 1184831 1198088 1216063 1236930 1259426 
3848.131 1283552 1310770 1343341 1383061 1430264 1480796 1526879 1557770 
3851.988 1560298 1525616 1453069 1355938 1256004 1175661 1128419 1115563 
3855.846 1129349 1159348 1195828 1232145 1264378 1291594 1314027 1332539 
3859.703 1347396 1358863 1366341 1369333 1367804 1361655 1350454 1334234 
3863.561 1313196 1288570 1264178 1244772 1235601 1240419 1259593 1289368 
3867.418 1322203 1349955 1364280 1360059 1338256 1306383 1275477 1255671 
3871.275 1251916 1262052 1279631 1295416 1301930 1295782 1278401 1256103 
3875.133 1236664 1227460 1231913 1248959 1274081 1301199 1323898 1337259 
3878.990 1339186 1330412 1315091 1299205 1289002 1289800 1303326 1328052 
3882.848 1359395 1390606 1413476 1421354 1410584 1382994 1346266 1311535 
3886.705 1289933 1288105 1306051 1338123 1375881 1409686 1430729 1434818 
3890.563 1421288 1395094 1363018 1332905 1310039 1296978 1293721 1298806 
3894.420 1311236 1329980 1354276 1382828 1413642 1443661 1469925 1489274 
3898.277 1500446 1504137 1502973 1500047 1498351 1499182 1501610 1503372 
3902.135 1500911 1491336 1473216 1446919 1414972 1381232 1350254 1325759 
3905.992 1310305 1304622 1307846 1318348 1333536 1350819 1367737 1382230 
3909.850 1393431 1401077 1406030 1409221 1412878 1418329 1427172 1439804 
3913.707 1455995 1474047 1491436 1505500 1513712 1514610 1508559 1497454 
3917.564 1484587 1473449 1466999 1466800 1473382 1485950 1503073 1522790 
3921.422 1542840 1560663 1573632 1578920 1574896 1561129 1539548 1513613 
3925.279 1488443 1468761 1457956 1456859 1464140 1477372 1493264 1508924 
3929.137 1522790 1533663 1541144 1544602 1543538 1537487 1526447 1511684 
3932.994 1495459 1480364 1468994 1462910 1461846 1464938 1470324 1477272 
3936.852 1484952 1493663 1503970 1516239 1530338 1544968 1557770 1566915 
3940.709 1570241 1566450 1555676 1538883 1518035 1496090 1475776 1460184 
3944.566 1450908 1448780 1453269 1462311 1472917 1481960 1487147 1487246 
3948.424 1482858 1475843 1469226 1465170 1465603 1470789 1479998 1491702 
3952.281 1503871 1514643 1522690 1526946 1527411 1524519 1519564 1514111 
3956.139 1510055 1508559 1510088 1513912 1518467 1521925 1523022 1521327 
3959.996 1517270 1512150 1507495 1504702 1504369 1506996 1511950 1519199 
3963.854 1528509 1539315 1551253 1563656 1575561 1585870 1593918 1599638 
3967.711 1603396 1606489 1609582 1613673 1618761 1624781 1631100 1637585 
3971.568 1644104 1650058 1654814 1658040 1658772 1656909 1652851 1647995 
3975.426 1644470 1644470 1649592 1660402 1675868 1694096 1712392 1728492 
3979.283 1740801 1748386 1751247 1749750 1744394 1736210 1726097 1715751 
3983.141 1706537 1699552 1695593 1694396 1695194 1696491 1697522 1697822 
3986.998 1697755 1697955 1699252 1701647 1705140 1708533 1710995 1712092 
3990.855 1711959 1711061 1710363 1710296 1710629 1710895 1710363 1708167 
3994.713 1704375 1698820 1691768 1683585 1674704 1665258 1656011 1647563 
3998.570 1640745 1636421 1634625 1635290 1637552 
##END=
