
##TITLE=Z240_3_c
##JCAMP-DX=5.01  $$ Nicolet v. 1
##DATATYPE=INFRARED SPECTRUM
##ORIGIN=UniL
##OWNER=Nicolet
##LONGDATE=2011/09/09
##TIME=11:55:35
##SPECTROMETER/DATA SYSTEM=Nicolet iS5
##DATA PROCESSING=
Ratio against background
%Transmittance->Absorbance
Truncated
ElementMultiply or ElementDivide
##COMMENTS=
Number of sample scans: 32
Collection length: 51.19 sec
Sample gain: 2.0
Background collected on: Ven Sep 09 11:46:17 2011 (GMT+02:00);
Number of background scans: 32
Background gain: 2.0
Sample spacing:  1.000
Number of scan points: 12415
Resolution points: 8192
Number of FFT points: 65536
Apodization: N-B fort;
Phase correction: Mertz;
Laser frequency: 15798.0 cm-1
Number of rejected sample scans: 0
Number of rejected background scans: 0
Bench serial number: ASB1000141;
##RESOLUTION=4.000
##XUNITS=1/CM
##YUNITS=ABSORBANCE
##FIRSTX=649.893372
##LASTX=4000.122314
##FIRSTY=0.081092
##MAXX=4000.122314
##MINX=649.893372
##MAXY=0.282847
##MINY=-0.001295
##XFACTOR=1.000000
##YFACTOR=1.000000E-009
##NPOINTS=6950
##DELTAX=0.482117
##ZPD=6100
##XYDATA=(X++(Y..Y))
649.893 81091560 80946104 80819680 80738712 80718208 80756352 80843512 
653.268 80971648 81141928 81370000 81675936 82075104 82568592 83141400 
656.643 83770136 84435072 85131424 85869792 86670376 87550544 88518288 
660.018 89571056 90703960 91920872 93240808 94690904 96297840 98069096 
663.393 99987736 102014208 104104272 106223288 108339880 110420408 112398424 
666.767 114141176 115461896 116170112 116171800 115525960 114399552 
669.660 112964064 111324920 109518664 107543536 105394312 103095080 
672.553 100704904 98300680 95965112 93755456 91695088 89783480 88008616 
675.928 86361032 84838272 83443168 82174904 81023512 79970008 78991104 
679.302 78065592 77181816 76336856 75533944 74776312 74063512 73388944 
682.677 72743552 72117664 71504936 70903296 70313360 69737136 69176752 
686.052 68634320 68113688 67620584 67163160 66747940 66377400 66045828 
689.427 65739944 65440336 65124100 64772324 64372376 63920276 63420140 
692.802 62881356 62316744 61738156 61157512 60585188 60030244 59501240 
696.177 59005628 58549068 58135340 57766164 57440568 57156256 56910472 
699.551 56700280 56525208 56386460 56287132 56230408 56217056 56244400 
702.926 56304560 56387668 56481996 56577820 56669736 56756576 56841052 
706.301 56927508 57022336 57130972 57258924 57411828 57595656 57817260 
709.676 58086852 58420288 58841008 59384100 60090628 61000272 62138896 
713.051 63499020 65027988 66617712 68125704 69390856 70264976 70657952 
716.425 70547984 69994728 69118432 68091320 67105496 66337524 65951212 
719.800 66072100 66772476 68065584 69882504 72070056 74374408 76485712 
723.175 78084816 78884160 78717552 77568984 75587448 73038568 70251072 
726.550 67546296 65151004 63192896 61695188 60608692 59847964 59326476 
729.925 58980884 58767328 58658512 58633820 58669888 58743964 58837672 
733.300 58940424 59051368 59175364 59316412 59472704 59636004 59794768 
736.674 59940996 60074036 60200648 60331100 60472940 60626332 60784124 
740.049 60935568 61072612 61194400 61308556 61426212 61556612 61702484 
743.424 61859212 62017608 62169328 62311008 62445272 62577360 62710404 
746.799 62842032 62963976 63066408 63142924 63194700 63231072 63265564 
750.174 63310756 63372672 63449740 63535340 63622796 63709616 63799336 
753.548 63899740 64019440 64164340 64335876 64532884 64752980 64995004 
756.923 65258504 65541348 65838032 66139264 66434308 66714988 66979372 
760.298 67232744 67485912 67749720 68029776 68325912 68633264 68949272 
763.673 69279768 69644008 70073520 70612608 71312544 72222792 73390120 
767.048 74844928 76588272 78574232 80700408 82814384 84723120 86253952 
770.423 87307280 87906824 88217200 88517640 89135456 90312288 92122656 
773.797 94394688 96742344 98608840 99415536 98761592 96504640 92832480 
777.172 88171528 83100880 78177832 73805616 70224696 67480568 65483824 
780.547 64067216 63057556 62315980 61745184 61294968 60943232 60681160 
783.922 60507024 60424080 60443196 60580540 60856544 61288828 61886916 
787.297 62652872 63584588 64682564 65956144 67425920 69119792 71071344 
790.671 73313112 75874024 78785080 82078864 85791144 89958016 94602896 
794.046 99721784 105264168 111128272 117151352 123105616 128735304 133757872 
797.421 137897552 140945504 142783120 143428688 143038432 141906736 
800.314 140412928 138927632 137783056 137177840 137138256 137504368 
803.206 137954304 138084208 137460256 135760896 132849784 128813520 
806.099 123939992 118644136 113377016 108480312 104143184 100370328 97015848 
809.474 93844112 90612512 87160008 83428152 79473536 75423480 71441416 
812.849 67672856 64212472 61108688 58363924 55954240 53844836 52002624 
816.224 50401040 49017716 47834652 46835756 46006032 45333984 44811180 
819.598 44431140 44188740 44078268 44093452 44229168 44483552 44860484 
822.973 45369592 46025296 46843068 47835024 49006628 50353112 51856948 
826.348 53482736 55176932 56869264 58468732 59881168 61022924 61835068 
829.723 62306380 62480164 62459008 62381040 62411300 62717788 63433788 
833.098 64647220 66373156 68541968 70984208 73436376 75587608 77087232 
836.473 77628176 77017800 75205984 72314200 68595936 64404504 60097248 
839.847 55977308 52275468 49111944 46517844 44458628 42865264 41656876 
843.222 40755556 40099248 39635336 39319640 39118332 39003992 38958176 
846.597 38971116 39037376 39152884 39310752 39501228 39713208 39939640 
849.972 40179712 40440204 40732228 41067672 41453896 41892720 42381916 
853.347 42918772 43504452 44144984 44850016 45629872 46492840 47443860 
856.721 48486608 49627732 50878388 52258092 53793000 55511604 57447752 
860.096 59636956 62116188 64924664 68093760 71633240 75509416 79626904 
863.471 83818640 87830888 91369256 94126000 95819000 96265000 95396976 
866.846 93286024 90119048 86179640 81802648 77299656 72954288 68982320 
870.221 65514268 62619380 60307684 58550092 57290412 56459320 55984960 
873.596 55788776 55794764 55931400 56128064 56327796 56490488 56596616 
876.970 56650748 56678380 56719912 56816468 57002388 57294724 57687524 
880.345 58151740 58640344 59101212 59482884 59748800 59884704 59900260 
883.720 59825452 59701576 59573440 59476540 59432920 59451576 59533044 
887.095 59676488 59887444 60179980 60575364 61097324 61762104 62573836 
890.470 63520268 64576476 65708220 66878252 68055000 69211024 70325000 
893.844 71380024 72360616 73251296 74037536 74703744 75233560 75610120 
897.219 75815192 75832512 75652280 75275408 74717560 74009368 73196032 
900.594 72326488 71450088 70611016 69842072 69167272 68603848 68163608 
903.969 67856784 67692600 67678200 67819704 68121288 68585928 69217432 
907.344 70020688 71001848 72166992 73520872 75064840 76797800 78717592 
910.719 80822272 83111872 85587600 88249352 91093160 94110568 97290304 
914.093 100623440 104110000 107764680 111618304 115712408 120094968 
916.986 124807680 129873960 135288368 141002672 146921232 152876000 
919.879 158632544 163906496 168360496 171682128 173639936 174139536 
922.771 173278624 171354016 168857488 166364384 164492112 163817776 
925.664 164751616 167522128 172112304 178269312 185488336 193060048 
928.557 200204224 206074192 209920848 211213632 209646688 205195952 
931.450 198076032 188702192 177612608 165399712 152700016 140090832 
934.342 128068520 117045392 107288480 98952424 92093816 86687576 82665336 
937.717 79938296 78418816 78015584 78622272 80105744 82267552 84838072 
941.092 87505632 89907768 91704048 92636112 92545936 91418576 89367736 
944.467 86617712 83441520 80112280 76879104 73915744 71326328 69152888 
947.841 67387376 65992676 64918084 64115292 63539908 63153656 62926056 
951.216 62829012 62836936 62928812 63086832 63298532 63556784 63857360 
954.591 64197296 64573020 64978964 65408780 65856880 66319300 66795164 
957.966 67285664 67792480 68316256 68856392 69410912 69978528 70559088 
961.341 71154752 71768464 72402976 73059232 73735912 74429976 75138816 
964.716 75861008 76597128 77348832 78117184 78901600 79700064 80509528 
968.090 81328568 82158288 83002272 83865336 84750984 85659312 86587216 
971.465 87529632 88481848 89442104 90412120 91396248 92398800 93422408 
974.840 94467216 95531512 96614472 97717496 98844664 100001416 101192552 
978.215 102420552 103685240 104985336 106321216 107696192 109116520 
981.108 110589160 112119312 113708000 115351816 117045088 118781616 
984.000 120556304 122363216 124192008 126024856 127832024 129574064 
986.893 131209048 132697328 134009976 135134256 136072896 136842160 
989.786 137467728 137984368 138432160 138853856 139296352 139801504 
992.678 140402496 141120832 141962784 142922944 143989168 145149648 
995.571 146396736 147727440 149142432 150640912 152218272 153866336 
998.464 155575808 157339536 159155552 161024432 162945776 164913328 
1001.356 166910752 168913792 170896160 172833584 174712272 176529952 
1004.249 178294800 180020464 181724128 183426016 185148560 186919168 
1007.142 188769696 190729536 192821808 195055792 197425328 199910320 
1010.035 202483216 205118592 207793536 210490224 213191536 215874544 
1012.927 218509808 221066304 223516272 225845344 228054896 230158528 
1015.820 232171664 234101440 235938544 237658400 239227168 240611776 
1018.713 241791360 242760800 243532208 244131600 244600704 244997104 
1021.605 245389536 245864288 246513392 247417632 248642544 250221696 
1024.498 252155744 254416400 256958240 259729712 262673408 265729424 
1027.391 268828224 271876608 274766816 277377696 279584000 281281920 
1030.284 282389024 282846944 282621280 281691584 280053376 277721856 
1033.177 274740672 271184640 267148352 262741600 258066080 253199040 
1036.070 248195568 243087696 237894576 232635248 227333648 222020752 
1038.963 216736096 211522944 206429216 201510496 196819440 192402240 
1041.856 188282736 184446000 180825968 177301344 173721104 169914832 
1044.750 165733616 161089888 155965104 150421808 144580976 138610656 
1047.643 132688344 126971152 121595080 116651176 112187600 108217904 
1050.536 104725288 101673256 99012728 96693624 94667960 92893008 91335320 
1053.911 89966864 88762064 87697056 86744248 85872776 85052304 84251720 
1057.286 83444608 82611840 81741248 80828344 79877128 78899336 77914872 
1060.661 76949824 76037888 75214536 74513552 73966616 73596976 73420016 
1064.037 73443528 73666656 74080648 74666200 75394232 76221440 77090912 
1067.412 77941792 78709800 79338872 79792712 80054024 80127736 80034544 
1070.787 79807400 79481336 79088288 78656072 78204296 77745776 77289088 
1074.162 76839640 76402664 75986024 75599992 75257992 74974896 74762304 
1077.538 74626032 74563440 74562840 74606120 74671872 74741480 74799968 
1080.913 74837480 74848152 74827408 74771400 74678328 74552296 74407592 
1084.288 74270840 74184792 74202240 74381400 74784032 75463096 76460392 
1087.663 77802176 79491992 81506936 83789792 86254640 88780560 91222968 
1091.039 93442168 95307752 96727400 97660360 98116944 98153744 97854656 
1094.414 97322976 96658888 95947544 95262240 94657032 94171688 93837456 
1097.789 93674712 93691776 93878504 94201072 94594328 94956896 95168256 
1101.164 95089352 94585352 93558144 91954080 89783152 87113712 84067632 
1104.540 80797896 77457248 74196344 71136952 68363376 65930732 63861892 
1107.915 62156448 60798416 59763244 59021912 58541828 58290256 58232396 
1111.290 58329096 58540272 58821012 59122172 59397132 59600616 59695112 
1114.665 59657252 59477220 59160860 58725264 58196744 57604848 56977568 
1118.041 56341832 55719232 55127088 54579144 54085364 53652428 53285132 
1121.416 52985300 52753316 52586144 52477028 52412908 52371936 52326188 
1124.791 52240936 52080540 51817488 51436824 50941536 50352740 49707044 
1128.166 49049248 48421340 47860512 47390644 47021216 46749736 46563616 
1131.542 46444348 46368468 46312176 46253200 46173044 46060996 45915572 
1134.917 45745600 45567272 45402036 45271648 45192996 45176600 45224508 
1138.292 45331008 45483228 45662960 45849244 46017744 46144632 46209896 
1141.667 46197256 46098056 45910744 45640288 45295956 44889216 44432676 
1145.042 43939004 43420696 42891268 42362956 41847180 41352316 40882224 
1148.418 40436168 40009756 39597404 39194076 38797500 38408596 38030784 
1151.793 37668256 37324704 37003248 36706688 36437972 36201152 36001032 
1155.168 35841340 35724440 35649836 35614336 35613256 35642428 35699116 
1158.543 35782292 35892332 36029792 36194272 36384648 36599148 36836044 
1161.919 37093964 37371212 37664284 37967356 38271320 38564276 38834600 
1165.294 39070692 39263780 39407792 39498652 39533780 39512116 39434496 
1168.669 39304728 39129968 38921604 38692120 38455004 38222836 38004816 
1172.044 37808744 37641880 37511096 37425672 37395768 37430980 37540392 
1175.420 37730704 38006336 38371748 38831848 39393064 40063672 40852556 
1178.795 41767724 42817100 44007564 45347264 46847016 48519252 50378416 
1182.170 52438744 54711524 57204864 59922244 62862404 66015972 69361392 
1185.545 72862976 76459880 80066576 83580672 86877536 89829120 92318584 
1188.921 94239680 95516152 96105560 96001480 95235504 93872704 92009496 
1192.296 89754312 87223632 84533968 81783528 79055608 76413368 73894336 
1195.671 71517280 69283504 67182576 65198020 63312560 61513548 59793132 
1199.046 58150188 56588048 55113244 53732028 52449212 51267252 50185824 
1202.422 49203036 48316780 47525728 46829596 46228284 45720676 45302872 
1205.797 44966676 44701652 44495080 44334764 44211524 44118648 44051792 
1209.172 44007496 43981464 43968516 43963936 43964852 43972808 43994220 
1212.547 44040788 44126312 44265160 44471112 44754432 45123180 45583168 
1215.923 46137776 46788484 47533936 48370036 49290916 50290052 51362376 
1219.298 52505072 53718340 55003980 56364880 57803936 59324460 60931720 
1222.673 62633924 64442092 66369912 68429928 70630120 72971504 75445280 
1226.048 78032832 80703840 83420200 86133256 88783648 91308536 93640424 
1229.424 95712960 97471832 98874864 99897736 100537728 100815640 100779232 
1232.799 100500136 100081856 99650504 99340056 99296616 99654504 100525576 
1236.174 102003392 104150848 107005080 110581256 114874568 119860168 
1239.067 125487072 131682080 138339472 145317728 152460512 159586832 
1241.960 166502624 173022912 178956736 184122160 188365056 191554912 
1244.853 193606368 194485056 194205888 192827664 190438848 187159392 
1247.746 183124608 178477744 173370384 167934336 162270112 156436640 
1250.639 150442992 144258224 137829136 131111216 124087936 116791376 
1253.532 109301264 101744952 94279984 87061080 80239088 73933576 68217840 
1256.908 63125992 58649368 54748020 51358984 48409704 45827812 43541004 
1260.283 41487692 39617548 37889900 36278268 34766588 33346050 32012600 
1263.658 30763178 29593098 28496952 27468722 26504162 25601202 24760026 
1267.033 23981116 23263690 22605068 22000738 21446604 20940672 20484024 
1270.409 20080634 19736076 19454852 19240028 19093060 19015098 19008106 
1273.784 19075438 19220356 19443694 19741590 20104266 20515670 20954094 
1277.159 21395958 21814786 22183524 22477896 22676316 22764680 22739576 
1280.534 22609956 22395380 22121042 21813636 21492942 21168690 20841414 
1283.910 20505630 20155598 19790622 19417360 19048920 18701408 18388496 
1287.285 18119926 17900338 17730664 17611158 17542774 17526662 17563370 
1290.660 17650806 17784030 17955966 18159654 18389846 18642846 18915204 
1294.035 19201862 19493906 19779836 20048364 20291500 20508478 20706450 
1297.411 20899366 21103604 21336022 21611712 21942812 22339598 22809656 
1300.786 23355532 23970436 24633868 25312258 25956850 26512438 26928618 
1304.161 27163754 27194618 27018490 26650944 26121606 25467914 24734418 
1307.536 23964240 23198080 22473082 21816250 21244572 20764106 20371292 
1310.912 20056968 19810424 19624576 19495190 19421136 19401110 19431808 
1314.287 19507456 19621630 19768810 19946634 20154938 20393272 20658182 
1317.662 20941368 21230028 21511080 21775628 22021058 22252296 22478420 
1321.037 22708400 22947196 23194234 23444596 23692898 23935600 24173498 
1324.413 24411526 24658206 24924676 25223056 25568202 25976232 26461514 
1327.788 27033512 27690164 28415194 29175808 29929984 30635228 31255442 
1331.163 31771972 32184090 32507784 32767146 32989200 33198238 33411742 
1334.538 33642932 33901824 34196436 34533616 34918200 35352832 35838820 
1337.914 36377764 36973556 37633136 38364404 39172644 40057640 41012280 
1341.289 42023116 43072744 44143148 45216088 46270416 47283264 48227872 
1344.664 49076216 49804728 50397988 50850788 51167340 51355180 51417988 
1348.039 51350480 51134832 50744484 50153468 49342848 48311820 47079744 
1351.415 45688728 44195788 42664568 41163284 39753256 38485960 37404040 
1354.790 36533980 35885744 35450756 35204556 35109848 35124252 35211024 
1358.165 35341620 35498540 35674292 35867500 36080160 36317564 36591292 
1361.540 36921244 37333840 37860764 38526944 39341332 40293124 41351988 
1364.916 42475624 43612580 44712120 45723180 46591280 47265200 47696544 
1368.291 47845788 47691924 47234204 46493504 45505340 44316968 42981612 
1371.666 41550544 40080716 38633988 37273472 36067992 35077844 34341756 
1375.041 33871164 33648088 33637384 33799384 34106968 34552740 35150480 
1378.417 35930912 36936936 38221352 39839284 41848896 44300236 47214148 
1381.792 50555568 54202392 57950484 61501180 64505668 66637180 67601304 
1385.167 67206904 65403008 62313952 58244480 53621088 48937156 44604448 
1388.542 40883388 37879704 35563300 33831544 32553066 31608946 30900306 
1391.917 30350448 29908154 29538404 29220958 28949820 28727946 28562554 
1395.293 28459168 28417954 28432528 28493732 28592174 28720866 28876332 
1398.668 29057220 29263310 29494322 29749480 30027722 30327744 30648064 
1402.043 30986982 31343114 31716044 32107238 32521498 32965570 33445488 
1405.418 33964668 34521632 35111000 35726020 36362276 37019700 37702516 
1408.794 38416852 39167644 39956532 40782012 41640868 42529632 43443764 
1412.169 44373960 45299748 46188004 46994152 47669808 48180260 48514360 
1415.544 48693124 48763852 48794992 48863916 49039864 49379972 49916448 
1418.919 50648972 51544744 52547248 53593492 54624496 55597648 56492224 
1422.295 57310112 58081700 58862104 59726404 60744300 61960016 63378848 
1425.670 64968608 66676044 68443928 70231200 72010992 73768264 75493888 
1429.045 77176784 78805656 80373904 81889824 83380488 84885168 86450616 
1432.420 88115920 89906624 91838016 93925592 96199128 98710384 101530824 
1435.796 104729544 108344432 112344264 116635400 121095672 125611616 
1438.689 130090504 134441632 138563552 142304656 145465792 147842448 
1441.582 149232176 149486448 148538192 146399248 143160192 138968800 
1444.475 134030152 128574400 122826792 117016152 111343712 105987144 
1447.368 101113208 96849920 93270416 90373400 88086944 86294528 84873968 
1450.743 83743136 82873568 82290296 82042120 82172056 82685384 83546976 
1454.118 84684584 86012112 87455624 88952992 90470064 91997776 93556168 
1457.494 95177664 96893488 98740584 100746976 102935208 105321800 107909480 
1460.869 110679824 113582952 116544480 119447896 122132136 124421056 
1463.762 126133784 127146464 127442520 127131816 126415584 125503224 
1466.655 124575744 123746536 123067128 122554216 122197896 121967528 
1469.548 121800952 121597616 121215760 120475752 119216712 117354736 
1472.441 114940440 112155128 109245400 106432880 103850264 101556896 
1475.334 99574568 97920448 96630080 95745256 95288816 95249816 95577256 
1478.709 96198624 97035448 98029560 99156504 100422720 101859424 103505176 
1482.085 105397568 107564336 110031208 112831888 116013496 119631808 
1484.978 123732792 128327760 133356080 138651552 143955152 148892320 
1487.871 153009120 155849120 156979792 156102928 153145712 148301888 
1490.764 142008080 134811024 127256464 119747432 112506208 105631400 
1493.657 99123072 92953952 87131208 81710056 76802504 72549712 69068128 
1497.032 66410064 64549336 63410976 62898332 62922800 63418104 64330108 
1500.407 65609208 67204384 69053744 71086336 73230072 75392848 77466000 
1503.783 79315248 80744136 81500736 81293248 79856856 77098904 73208624 
1507.158 68630472 63853912 59224692 54884700 50832308 47018336 43409092 
1510.533 40001760 36832152 33951232 31395294 29179032 27288108 25689674 
1513.908 24344550 23216466 22274232 21487614 20827856 20270322 19798390 
1517.284 19409390 19111758 18915550 18822220 18819244 18878624 18969128 
1520.659 19067544 19174988 19317686 19534456 19853084 20274592 20778706 
1524.034 21335850 21923886 22534742 23179346 23879970 24660730 25533552 
1527.409 26493456 27523684 28605798 29727798 30888210 32095500 33363224 
1530.785 34704172 36128732 37642024 39243216 40925476 42672536 44459952 
1534.160 46255852 48030088 49755976 51414108 52982568 54437712 55757164 
1537.535 56912252 57878060 58635260 59174152 59490824 59584844 59465976 
1540.910 59154596 58684604 58095868 57418444 56661504 55810324 54839176 
1544.286 53729104 52490040 51165436 49822044 48521176 47290544 46119944 
1547.661 44968108 43787988 42550684 41267228 39986320 38779348 37702988 
1551.036 36776216 35979180 35269020 34605480 33968432 33367016 32831896 
1554.411 32394030 32062500 31815324 31600502 31351094 30989152 30435486 
1557.787 29627894 28547550 27256566 25896144 24626188 23548650 22682494 
1561.162 21990838 21416598 20903852 20404630 19885306 19330954 18749458 
1564.537 18168638 17626582 17157306 16773660 16465886 16205756 15961388 
1567.912 15707333 15434575 15152829 14885838 14659073 14487373 14371904 
1571.288 14303960 14272833 14269957 14289338 14324780 14365911 14398447 
1574.663 14407867 14386597 14343136 14303172 14301014 14360602 14485899 
1578.038 14663117 14871231 15092104 15316864 15547648 15794430 16069923 
1581.413 16383816 16739532 17133832 17560058 18008564 18467662 18922714 
1584.789 19352260 19730042 20029938 20230260 20322956 20316916 20240014 
1588.164 20132690 20041596 20013838 20086708 20287610 20632886 21126632 
1591.539 21758732 22499356 23300046 24089188 24780616 25292940 25555270 
1594.914 25527614 25207676 24631380 23863446 22979404 22057940 21164132 
1598.290 20346116 19640870 19072288 18655230 18396240 18293516 18338100 
1601.665 18517624 18820040 19235388 19754420 20366534 21054388 21790574 
1605.040 22541374 23264424 23914664 24450818 24833732 25032808 25028700 
1608.415 24813136 24390952 23778672 23006340 22114940 21154044 20180276 
1611.791 19243802 18381756 17613882 16939342 16343731 15804600 15300595 
1615.166 14815893 14345123 13896413 13488942 13146122 12887051 12720348 
1618.541 12642632 12641438 12696943 12786373 12888212 12983962 13064471 
1621.916 13133144 13205688 13304173 13447689 13645203 13892410 14177483 
1625.292 14487304 14813905 15154236 15507677 15871989 16240289 16602360 
1628.667 16948608 17274516 17583174 17882728 18182354 18486264 18791632 
1632.042 19087418 19358600 19590016 19768774 19887768 19946740 19953122 
1635.417 19919784 19863038 19798494 19736354 19680080 19626622 19567832 
1638.792 19491828 19386142 19242140 19058370 18843154 18611582 18381550 
1642.168 18165942 17966984 17775950 17575412 17344478 17064798 16727617 
1645.543 16338468 15919317 15503384 15126376 14816957 14589542 14443935 
1648.918 14369541 14349985 14363444 14381871 14371322 14290399 14100190 
1652.293 13786882 13388603 12995126 12697114 12536998 12496143 12528506 
1655.669 12586555 12637788 12665386 12664158 12636629 12587782 12522095 
1659.044 12440527 12341794 12223623 12084599 11925935 11750749 11563452 
1662.419 11369672 11175671 10988486 10815750 10664103 10536508 10431181 
1665.794 10340096 10250423 10145403 10008805 9829273 9603642 9339769 9054336 
1669.652 8768785 8501837 8265749 8065164 7898243 7758708 7635910 7516349 
1673.509 7384519 7226013 7034763 6818118 6597779 6400922 6249160 6148497 
1677.367 6090597 6057904 6032906 6004450 5970487 5937668 5916272 5913517 
1681.224 5927893 5948014 5954564 5928263 5858436 5753868 5642880 5562527 
1685.082 5537827 5570313 5644525 5740639 5843928 5946603 6047051 6146851 
1688.939 6247816 6350586 6455097 6561818 6673142 6792168 6921024 7058337 
1692.796 7197343 7326083 7431233 7501920 7536813 7548276 7560515 7598446 
1696.654 7672567 7774326 7879854 7960637 7988344 7944337 7829448 7670172 
1700.511 7512236 7395473 7335856 7321838 7329116 7331441 7309572 7252022 
1704.369 7155506 7024762 6871335 6710526 6555225 6413498 6287247 6173165 
1708.226 6064926 5955807 5841073 5718917 5591559 5463365 5340141 5226307 
1712.083 5123165 5029333 4941352 4856002 4771440 4688502 4608559 4531545 
1715.941 4454745 4372737 4280573 4178391 4074762 3984131 3920534 3891782 
1719.798 3896696 3926954 3970990 4017538 4059878 4095699 4127376 4159690 
1723.656 4197327 4242293 4294058 4350314 4408785 4468169 4527259 4583779 
1727.513 4633609 4670516 4688468 4684181 4659095 4618907 4571155 4520663 
1731.371 4465290 4394895 4293556 4146309 3948787 3717066 3484466 3289782 
1735.228 3156392 3084007 3056177 3050404 3047735 3034922 3007028 2965825 
1739.085 2918889 2874392 2838805 2815593 2804555 2804655 2814593 2833602 
1742.943 2860284 2892571 2927329 2961622 2993016 3021375 3046867 3069958 
1746.800 3090180 3105564 3113373 3111438 3098790 3076432 3046667 3012333 
1750.658 2976168 2940171 2906513 2877761 2856315 2843208 2836937 2832902 
1754.515 2823197 2799619 2755335 2689483 2607675 2521916 2445404 2386230 
1758.373 2345252 2315704 2287691 2250220 2197599 2129568 2052559 1975664 
1762.230 1907734 1853591 1813529 1784749 1763756 1747820 1734713 1722571 
1766.087 1709132 1691868 1669449 1643140 1616932 1596246 1584640 1582146 
1769.945 1584041 1582345 1569376 1540912 1500712 1459319 1429466 1419992 
1773.802 1431959 1459352 1493829 1527644 1557504 1584374 1611544 1641743 
1777.660 1674771 1706836 1732484 1747122 1749983 1744793 1738306 1737142 
1781.517 1744527 1758865 1774934 1787278 1792401 1790472 1785248 1781821 
1785.375 1784549 1794664 1811167 1832229 1856453 1883341 1913392 1945442 
1789.232 1976296 2000329 2010614 2001161 1970138 1921213 1862842 1804812 
1793.089 1754308 1713855 1681889 1654415 1628439 1603030 1579053 1556939 
1796.947 1537121 1517536 1495558 1469326 1439007 1407492 1379570 1360093 
1800.804 1351617 1353678 1363217 1376812 1391770 1407326 1423848 1441566 
1804.662 1459552 1475710 1487645 1494029 1495459 1494727 1495392 1500180 
1808.519 1509656 1522324 1535359 1546099 1554212 1561362 1570340 1583443 
1812.376 1601434 1622619 1644570 1665757 1685947 1707169 1731885 1762059 
1816.234 1797725 1836754 1875720 1912493 1946141 1978160 2011480 2048231 
1820.091 2089048 2132665 2176186 2216848 2252318 2281462 2303679 2319102 
1823.949 2328230 2332394 2334559 2339256 2350649 2371671 2401822 2436374 
1827.806 2467963 2488924 2494189 2484725 2467697 2454034 2454401 2474594 
1831.664 2513351 2564577 2620575 2675648 2727726 2778343 2831034 2889302 
1835.521 2954516 3025613 3100725 3179022 3261639 3351818 3453672 3569747 
1839.378 3699989 3841937 3991354 4144168 4297773 4450795 4602900 4754456 
1843.236 4905930 5058261 5213463 5374693 5544539 5723080 5906598 6087607 
1847.093 6255278 6398299 6507966 6579714 6614196 6615811 6590378 6542510 
1850.951 6473829 6383638 6271682 6138483 5988493 5827506 5661645 5494907 
1854.808 5328333 5160650 4990451 4817940 4646033 4479417 4322202 4176350 
1858.666 4040313 3910671 3784410 3660358 3540650 3429058 3329280 3242210 
1862.523 3166138 3097021 3031452 2968027 2908882 2856915 2815260 2783746 
1866.380 2759336 2736662 2711288 2682349 2653578 2631643 2623109 2630776 
1870.238 2652478 2682449 2713756 2741463 2763604 2780211 2791916 2798118 
1874.095 2796884 2784979 2760270 2722658 2674514 2619775 2562211 2503720 
1877.953 2443805 2381732 2316504 2249620 2184245 2123808 2070071 2021666 
1881.810 1974599 1923875 1867001 1805244 1744094 1690837 1651455 1627874 
1885.667 1617564 1614205 1611278 1604693 1593685 1579918 1565951 1552916 
1889.525 1540479 1527179 1513114 1500512 1493663 1496988 1513214 1540679 
1893.382 1574530 1608584 1638317 1662896 1685415 1710928 1743163 1782586 
1897.240 1825174 1865604 1899115 1925073 1946374 1968507 1996467 2031786 
1901.097 2072734 2114119 2151245 2181115 2203693 2221344 2236065 2248787 
1904.955 2258546 2263942 2264708 2263143 2262576 2267139 2277731 2292387 
1908.812 2305378 2311241 2306178 2290555 2268272 2245024 2224641 2208023 
1912.669 2193037 2176719 2158038 2138392 2122176 2112887 2111622 2115417 
1916.527 2117581 2111289 2093043 2065143 2034682 2009183 1993205 1985416 
1920.384 1978992 1965412 1938785 1898050 1848733 1800020 1759131 1730322 
1924.242 1711660 1698354 1684982 1669615 1653883 1642574 1638916 1643239 
1928.099 1652652 1662198 1667752 1668085 1665457 1663561 1664925 1669648 
1931.957 1674671 1676234 1672575 1664925 1657442 1654082 1656377 1661832 
1935.814 1665191 1661000 1647164 1626776 1606556 1594084 1592954 1601068 
1939.671 1612043 1617830 1613207 1598108 1577557 1558702 1546398 1540213 
1943.529 1536057 1528243 1515109 1499847 1490338 1495159 1519531 1562393 
1947.386 1616666 1673507 1726663 1774003 1819418 1867401 1920414 1975797 
1951.244 2026659 2064577 2085185 2089014 2082389 2073034 2066841 2064644 
1955.101 2063013 2056121 2040941 2017838 1991474 1966544 1946074 1927836 
1958.958 1905904 1875587 1836321 1793033 1755572 1732750 1728193 1738372 
1962.816 1754308 1766218 1769445 1765685 1761494 1764820 1779891 1803447 
1966.673 1828535 1847335 1856819 1859947 1865171 1878415 1901577 1929200 
1970.531 1951932 1961218 1955693 1940649 1928967 1930731 1951300 1986615 
1974.388 2028257 2067440 2102099 2138425 2186276 2254250 2341488 2436308 
1978.246 2519517 2576143 2597342 2586309 2553012 2508719 2460166 2406387 
1982.103 2342188 2263409 2172157 2078394 1997899 1943944 1923210 1931929 
1985.960 1958289 1988079 2012246 2029289 2045834 2070470 2108492 2158338 
1989.818 2212152 2259312 2291954 2308776 2314838 2318036 2325498 2340056 
1993.675 2360477 2383998 2408119 2434142 2464531 2500854 2541746 2581042 
1997.533 2610375 2623442 2617809 2597408 2569476 2542446 2520816 2504687 
2001.390 2490690 2474594 2455834 2436374 2420681 2412118 2410252 2410785 
2005.248 2408353 2399457 2385797 2373603 2370072 2379200 2398057 2418215 
2009.105 2430177 2428677 2416449 2402722 2398890 2413150 2444538 2484692 
2012.962 2520783 2543080 2548912 2544513 2538880 2541113 2553912 2573809 
2016.820 2593842 2610975 2628176 2656645 2707721 2787880 2893038 3009564 
2020.677 3118980 3204656 3260938 3291118 3306476 3318362 3331650 3344372 
2024.535 3349881 3342368 3322335 3297561 3280134 3279667 3298262 3329113 
2028.392 3358863 3375559 3373556 3356459 3333854 3317527 3314121 3325006 
2032.250 3346910 3375826 3411057 3457112 3519305 3599815 3695311 3795407 
2036.107 3887736 3962664 4017839 4058005 4091987 4127811 4168422 4211010 
2039.964 4249287 4276992 4292485 4298877 4301487 4304699 4309753 4312865 
2043.822 4309418 4296534 4275720 4253469 4239115 4239449 4257685 4290645 
2047.679 4331639 4372771 4408049 4432886 4444937 4442192 4423547 4389271 
2051.537 4343720 4295430 4256514 4239951 4253804 4298509 4365374 4439782 
2055.394 4506435 4554447 4581536 4592419 4596705 4601594 4611071 4623227 
2059.251 4634011 4639369 4638498 4633107 4627112 4622692 4618639 4611841 
2063.109 4598513 4577551 4552471 4529134 4514001 4510352 4517114 4528699 
2066.966 4538442 4542125 4539714 4534525 4531177 4531578 4534090 4534123 
2070.824 4526690 4509514 4485577 4460837 4442125 4433020 4431580 4431212 
2074.681 4424149 4404066 4371298 4330267 4289841 4257752 4238914 4233962 
2078.539 4240219 4254305 4273646 4297672 4325615 4355769 4384385 4406442 
2082.396 4417957 4418024 4410158 4401187 4398041 4405170 4422810 4446476 
2086.253 4469575 4486649 4495051 4495219 4489796 4480823 4468370 4450761 
2090.111 4425655 4392652 4353928 4315007 4281911 4259592 4249654 4250725 
2093.968 4259425 4272408 4287466 4304499 4322938 4341813 4358379 4369759 
2097.826 4374109 4372804 4370629 4373808 4387899 4414810 4451866 4493579 
2101.683 4533487 4567673 4596336 4623160 4653134 4689975 4734558 4785041 
2105.541 4838311 4892459 4946882 5003087 5062150 5123601 5184524 5241130 
2109.398 5290230 5332291 5370197 5409314 5454172 5506584 5563735 5619618 
2113.255 5668123 5705185 5730600 5747690 5760885 5774216 5789191 5805309 
2117.113 5821529 5838420 5858671 5886882 5926583 5979154 6041877 6109146 
2120.970 6173871 6231244 6279750 6321067 6358925 6396853 6437172 6479815 
2124.828 6524178 6569622 6616753 6666346 6718804 6771941 6822224 6864569 
2128.685 6896145 6916782 6930249 6942301 6958597 6982267 7012943 7046785 
2132.542 7080025 7110909 7140381 7171540 7206877 7246362 7286693 7321534 
2136.400 7346370 7359614 7365377 7370803 7383474 7407471 7442322 7482503 
2140.257 7520057 7548680 7565032 7569449 7563684 7549085 7526564 7495346 
2144.115 7456479 7412594 7368713 7330970 7302260 7281638 7263309 7238647 
2147.972 7200881 7147758 7083460 7015300 6951964 6897188 6849926 6803544 
2151.830 6750672 6685524 6606593 6515972 6417836 6314847 6208993 6101283 
2155.687 5996959 5906027 5843458 5825592 5863977 5957890 6092950 6245665 
2159.544 6391204 6511262 6598990 6655949 6688956 6704099 6703493 6687308 
2163.402 6656050 6612851 6564980 6520310 6484490 6457518 6433607 6403511 
2167.259 6359631 6298979 6224690 6144364 6065901 5994305 5929203 5866731 
2171.117 5802321 5733689 5662651 5594915 5535612 5488800 5454138 5429444 
2174.974 5411629 5399015 5391667 5390191 5392707 5394486 5386601 5361207 
2178.832 5314447 5248374 5172420 5098993 5040361 5003624 4988474 4989178 
2182.689 4997188 5006473 5012942 5016159 5016159 5012003 5001445 4982106 
2186.546 4954053 4921512 4891521 4872119 4868333 4880831 4903785 4929790 
2190.404 4950903 4962566 4964946 4961695 4955729 4949663 4943094 4934917 
2194.261 4924964 4916251 4912465 4919267 4938436 4966990 4998596 5024707 
2198.119 5039054 5040060 5031344 5018741 5008216 5002752 5000540 4998060 
2201.976 4991222 4978453 4961896 4945072 4932035 4923959 4919938 4916284 
2205.833 4910353 4901640 4890918 4881233 4873895 4868467 4862134 4852618 
2209.691 4838579 4822430 4809263 4804841 4813183 4834089 4863608 4896212 
2213.548 4926405 4951774 4972788 4991558 5009892 5027355 5041769 5050451 
2217.406 5052429 5049211 5046026 5047099 5056082 5071838 5090042 5104189 
2221.263 5108481 5100334 5080722 5053334 5022528 4991055 4960153 4930158 
2225.121 4900501 4872219 4847056 4826450 4810804 4798006 4784572 4767085 
2228.978 4744774 4718747 4693459 4673162 4660703 4655947 4655980 4656784 
2232.835 4655511 4651559 4646971 4644225 4646067 4652933 4664219 4678252 
2236.693 4694396 4713053 4735864 4763333 4794153 4824306 4848396 4861866 
2240.550 4862737 4852450 4835932 4819012 4806415 4800519 4801424 4807822 
2244.408 4819180 4835999 4859587 4890448 4927243 4966286 5002484 5030841 
2248.265 5049445 5059636 5065704 5072341 5083404 5099529 5118740 5137951 
2252.123 5154850 5168731 5181071 5193779 5208299 5223759 5238078 5248005 
2255.980 5251828 5248877 5240560 5228588 5213799 5195725 5173627 5146534 
2259.837 5115421 5082934 5053300 5030540 5016931 5012473 5015624 5024137 
2263.695 5037143 5055077 5078979 5109788 5146367 5185363 5222384 5252902 
2267.552 5275205 5289627 5299253 5307236 5315285 5323302 5329306 5330581 
2271.410 5326656 5318204 5308443 5301064 5298313 5300695 5306430 5313206 
2275.267 5319277 5325247 5332560 5343998 5361106 5384052 5410488 5437530 
2279.125 5461419 5480444 5493631 5501886 5506819 5510376 5514470 5521249 
2282.982 5532625 5550781 5576220 5608810 5646304 5684808 5720864 5751148 
2286.839 5774114 5789997 5800037 5805678 5808063 5807962 5805645 5802690 
2290.697 5800877 5803362 5812395 5829521 5854272 5884666 5917716 5950936 
2294.554 5983084 6014025 6044262 6073897 6102022 6127259 6147892 6163553 
2298.412 6175518 6186945 6201128 6220455 6245261 6273666 6302644 6328968 
2302.269 6351024 6369617 6386530 6403914 6422813 6443192 6463437 6482002 
2306.126 6498582 6514794 6533731 6559262 6594179 6639564 6694812 6757403 
2309.984 6824278 6892139 6958967 7022236 7080833 7133409 7179826 7220488 
2313.841 7257312 7293061 7330228 7370668 7414987 7461907 7509236 7554580 
2317.699 7596659 7635134 7671184 7706697 7743563 7783535 7827491 7875198 
2321.556 7925642 7976161 8022837 8060540 8084337 8090346 8077654 8048725 
2325.414 8009539 7967589 7930974 7905768 7895105 7898411 7912685 7934180 
2329.271 7959287 7985880 8012982 8040253 8067155 8092507 8115428 8135617 
2333.128 8154117 8173160 8195580 8223301 8256935 8295199 8335965 8376869 
2336.986 8417069 8457170 8498796 8543264 8591016 8640563 8689171 8733726 
2340.843 8771930 8802867 8826976 8844458 8854366 8854299 8840163 8807939 
2344.701 8755802 8685553 8603453 8520185 8448184 8399536 8384808 8409941 
2348.558 8477307 8584864 8727303 8896267 9080996 9270847 9455668 9628168 
2352.416 9784944 9925743 10053191 10169892 10278276 10379562 10474422 
2355.791 10563260 10647497 10728729 10808820 10888009 10965751 11039667 
2359.166 11108224 11170436 11227180 11280634 11332837 11385182 11437226 
2362.541 11487100 11532522 11571585 11603709 11629404 11649212 11662962 
2365.917 11669871 11668612 11658196 11638763 11611809 11579480 11543376 
2369.292 11503635 11459169 11407938 11348652 11281791 11209466 11136133 
2372.667 11066008 11002657 10947538 10900716 10861306 10828896 10803793 
2376.042 10787352 10781340 10786707 10803691 10831682 10869663 10917263 
2379.417 10974756 11042862 11122332 11212798 11312397 11418278 11526941 
2382.793 11634781 11739584 11839610 11933768 12021474 12101532 12172642 
2386.168 12234188 12285653 12327715 12361122 12386862 12404795 12414102 
2389.543 12413387 12401522 12378475 12345578 12305183 12260226 12212751 
2392.918 12164191 12114786 12064601 12014150 11964727 11918681 11878054 
2396.294 11845024 11820440 11804574 11797390 11798923 11810430 11833243 
2399.669 11868315 11915990 11975490 12045046 12122826 12207639 12299662 
2403.044 12399442 12508249 12626327 12753069 12887187 13027526 13173615 
2406.419 13326381 13487814 13660179 13844586 14041391 14249207 14466544 
2409.795 14692077 14925239 15165661 15412844 15664494 15916808 16163729 
2413.170 16399126 16617300 16814162 16987852 17138106 17265656 17371066 
2416.545 17454738 17517210 17558746 17581034 17586522 17578136 17559024 
2419.920 17531940 17498442 17459568 17415832 17368100 17317376 17265380 
2423.296 17214148 17166128 17124078 17090956 17069832 17063764 17074690 
2426.671 17104226 17152066 17217630 17299928 17398450 17513828 17647664 
2430.046 17801600 17976964 18173370 18388602 18619640 18862912 19115498 
2433.421 19376338 19645514 19924120 20213598 20515112 20829038 21155888 
2436.797 21495658 21848584 22215118 22595610 22989850 23397982 23819972 
2440.172 24256106 24707060 25173686 25655822 26153098 26663662 27185306 
2443.547 27715982 28254590 28801514 29358132 29925548 30504686 31094530 
2446.922 31693198 32297828 32905374 33513702 34120768 34724772 35323612 
2450.298 35914248 36493868 37059176 37608384 38141036 38657312 39157924 
2453.673 39642560 40109240 40553616 40970332 41352572 41693968 41989096 
2457.048 42233224 42422648 42554520 42626152 42635436 42580208 42459584 
2460.423 42272592 42019976 41703524 41326516 40893400 40410276 39883736 
2463.799 39321380 38730988 38120484 37498092 36872292 36252044 35646776 
2467.174 35066096 34519088 34014328 33558160 33155248 32807738 32515570 
2470.549 32277770 32092114 31955962 31866882 31821526 31816002 31845774 
2473.924 31905320 31988808 32090508 32205004 32327060 32452508 32576780 
2477.300 32696192 32807558 32908450 32997276 33073076 33134580 33180390 
2480.675 33208288 33215764 33200276 33160970 33098642 33015366 32915492 
2484.050 32803346 32682832 32557100 32428090 32296936 32164860 32033000 
2487.425 31902612 31774826 31649430 31525106 31399496 31269044 31130766 
2490.801 30982142 30822184 30650696 30468752 30277116 30076792 29868222 
2494.176 29651874 29427444 29194378 28952086 28699380 28434650 28156508 
2497.551 27864056 27557152 27237092 26906586 26569182 26228484 25888194 
2500.926 25550840 25218244 24891518 24570786 24256072 23947188 23643946 
2504.302 23345986 23053542 22767264 22488294 22218606 21960272 21715048 
2507.677 21483960 21266946 21063152 20870510 20687336 20511710 20342576 
2511.052 20179200 20021192 19868380 19720714 19578160 19441026 19309650 
2514.427 19184026 19064500 18950922 18843188 18742160 18648936 18565724 
2517.802 18495012 18438726 18397866 18371560 18357318 18351996 18352652 
2521.178 18357664 18366754 18381444 18403430 18433472 18471640 18516310 
2524.553 18565310 18616802 18668960 18721058 18772536 18822912 18870698 
2527.928 18914200 18951164 18979824 18999034 19008140 19007170 18996542 
2531.303 18976190 18946596 18908316 18862912 18811908 18758246 18703726 
2534.679 18650180 18598786 18550058 18505004 18464758 18430844 18405020 
2538.054 18387772 18378922 18376260 18377126 18378888 18379958 18380166 
2541.429 18380822 18383382 18389224 18398004 18408616 18419228 18428146 
2544.804 18434716 18439210 18442426 18445364 18448234 18450584 18451656 
2548.180 18450584 18447472 18443048 18438796 18435788 18435130 18436548 
2551.555 18439382 18442668 18445744 18447992 18449616 18451102 18452692 
2554.930 18454974 18458640 18463928 18471430 18480594 18490204 18497468 
2558.305 18499126 18491036 18470394 18435580 18386976 18326660 18257888 
2561.681 18183770 18106970 18028698 17949682 17870092 17790104 17710164 
2565.056 17631550 17555228 17482402 17413902 17350858 17294066 17244798 
2568.431 17204150 17172470 17149548 17134626 17126214 17123562 17126008 
2571.806 17133934 17148066 17168990 17196256 17229110 17265622 17304202 
2575.182 17343858 17384828 17428006 17474848 17526144 17581726 17640108 
2578.557 17699570 17758104 17815062 17870784 17926684 17985080 18047798 
2581.932 18116228 18190506 18270328 18354312 18441216 18529624 18618324 
2585.307 18706768 18794816 18883054 18972418 19064290 19159718 19259044 
2588.683 19361648 19466148 19570156 19671828 19769502 19862828 19952048 
2592.058 20037986 20121756 20204226 20286084 20367332 20447866 20527514 
2595.433 20606168 20683340 20759068 20833244 20906390 20979514 21054180 
2598.808 21132232 21215658 21305536 21402604 21506380 21616448 21731664 
2602.184 21851790 21976758 22107026 22243088 22385402 22533592 22687312 
2605.559 22845346 23006830 23170818 23336652 23503948 23672882 23843740 
2608.934 24017218 24193746 24373462 24555638 24738874 24920432 25097150 
2612.309 25265864 25423962 25569924 25703664 25826090 25938172 26041208 
2615.685 26135856 26222220 26300432 26370350 26432320 26486800 26534522 
2619.060 26575732 26610818 26639672 26662606 26680012 26693154 26703408 
2622.435 26712534 26721976 26733112 26746608 26763206 26783080 26806800 
2625.810 26834502 26865978 26900558 26937574 26975826 27014998 27055128 
2629.186 27097234 27142838 27193594 27250568 27313828 27382604 27455416 
2632.561 27530356 27606122 27681476 27755786 27829046 27901190 27972320 
2635.936 28042580 28112354 28182388 28253528 28326732 28402812 28481916 
2639.311 28563934 28648092 28733504 28819500 28905194 28990516 29075428 
2642.687 29160430 29245978 29332998 29422092 29513968 29609378 29708392 
2646.062 29810868 29916424 30024952 30135566 30248484 30363916 30482082 
2649.437 30603442 30728430 30857116 30989222 31124574 31262598 31403020 
2652.812 31545628 31690594 31838466 31989806 32146164 32308642 32478466 
2656.188 32656144 32841974 33034888 33233576 33436432 33642144 33849852 
2659.563 34059408 34271296 34485328 34701836 34920248 35139488 35358872 
2662.938 35577292 35794632 36010964 36226652 36441796 36656828 36871644 
2666.313 37086280 37300548 37514852 37729660 37945548 38163028 38382680 
2669.688 38604908 38830148 39058980 39292000 39529752 39772392 40019488 
2673.064 40270184 40522916 40776152 41028780 41279724 41528304 41774104 
2676.439 42016180 42254004 42487024 42715312 42939764 43162432 43385692 
2679.814 43612616 43845748 44087180 44338176 44600116 44873712 45160200 
2683.189 45461076 45777520 46110624 46460576 46827236 47209936 47607208 
2686.565 48018284 48442116 48877676 49324064 49780536 50246344 50721140 
2689.940 51204544 51697068 52199164 52711336 53233704 53766000 54307928 
2693.315 54858912 55419104 55988576 56567968 57157768 57758516 58369880 
2696.690 58991320 59621712 60260100 60905336 61556536 62212764 62873780 
2700.066 63538520 64207168 64879268 65554992 66233812 66915320 67597472 
2703.441 68277712 68952688 69618096 70269848 70903920 71516584 72104160 
2706.816 72663488 73191248 73684280 74140224 74557144 74934024 75270640 
2710.191 75567656 75825256 76044800 76227088 76373232 76484096 76560528 
2713.567 76602736 76610600 76582896 76518080 76414792 76271720 76088144 
2716.942 75864752 75602592 75303192 74969504 74604432 74212184 73797920 
2720.317 73367136 72925992 72481192 72038448 71603120 71180784 70775904 
2723.692 70393616 70038832 69715736 69428368 69178768 68968024 68795944 
2727.068 68661480 68563344 68500768 68472832 68479584 68520088 68593104 
2730.443 68696800 68828400 68985352 69165288 69366288 69586984 69826080 
2733.818 70081856 70352432 70634832 70926352 71223840 71524944 71827496 
2737.193 72129712 72430024 72727136 73019784 73306720 73586840 73859496 
2740.569 74123872 74379552 74626496 74865040 75096864 75324000 75549992 
2743.944 75778584 76013176 76256512 76510456 76775024 77049640 77333192 
2747.319 77623888 77919704 78218136 78515624 78807800 79089952 79357088 
2750.694 79605408 79832960 80039240 80225776 80395000 80550280 80694696 
2754.070 80831336 80962512 81090120 81215024 81337080 81454616 81565064 
2757.445 81664624 81749696 81816488 81861936 81883736 81879816 81847808 
2760.820 81785528 81690536 81560744 81395184 81194088 80958952 80691984 
2764.195 80396112 80073944 79728688 79363648 78982792 78591064 78194416 
2767.571 77798488 77408976 77030736 76667440 76321680 75995496 75690584 
2770.946 75408424 75150824 74918744 74712480 74531760 74374960 74240176 
2774.321 74125088 74027008 73943048 73870184 73804792 73742744 73678744 
2777.696 73607376 73522400 73417280 73285848 73122272 72922040 72682832 
2781.072 72404504 72089536 71743016 71372024 70983904 70585992 70184968 
2784.447 69785768 69391872 69006048 68629584 68263016 67905784 67556168 
2787.822 67211464 66868088 66522584 66171952 65814240 65449424 65078720 
2791.197 64704636 64330072 63958436 63592492 63234976 62888176 62554432 
2794.573 62235864 61934372 61651344 61388044 61144772 60921808 60718732 
2797.948 60534832 60369212 60221048 60089068 59972380 59869340 59778492 
2801.323 59698308 59626920 59562080 59502000 59444660 59388244 59332328 
2804.698 59276456 59220780 59166288 59113932 59064200 59017056 58971736 
2808.073 58926840 58881036 58832396 58779016 58719044 58650620 58571820 
2811.449 58481244 58377724 58260812 58130868 57988840 57836300 57674772 
2814.824 57506228 57332076 57154560 56976052 56800192 56631648 56476188 
2818.199 56340284 56230860 56154156 56116076 56121052 56171916 56269632 
2821.574 56413700 56601828 56830516 57095300 57391444 57713332 58055532 
2824.950 58412024 58776324 59141684 59500896 59846292 60170808 60467952 
2828.325 60732296 60959968 61148436 61296308 61404112 61473084 61506372 
2831.700 61507704 61482016 61434608 61370868 61295960 61214848 61131920 
2835.075 61051140 60976288 60910524 60856696 60817588 60795596 60793804 
2838.451 60815948 60867252 60954936 61087564 61274596 61526832 61853904 
2841.826 62266032 62773228 63386052 64117400 64983004 66000508 67189768 
2845.201 68569208 70150968 71935832 73907496 76028456 78232696 80431400 
2848.576 82518064 84368432 85866200 86910288 87425472 87378224 86775128 
2851.952 85662824 84114808 82226952 80105744 77850216 75556184 73305896 
2855.327 71160840 69168976 67359560 65744920 64323924 63084148 62006064 
2858.702 61064984 60235892 59495728 58823328 58201708 57617484 57059324 
2862.077 56518604 55988840 55464920 54944108 54425728 53911792 53406368 
2865.453 52916580 52451380 52020440 51633440 51299132 51023176 50808916 
2868.828 50656344 50562528 50522028 50527540 50570608 50640932 50728100 
2872.203 50821468 50910908 50987884 51047208 51086792 51108744 51117688 
2875.578 51120372 51123428 51132412 51151496 51182620 51226388 51282912 
2878.954 51351636 51432308 51524488 51627580 51741000 51864160 51996424 
2882.329 52137700 52288400 52448576 52618496 52797576 52984888 53179064 
2885.704 53379056 53583712 53793268 54008064 54228708 54455628 54689240 
2889.079 54928960 55174224 55424600 55680168 55941688 56210908 56490636 
2892.455 56783988 57095072 57428164 57787476 58177272 58601172 59061616 
2895.830 59559532 60093328 60658680 61247656 61848060 62445540 63022816 
2899.205 63562228 64048780 64472148 64828024 65119632 65356940 65555104 
2902.580 65730736 65901964 66085292 66294676 66542856 66840648 67197392 
2905.956 67622056 68122480 68705264 69377128 70143888 71012576 71991168 
2909.331 73088320 74313064 75672944 77172000 78808632 80573544 82450360 
2912.706 84411648 86419968 88431312 90391472 92241760 93926752 95393672 
2916.081 96603096 97532840 98178536 98553000 98681408 98596952 98331096 
2919.457 97909112 97347440 96650608 95813960 94826824 93678408 92362192 
2922.832 90881024 89248848 87492336 85648936 83759768 81869696 80020088 
2926.207 78243648 76565824 75001984 73558232 72233552 71021984 69914464 
2929.582 68899952 67968664 67111920 66323512 65600036 64940752 64346820 
2932.958 63820592 63364432 62979944 62667340 62425148 62249208 62134004 
2936.333 62070928 62048796 62055220 62075592 62095356 62102388 62087444 
2939.708 62045584 61977400 61887452 61783076 61672732 61564860 61465448 
2943.083 61378004 61302296 61234688 61167968 61091912 60995088 60866604 
2946.458 60698456 60488176 60240532 59967092 59684508 59413240 59172932 
2949.834 58978532 58840176 58760692 58736412 58758492 58815016 58892840 
2953.209 58977960 59057972 59122208 59161772 59170692 59145180 59083788 
2956.584 58986764 58855804 58693556 58503080 58288096 58053144 57802764 
2959.959 57542540 57277708 57013192 56753104 56501092 56259600 56030908 
2963.335 55816992 55619644 55440560 55280972 55141456 55022032 54922000 
2966.710 54840380 54775496 54725544 54688000 54660380 54639520 54622728 
2970.085 54607436 54592332 54577112 54562764 54550252 54541648 54538192 
2973.460 54540936 54550588 54567984 54592820 54624680 54660944 54696944 
2976.836 54724492 54733136 54710472 54643392 54521436 54337216 54088180 
2980.211 53777704 53413676 53008660 52576648 52133180 51692888 51267588 
2983.586 50866392 50494448 50152984 49840068 49551032 49281456 49026360 
2986.961 48783168 48550556 48328632 48116772 47912160 47707272 47490468 
2990.337 47245400 46953360 46597588 46166448 45656628 45074544 44436900 
2993.712 43767316 43090380 42430468 41804932 41222160 40682372 40178948 
2997.087 39702060 39240608 38786160 38333820 37881876 37431124 36983476 
3000.462 36540900 36105004 35676776 35257088 34846928 34447304 34059160 
3003.838 33683140 33318930 32965928 32622964 32289442 31965234 31650926 
3007.213 31347354 31055700 30776656 30509984 30255162 30011070 29776164 
3010.588 29549080 29328780 29114224 28904770 28699910 28499358 28303036 
3013.963 28111150 27923804 27740914 27562376 27387686 27216982 27050014 
3017.339 26887374 26729868 26578374 26433660 26295646 26163446 26036106 
3020.714 25911794 25789204 25667528 25546202 25425086 25304426 25184572 
3024.089 25066400 24951630 24842502 24742452 24654804 24582426 24526926 
3027.464 24487694 24462246 24445980 24433502 24418640 24395368 24358604 
3030.840 24303586 24226536 24125438 23999500 23849830 23679426 23493140 
3034.215 23296516 23095614 22895710 22700892 22513804 22335900 22167414 
3037.590 22008266 21857956 21715780 21580790 21451896 21328088 21208282 
3040.965 21091640 20977914 20867348 20760354 20657452 20559162 20465580 
3044.341 20376292 20290596 20207904 20127726 20049888 19974910 19903448 
3047.716 19836400 19774046 19716102 19661426 19608180 19553864 19496506 
3051.091 19434684 19367988 19297074 19223508 19148706 19074054 19000110 
3054.466 18926938 18854400 18782360 18711196 18641636 18574576 18511056 
3057.842 18451690 18396760 18346156 18299842 18257888 18220742 18188434 
3061.217 18161278 18138924 18121204 18107420 18097642 18091910 18090700 
3064.592 18094258 18102272 18113914 18127870 18142000 18154956 18165458 
3067.967 18173232 18178138 18180350 18179312 18174062 18163420 18146078 
3071.343 18121514 18090182 18053602 18013952 17973612 17934972 17899752 
3074.718 17869230 17843992 17823934 17808538 17796560 17785960 17775020 
3078.093 17761280 17743228 17720138 17691976 17659952 17625478 17589868 
3081.468 17554366 17519452 17485368 17452082 17419454 17387516 17355860 
3084.844 17324618 17294100 17264414 17236488 17211356 17190122 17173782 
3088.219 17162820 17156926 17155376 17156856 17160406 17165130 17170714 
3091.594 17177158 17184088 17191292 17198016 17203874 17208736 17213424 
3094.969 17219836 17230074 17246348 17269998 17300860 17337444 17377206 
3098.344 17417454 17455360 17489438 17519108 17544876 17567890 17589384 
3101.720 17610778 17632964 17656534 17681794 17708716 17737258 17767390 
3105.095 17799250 17833222 17869506 17908314 17949302 17991502 18033672 
3108.470 18074224 18111668 18145212 18175064 18202152 18228032 18254570 
3111.845 18283840 18317086 18355418 18398868 18447266 18499472 18554174 
3115.221 18609610 18663704 18714690 18761706 18803986 18842048 18876410 
3118.596 18907486 18935312 18959714 18979754 18995400 19006998 19016066 
3121.971 19024930 19035902 19050858 19070730 19094826 19121488 19149016 
3125.346 19175612 19200512 19224130 19247510 19271962 19298876 19328738 
3128.722 19361440 19396362 19432538 19468886 19504718 19539586 19573550 
3132.097 19607382 19641736 19677688 19716174 19757816 19802656 19850482 
3135.472 19900604 19952012 20003776 20055198 20105516 20154000 20200234 
3138.847 20244008 20285564 20325492 20364972 20405566 20448770 20495384 
3142.223 20545646 20598872 20654046 20709786 20765324 20820174 20874682 
3145.598 20929442 20984834 21040998 21098004 21155226 21212144 21268546 
3148.973 21324818 21381720 21440338 21501890 21567486 21637448 21711810 
3152.348 21789528 21869106 21948352 22025068 22097612 22165218 22228092 
3155.724 22287694 22346122 22405254 22466730 22531428 22598996 22669052 
3159.099 22740974 22814338 22889144 22965814 23044318 23124860 23207202 
3162.474 23290922 23375706 23461698 23548860 23637194 23726176 23815210 
3165.849 23902690 23987980 24070170 24149852 24227974 24305792 24384048 
3169.225 24462806 24541054 24617212 24689490 24757008 24819382 24877376 
3172.600 24932012 24984338 25034738 25083074 25128712 25171510 25211468 
3175.975 25248446 25283354 25316648 25348998 25380892 25412896 25445464 
3179.350 25479720 25516508 25556570 25600112 25647142 25696318 25746660 
3182.726 25797256 25847294 25896670 25945734 25994770 26044372 26095074 
3186.101 26147152 26201314 26258192 26318244 26381652 26448026 26516700 
3189.476 26586336 26655984 26724336 26791400 26857342 26922978 26989364 
3192.851 27057278 27127282 27199664 27273852 27349432 27425698 27501974 
3196.227 27577770 27652838 27727210 27801140 27874692 27948254 28021302 
3199.602 28093546 28164284 28233160 28300242 28366380 28433094 28501976 
3202.977 28574090 28650180 28729788 28811746 28894676 28977020 29057822 
3206.352 29136654 29213196 29287378 29359336 29428652 29495598 29560854 
3209.728 29625624 29691184 29758776 29828896 29900982 29973790 30045758 
3213.103 30115464 30182450 30247560 30312040 30377916 30446610 30518942 
3216.478 30594590 30672884 30752400 30831824 30910304 30987088 31061964 
3219.853 31134896 31205846 31275418 31344290 31413208 31482742 31553998 
3223.229 31627014 31702284 31779852 31859536 31940910 32023408 32105990 
3226.604 32187410 32266278 32340982 32410738 32475040 32534566 32590494 
3229.979 32644286 32697442 32751248 32806810 32864168 32923714 32985408 
3233.354 33048690 33112980 33177600 33241946 33305298 33368052 33430494 
3236.729 33493840 33558552 33624888 33692200 33759376 33825172 33888500 
3240.105 33949404 34008488 34067512 34127364 34188656 34251076 34313068 
3243.480 34373388 34430772 34485260 34537384 34588476 34639896 34692936 
3246.855 34747600 34804208 34862440 34922580 34985172 35050936 35120448 
3250.230 35193776 35270028 35347984 35425916 35502640 35577256 35649652 
3253.606 35720376 35789992 35859188 35928428 35998220 36068460 36139356 
3256.981 36210768 36282516 36354240 36425508 36495524 36563644 36629324 
3260.356 36692200 36752484 36810580 36867496 36924488 36982972 37044056 
3263.731 37108544 37176688 37247764 37320768 37394652 37468184 37541220 
3267.107 37613912 37686800 37760704 37835924 37912176 37988760 38064636 
3270.482 38139044 38211472 38282864 38353872 38426116 38501164 38579956 
3273.857 38663144 38750840 38842572 38937916 39036216 39136312 39237780 
3277.232 39339920 39442700 39546556 39652144 39760152 39871024 39984904 
3280.608 40101212 40219476 40339332 40460864 40584572 40711484 40842252 
3283.983 40977068 41115420 41256336 41398496 41540956 41684048 41828244 
3287.358 41974644 42124304 42277924 42435252 42596292 42760644 42928172 
3290.733 43099092 43274140 43453800 43638408 43828044 44022860 44222856 
3294.109 44428312 44639588 44857068 45080388 45308720 45540808 45774648 
3297.484 46008868 46242624 46475512 46708484 46942324 47178648 47418764 
3300.859 47664044 47916156 48176188 48445152 48723520 49011004 49307064 
3304.234 49610088 49919380 50233844 50553444 50878128 51208492 51544632 
3307.610 51887084 52235484 52590184 52951276 53319520 53695280 54078608 
3310.985 54468772 54864964 55265584 55669584 56076824 56487656 56903108 
3314.360 57324592 57752612 58187764 58629724 59078284 59533236 59994748 
3317.735 60462584 60936676 61415828 61898684 62383604 62869296 63355728 
3321.111 63843696 64334916 64830528 65331480 65837452 66346944 66858196 
3324.486 67369664 67879984 68388384 68894440 69397152 69895544 70388040 
3327.861 70872864 71349016 71815488 72271704 72717192 73151136 73572720 
3331.236 73980880 74374760 74753448 75116512 75462816 75790576 76097544 
3334.612 76381056 76639336 76871752 77079480 77264536 77429728 77576200 
3337.987 77704008 77810696 77892992 77947256 77970376 77961536 77921248 
3341.362 77850848 77752232 77626744 77474640 77295696 77088936 76852928 
3344.737 76585976 76286416 75952440 75582792 75177584 74737944 74266632 
3348.113 73767640 73244824 72702112 72141952 71565848 70974224 70367240 
3351.488 69744640 69106464 68453016 67784504 67101784 66406584 65701552 
3354.863 64991088 64280464 63575656 62882012 62202556 61538628 60888832 
3358.238 60251192 59623308 59003844 58392844 57792016 57203088 56627984 
3361.614 56067552 55521580 54989276 54469600 53961916 53465800 52981296 
3364.989 52507984 52045840 51594296 51152652 50721252 50300840 49892432 
3368.364 49497148 49116024 48748840 48394740 48052148 47719144 47394004 
3371.739 47075240 46761876 46452944 46148020 45846116 45547176 45250800 
3375.115 44957156 44666360 44378400 44093120 43809572 43526792 43243612 
3378.490 42959300 42673492 42386008 42097032 41806576 41514120 41218952 
3381.865 40920196 40617244 40310136 39999328 39685980 39371368 39056840 
3385.240 38743232 38431296 38121136 37813008 37506976 37203364 36902340 
3388.615 36603872 36307840 36013916 35721704 35430408 35139668 34849048 
3391.991 34558732 34269324 33981900 33697356 33417076 33141874 32871888 
3395.366 32607068 32346870 32090578 31837468 31587460 31340514 31097128 
3398.741 30857330 30621114 30388008 30156984 29927108 29697890 29469146 
3402.116 29241514 29015524 28792060 28571400 28353292 28137098 27921646 
3405.492 27705844 27489266 27271560 27053400 26835912 26620402 26408446 
3408.867 26201488 26001030 25807874 25622538 25444340 25271834 25102838 
3412.242 24935030 24766410 24595682 24422636 24248330 24074408 23902760 
3415.617 23734960 23572122 23413754 23259146 23107250 22956664 22806690 
3418.993 22657184 22508464 22361540 22217314 22076834 21940302 21807888 
3422.368 21679242 21553628 21430592 21310026 21191722 21075986 20962336 
3425.743 20850416 20739430 20628022 20515494 20401468 20286328 20171146 
3429.118 20057316 19946080 19837788 19732296 19628320 19524578 19419924 
3432.494 19314290 19207992 19102582 18999624 18900496 18806096 18716628 
3435.869 18631366 18549748 18470566 18392922 18315704 18238086 18159550 
3439.244 18079164 17996372 17910906 17822794 17732666 17641246 17549466 
3442.619 17458568 17369550 17282618 17197670 17113774 17029478 16943268 
3445.995 16853704 16760675 16664846 16568383 16473629 16383162 16298044 
3449.370 16218448 16143061 16069785 15996210 15920484 15841885 15760550 
3452.745 15677033 15592020 15505548 15417513 15327642 15235457 15141747 
3456.120 15047269 14953634 14861802 14772664 14686491 14602152 14518651 
3459.496 14434550 14349027 14261534 14172313 14081502 13990265 13899185 
3462.871 13809798 13722996 13639459 13559698 13483780 13410609 13339296 
3466.246 13268780 13198207 13127133 13055457 12983279 12910295 12836027 
3469.621 12759620 12680090 12597401 12511557 12423581 12334737 12246593 
3472.997 12160239 12076355 11994870 11915513 11838384 11763243 11690191 
3476.372 11619738 11551645 11485364 11420217 11354740 11287504 11217048 
3479.747 11142762 11064342 10982437 10898576 10814799 10733450 10656632 
3483.122 10585361 10519840 10458808 10400671 10343117 10284519 10224301 
3486.498 10162972 10101685 10042069 9985140 9930963 9878488 9826122 9772203 
3490.355 9715749 9656761 9596427 9536305 9478425 9424312 9374335 9328293 
3494.212 9285538 9244649 9204880 9165488 9127182 9090504 9056298 9025343 
3498.070 8997738 8972876 8949435 8925658 8899852 8870734 8837695 8800906 
3501.927 8761381 8720643 8680212 8642050 8607812 8578984 8557018 8542554 
3505.785 8535425 8534242 8537250 8541473 8544210 8543805 8539717 8533228 
3509.642 8526199 8521063 8519104 8520016 8522854 8525861 8527552 8528160 
3513.500 8528667 8531167 8537588 8548806 8564216 8581959 8599566 8614944 
3517.357 8626706 8634750 8639820 8642321 8642625 8639820 8632553 8619980 
3521.214 8601053 8575774 8545055 8510082 8471800 8431393 8388828 8344138 
3525.072 8296887 8246906 8193688 8137169 8076674 8011699 7942245 7868180 
3528.929 7789945 7708755 7626063 7543286 7462143 7383778 7309066 7238310 
3532.787 7171135 7106497 7042778 6977822 6910049 6838010 6761710 6681924 
3536.644 6600437 6519570 6440299 6363665 6288894 6214808 6139928 6063112 
3540.501 5984260 5903911 5823174 5743460 5666042 5591559 5520343 5452159 
3544.359 5386601 5322866 5260414 5198642 5137717 5078241 5021221 4967828 
3548.216 4917994 4871482 4826115 4779312 4728361 4671219 4607789 4539380 
3552.074 4469106 4400317 4336023 4277829 4225865 4179461 4137813 4100483 
3555.931 4067470 4038875 4013693 3990351 3965707 3936817 3900842 3857247 
3559.789 3807340 3754530 3702897 3655947 3615819 3582242 3553178 3525117 
3563.646 3494320 3457145 3410757 3353321 3283973 3203755 3115209 3023411 
3567.503 2934300 2853580 2785380 2731027 2689384 2657045 2629743 2603575 
3571.361 2575343 2543113 2506353 2465664 2422147 2377401 2333226 2291021 
3575.218 2252518 2219146 2191871 2170692 2154508 2141822 2130234 2117049 
3579.076 2100401 2078727 2051028 2017305 1978160 1934692 1888698 1842810 
3582.933 1799388 1760562 1727328 1699152 1673473 1646166 1612741 1569409 
3586.791 1514909 1451307 1384290 1321006 1268299 1230484 1208687 1200314 
3590.648 1201178 1205929 1209816 1209484 1203437 1191542 1175528 1157654 
3594.505 1140080 1124333 1111079 1100116 1090782 1082279 1074307 1066667 
3598.363 1059260 1052219 1045078 1036940 1026345 1011898 992370 967098 
3602.220 936615 902414 866789 832893 803248 779547 761889 748313 734805 
3606.560 716551 689237 650510 601633 546890 493248 447241 412781 390262 
3610.899 376366 365688 353054 335180 311969 286538 263130 246156 237602 
3615.239 236442 239658 242841 241780 233458 217214 194639 168983 144289 
3619.579 124005 110284 103755 102793 104915 107831 108958 107500 103589 
3623.918 98982 96198 97027 102296 109654 114426 109554 87515 43275 -22431 
3628.740 -101610 -180807 -245652 -287408 -305487 -304825 -294163 -281018 
3632.597 -271614 -268667 -271614 -278303 -285322 -289726 -290190 -287044 
3636.455 -282309 -277872 -275852 -276945 -280985 -286912 -293203 -298203 
3640.312 -301150 -302044 -301216 -299560 -298567 -298567 -300123 -302441 
3644.170 -305024 -307209 -309063 -311182 -315553 -324757 -341146 -367565 
3648.027 -405437 -454526 -512910 -575620 -636336 -687384 -721821 -735416 
3651.885 -726849 -698499 -655393 -604672 -553979 -509799 -477861 -459789 
3655.742 -453798 -454063 -453533 -445821 -427616 -399611 -365347 -330220 
3659.599 -299229 -276183 -262971 -259626 -263898 -273369 -285322 -297342 
3663.457 -307308 -313467 -313202 -303600 -281647 -245387 -194420 -130760 
3667.314 -58146 20311 103987 198418 316545 478055 704769 1011367 1404035 
3671.654 1879247 2428711 3042596 3708979 4410526 5109688 5743224 6227345 
3675.511 6471778 6420492 6073528 5482357 4723303 3874129 3006795 2178151 
3679.369 1436314 817954 339922 -530 -224524 -362269 -445424 -498480 -535182 
3683.708 -560729 -575752 -580914 -579657 -578466 -585051 -605632 -642622 
3687.566 -693306 -750599 -806429 -854315 -891847 -919621 -939790 -953279 
3691.423 -960222 -959627 -951824 -937971 -921737 -907388 -898493 -897402 
3695.281 -903783 -915654 -929871 -943030 -953378 -960486 -965247 -969446 
3699.138 -975231 -984224 -996654 -1011893 -1027991 -1042106 -1051361 
3702.513 -1053642 -1048254 -1036123 -1019529 -1000786 -982075 -965049 
3705.888 -949742 -936153 -923920 -913141 -904908 -900940 -903816 -915488 
3709.746 -937310 -969578 -1010802 -1058633 -1108772 -1156196 -1195419 
3713.121 -1221324 -1230543 -1222051 -1197336 -1160260 -1115845 -1070466 
3716.496 -1029181 -996290 -973942 -961776 -958007 -960090 -965446 -971496 
3720.354 -976190 -978108 -975529 -967991 -955759 -940881 -926598 -917108 
3724.211 -915720 -924283 -942270 -966636 -992885 -1015364 -1028785 -1030371 
3728.069 -1019397 -997447 -968024 -936219 -907388 -886457 -877826 -883216 
3731.926 -901899 -930731 -965512 -1003331 -1042932 -1085240 -1130948 
3735.301 -1179096 -1225719 -1264507 -1288921 -1295264 -1283767 -1258164 
3738.677 -1222877 -1182400 -1139078 -1093800 -1046965 -1000422 -958701 
3742.052 -929706 -923523 -948254 -1005116 -1083588 -1162342 -1215575 
3745.427 -1227602 -1198691 -1142448 -1077737 -1021909 -988025 -982207 
3748.802 -1003265 -1042833 -1090033 -1133360 -1165845 -1185209 -1192115 
3752.177 -1187952 -1173412 -1149223 -1117001 -1080183 -1043197 -1010439 
3755.553 -985513 -969677 -962206 -961644 -966272 -975331 -988951 -1006736 
3759.410 -1026702 -1044684 -1054303 -1050270 -1030603 -997744 -958701 
3762.785 -922366 -897732 -890392 -901403 -926664 -959098 -990207 -1013976 
3766.643 -1028058 -1033644 -1034041 -1032487 -1031727 -1032851 -1035594 
3770.018 -1039098 -1042370 -1043825 -1042635 -1038338 -1031099 -1021909 
3773.393 -1012620 -1005215 -1001447 -1001711 -1004819 -1008389 -1010405 
3776.769 -1009513 -1006373 -1003563 -1003926 -1009315 -1019331 -1030801 
3780.144 -1039429 -1041709 -1036949 -1027066 -1016554 -1009612 -1009248 
3783.519 -1015628 -1026041 -1035859 -1040420 -1036388 -1023099 -1002141 
3786.894 -976620 -950105 -926300 -908776 -900047 -901965 -914794 -936946 
3790.752 -964255 -991496 -1013116 -1025413 -1027661 -1022703 -1015926 
3794.127 -1013480 -1019331 -1033842 -1053510 -1070962 -1078630 -1071458 
3797.502 -1049014 -1016323 -981414 -953940 -943228 -955263 -990934 -1043594 
3801.360 -1101600 -1148892 -1171892 -1164854 -1129956 -1075787 -1014273 
3804.735 -957974 -917241 -898724 -902858 -924184 -952089 -974438 -983265 
3808.592 -975529 -953577 -921969 -885035 -846279 -807189 -768559 -731281 
3812.450 -697937 -672497 -660058 -665417 -690858 -734887 -790057 -844097 
3816.307 -883977 -900477 -891285 -861392 -820848 -781888 -756453 -753675 
3820.165 -777555 -824784 -883613 -937674 -972851 -982141 -967198 -936417 
3824.022 -900609 -869626 -849355 -840955 -840724 -843105 -841914 -834440 
3827.879 -821774 -808281 -799153 -797896 -804775 -816086 -826106 -828025 
3831.737 -817342 -792769 -756387 -712327 -666013 -622771 -587367 -564105 
3835.594 -557056 -569234 -601231 -651224 -712790 -776960 -833812 -876041 
3839.452 -900047 -907090 -901039 -887548 -871808 -857622 -848065 -844923 
3843.309 -848230 -856961 -868733 -879116 -883580 -878190 -860168 -830240 
3847.167 -790884 -746464 -701708 -659892 -622870 -590841 -563807 -543356 
3851.024 -533693 -541768 -576249 -642225 -737235 -847106 -950733 -1027892 
3854.881 -1068251 -1072284 -1047891 -1005215 -952849 -897005 -842079 -790653 
3858.739 -745240 -708391 -681661 -666145 -661083 -663763 -670611 -678353 
3862.596 -684936 -691056 -698731 -709681 -723640 -738062 -749110 -752980 
3866.454 -749441 -741469 -735515 -738525 -755329 -785592 -823328 -856432 
3870.311 -872866 -865889 -836821 -794192 -749474 -713816 -694133 -692247 
3874.168 -704156 -722714 -740014 -750466 -752682 -748581 -743289 -740940 
3878.026 -745902 -759232 -780334 -805437 -828653 -843799 -845486 -831530 
3881.883 -802758 -764061 -723012 -687053 -664392 -659859 -673854 -701411 
3885.741 -732902 -757644 -767137 -759099 -736078 -705380 -675011 -652713 
3889.598 -644045 -650993 -672398 -703627 -738625 -770775 -794853 -807818 
3893.456 -807884 -795415 -771238 -737698 -697805 -655459 -615194 -581312 
3897.313 -557420 -545739 -546831 -558578 -577738 -600238 -622374 -641299 
3901.170 -657047 -670512 -683977 -699955 -719141 -740675 -761812 -778515 
3905.028 -787048 -784865 -772462 -752021 -726882 -700584 -675607 -652647 
3908.885 -631043 -608941 -584587 -557321 -527802 -498083 -470910 -448668 
3912.743 -432912 -424173 -422187 -426391 -436387 -451945 -472532 -497123 
3916.600 -523765 -549213 -570656 -586275 -595110 -597658 -595374 -589220 
3920.458 -579988 -567612 -552159 -533891 -514564 -496991 -484149 -478920 
3924.315 -482097 -492126 -506092 -520091 -531111 -537631 -539947 -539815 
3928.172 -538657 -537730 -536704 -535149 -531939 -526776 -520555 -514399 
3932.030 -509865 -507548 -507019 -506820 -505066 -500499 -492589 -482031 
3935.887 -470414 -459028 -449363 -442279 -438506 -438506 -442643 -451117 
3939.745 -463629 -479549 -497487 -514928 -529986 -540576 -545540 -545176 
3943.602 -540477 -533031 -524691 -516980 -511156 -507846 -507416 -509964 
3947.459 -514465 -519826 -524592 -526875 -525850 -521018 -512877 -502584 
3951.317 -491364 -480376 -470546 -462371 -455983 -451647 -449263 -448899 
3955.174 -450290 -452342 -454096 -454427 -452408 -448171 -442677 -437215 
3959.032 -433441 -432349 -434401 -439002 -444894 -450587 -454228 -454725 
3962.889 -451481 -444431 -434037 -421690 -408483 -396168 -385906 -378325 
3966.747 -373591 -370744 -368459 -365347 -360812 -354687 -347966 -341775 
3970.604 -337206 -334889 -335054 -336809 -339756 -343099 -346476 -349423 
3974.461 -351476 -351972 -349589 -343530 -332935 -318135 -300289 -280918 
3978.319 -262309 -246381 -234260 -226643 -223663 -224358 -228299 -234525 
3982.176 -241612 -248732 -255057 -259958 -263236 -265455 -266945 -268402 
3986.034 -270322 -272243 -273667 -274296 -273634 -271614 -268932 -266084 
3989.891 -263401 -261117 -258534 -255520 -252109 -248831 -246579 -246679 
3993.749 -249924 -256613 -266117 -277342 -289296 -301150 -312639 -323466 
3997.606 -333631 -343099 -351078 -356607 -359421 -358825 -355846 
##END=
