
##TITLE=Z240_2_b
##JCAMP-DX=5.01  $$ Nicolet v. 1
##DATATYPE=INFRARED SPECTRUM
##ORIGIN=UniL
##OWNER=Nicolet
##LONGDATE=2011/09/09
##TIME=11:34:52
##SPECTROMETER/DATA SYSTEM=Nicolet iS5
##DATA PROCESSING=
Ratio against background
%Transmittance->Absorbance
Truncated
ElementMultiply or ElementDivide
##COMMENTS=
Number of sample scans: 32
Collection length: 51.18 sec
Sample gain: 2.0
Background collected on: Ven Sep 09 11:29:40 2011 (GMT+02:00);
Number of background scans: 32
Background gain: 2.0
Sample spacing:  1.000
Number of scan points: 12415
Resolution points: 8192
Number of FFT points: 65536
Apodization: N-B fort;
Phase correction: Mertz;
Laser frequency: 15798.0 cm-1
Number of rejected sample scans: 0
Number of rejected background scans: 0
Bench serial number: ASB1000141;
##RESOLUTION=4.000
##XUNITS=1/CM
##YUNITS=ABSORBANCE
##FIRSTX=649.893372
##LASTX=4000.122314
##FIRSTY=0.079982
##MAXX=4000.122314
##MINX=649.893372
##MAXY=0.276365
##MINY=0.000728
##XFACTOR=1.000000
##YFACTOR=1.000000E-009
##NPOINTS=6950
##DELTAX=0.482117
##ZPD=6100
##XYDATA=(X++(Y..Y))
649.893 79982032 79736208 79538200 79420816 79395160 79450776 79563984 
653.268 79713440 79894336 80120328 80414888 80798816 81277904 81840176 
656.643 82463736 83131816 83842672 84612184 85463736 86413496 87462104 
660.018 88595280 89794360 91051760 92380728 93808992 95365360 97057904 
663.393 98862632 100724576 102579560 104371328 106053888 107597576 108967328 
666.767 110106008 110935472 111378096 111397840 111023176 110321968 
669.660 109357440 108162304 106740432 105087840 103216336 101169248 99020432 
673.035 96851664 94740440 92732992 90843864 89066624 87390904 85814240 
676.410 84344928 82993968 81767968 80660184 79653008 78725096 77857856 
679.785 77040584 76271208 75548688 74869024 74220872 73588024 72954760 
683.159 72312792 71663528 71016832 70387616 69788064 69224040 68696216 
686.534 68202496 67742984 67321296 66943772 66613504 66326716 66069208 
689.909 65817328 65541504 65216996 64826636 64366496 63844732 63277712 
693.284 62685592 62086716 61496676 60928248 60390764 59892428 59439492 
696.659 59036036 58683804 58381704 58127232 57917468 57749588 57622364 
700.034 57534708 57485048 57469880 57483040 57516632 57562096 57613516 
703.408 57668376 57729452 57802536 57893312 58005468 58138104 58286200 
706.783 58443712 58606480 58774956 58955680 59159948 59400244 59692072 
710.158 60052920 60504284 61075968 61802864 62716992 63837216 65152160 
713.533 66608092 68100744 69498200 70652768 71434272 71766976 71639456 
716.908 71111896 70298048 69354704 68455800 67760840 67419848 67548968 
720.282 68218160 69442056 71158032 73222776 75397424 77389056 78898232 
723.657 79654400 79502064 78426952 76568824 74175360 71554896 69008960 
727.032 66752232 64908624 63505084 62499524 61815432 61371136 61104304 
730.407 60967484 60927336 60956728 61028296 61116852 61205772 61289284 
733.782 61372740 61467740 61584600 61725092 61882064 62041916 62192920 
737.156 62329136 62453956 62575332 62701560 62835908 62975772 63115300 
740.531 63251460 63387700 63535452 63709080 63919044 64166492 64440056 
743.906 64720640 64985192 65214804 65400308 65541236 65643468 65715312 
747.281 65764696 65798044 65821564 65843312 65871804 65914728 65976128 
750.656 66054008 66141812 66231424 66317832 66401764 66490688 66594572 
754.031 66722752 66879800 67064276 67270616 67492952 67727296 67971768 
757.405 68225984 68487576 68751840 69012416 69264616 69508160 69749080 
760.780 69997176 70262872 70551920 70863504 71191992 71533568 71890592 
764.155 72278312 72724752 73271920 73970344 74871264 76023360 77458432 
767.530 79178528 81137576 83232416 85311200 87179976 88662528 89651048 
770.905 90153184 90312040 90384368 90681008 91442336 92764456 94523768 
774.279 96399592 97913104 98555416 97964664 95997304 92796824 88718488 
777.654 84257792 79898672 75995656 72762672 70242384 68357480 66961280 
781.029 65902112 65059976 64353704 63745916 63224212 62788696 62443016 
784.404 62192616 62046196 62015852 62115460 62358360 62752664 63302860 
787.779 64011612 64884616 65934084 67180056 68645840 70356984 72336120 
791.154 74603408 77181024 80095024 83376560 87058776 91164432 95692432 
794.528 100601128 105803376 111160152 116477448 121538792 126107648 
797.421 129955160 132910568 134879920 135886048 136067264 135680224 
800.314 135052672 134501792 134305728 134616192 135422944 136535456 
803.206 137611168 138233056 137961456 136478432 133658480 129607768 
806.099 124638560 119190768 113740504 108648656 104118880 100164848 96646472 
809.474 93330544 89976032 86422960 82612952 78601592 74515088 70513992 
812.849 66740832 63288144 60202472 57485916 55115388 53057104 51278476 
816.224 49752260 48453492 47359156 46447888 45698552 45094872 44626000 
819.598 44285452 44069464 43975192 43998220 44134124 44380452 44739004 
822.973 45216748 45825604 46580032 47491796 48568308 49807216 51195000 
826.348 52701572 54279616 55866616 57380780 58737440 59860860 60698040 
829.723 61239076 61523972 61646996 61736704 61946636 62434636 63326284 
833.098 64705132 66582792 68888576 71451032 74004256 76234472 77787824 
836.473 78355192 77744032 75907136 72971696 69198040 64946404 60580124 
839.847 56405736 52655564 49449288 46816456 44721008 43092356 41849516 
843.222 40914992 40228052 39737352 39399956 39182004 39055900 39001164 
846.597 39006056 39063260 39167460 39312204 39488780 39689140 39908472 
849.972 40148160 40415768 40721452 41074084 41477664 41929936 42425460 
853.347 42960396 43535364 44157820 44839396 45592220 46425544 47344232 
856.721 48350888 49450584 50653332 51978276 53452084 55105232 56972540 
860.096 59090088 61493164 64217120 67287712 70709424 74445112 78400192 
863.471 82414504 86247568 89622864 92252616 93874016 94316792 93520576 
866.846 91553960 88595200 84914136 80830144 76640608 72617344 68967328 
870.221 65815552 63227808 61212368 59738800 58749844 58174544 57937912 
873.596 57956996 58150148 58438824 58745860 59009200 59186260 59258224 
876.970 59234036 59145596 59041800 58971736 58977960 59083940 59288568 
880.345 59566524 59872268 60154672 60362356 60458240 60428152 60282256 
883.720 60052080 59780584 59515868 59296624 59147760 59081016 59097912 
887.095 59197616 59383152 59664704 60058284 60581152 61243960 62046080 
890.470 62973164 64000896 65098500 66234932 67385296 68529552 69652480 
893.844 70741584 71783440 72763256 73665792 74473312 75167016 75726352 
897.219 76126752 76344632 76359608 76160752 75751800 75153784 74404608 
900.594 73551760 72646912 71741376 70877280 70089760 69407072 68849984 
903.969 68435824 68178304 68086704 68167568 68423992 68857704 69470008 
907.344 70263800 71243560 72414600 73780640 75343784 77102864 79055448 
910.719 81199208 83532152 86052216 88755600 91632768 94670384 97851952 
914.093 101163696 104602544 108181264 111930576 115893456 120121008 
916.986 124659080 129535256 134748048 140251808 145951504 151678704 
919.879 157198528 162226608 166429024 169499152 171214112 171488928 
922.771 170429168 168335120 165697168 163084096 161102608 160315488 
925.664 161117680 163720720 168090400 173960016 180815872 187950112 
928.557 194598816 199951248 203313536 204217856 202424928 197961232 
931.450 191063456 182138912 171685872 160236784 148355360 136551200 
934.342 125266136 114874176 105625400 97672888 91084248 85850496 81921752 
937.717 79225728 77686616 77222504 77734128 79096072 81120320 83551760 
941.092 86095240 88406904 90161296 91109096 91092672 90089248 88197552 
944.467 85623800 82624136 79459328 76370392 73529384 71041608 68952224 
947.841 67255880 65917352 64886464 64115404 63560120 63183508 62957236 
951.216 62855244 62854132 62933752 63076184 63267984 63500820 63769864 
954.591 64072476 64406960 64770596 65160400 65573372 66007560 66461996 
957.966 66936424 67430064 67940576 68464920 68999688 69543192 70096344 
961.341 70662392 71245784 71849344 72473240 73114784 73769328 74433000 
964.716 75104816 75786912 76483624 77198760 77934016 78687720 79455864 
968.090 80234304 81021240 81817888 82628112 83455976 84304056 85172136 
971.465 86057992 86959264 87874896 88806168 89756064 90727304 91720664 
974.840 92735000 93768080 94819120 95889944 96985648 98111992 99274504 
978.215 100475248 101713584 102987584 104296920 105644920 107039336 
981.108 108488944 110001336 111579872 113221968 114921272 116668472 
984.000 118454240 120267752 122093120 123908344 125679760 127364504 
986.893 128918472 130299104 131476312 132436736 133184416 133739664 
989.786 134133232 134407728 134610816 134792288 135005504 135296288 
992.678 135700512 136241040 136924944 137746832 138693952 139753824 
995.571 140916960 142179008 143538928 144994896 146541664 148171280 
998.464 149873696 151641120 153469184 155355792 157296176 159280336 
1001.356 161287216 163288704 165254656 167158016 168982384 170724704 
1004.249 172393152 174003632 175576928 177138256 178715152 180340112 
1007.142 182049360 183875520 185844672 187969200 190246144 192659040 
1010.035 195183600 197796976 200477472 203206208 205963792 208723168 
1012.927 211450272 214109488 216667872 219106416 221421920 223623056 
1015.820 225720336 227715312 229592864 231322848 232866592 234187488 
1018.713 235264432 236095376 236699536 237113456 237391584 237604784 
1021.605 237833648 238173776 238723104 239565136 240765984 242357392 
1024.498 244337024 246671888 249310064 252192944 255254768 258428848 
1027.391 261640432 264794320 267783760 270490784 272793696 274591328 
1030.284 275801664 276364736 276242496 275409888 273857824 271597664 
1033.177 268669344 265145152 261117840 256696640 251984656 247062128 
1036.070 241990976 236811984 231554336 226248864 220930112 215637600 
1038.963 210417760 205317616 200385808 195674960 191232832 187097360 
1041.856 183282336 179762560 176461600 173247776 169962160 166426944 
1044.750 162487792 158053808 153105744 147707328 141983952 136110192 
1047.643 130271960 124634888 119343384 114494648 110140808 106295984 
1050.536 102941680 100038256 97533128 95373120 93508536 91895656 90501240 
1053.911 89296952 88255968 87351928 86553968 85826792 85136136 84447632 
1057.286 83732840 82971824 82152440 81271792 80335272 79358168 78364680 
1060.661 77386520 76464616 75641280 74957216 74449288 74143600 74055960 
1064.037 74191592 74546008 75104816 75842224 76723152 77697744 78702856 
1067.412 79672952 80538992 81242392 81745488 82031000 82104648 81988656 
1070.787 81716656 81324856 80845424 80307088 79730400 79130384 78519120 
1074.162 77906264 77302744 76722360 76181288 75698856 75295424 74986784 
1077.538 74782776 74683712 74680208 74754160 74882712 75043256 75214416 
1080.913 75378032 75518920 75622664 75676224 75670976 75606024 75493768 
1084.288 75361712 75256176 75234744 75361632 75704224 76320584 77256112 
1087.663 78539216 80175032 82141152 84381352 86811744 89314536 91749680 
1091.039 93982240 95886136 97370656 98394048 98960792 99117912 98937360 
1094.414 98508768 97919200 97243968 96549416 95887784 95300904 94826784 
1097.789 94495224 94325888 94321808 94460832 94688640 94912528 95016968 
1101.164 94865288 94321448 93283440 91692224 89551672 86924408 83928568 
1104.540 80714928 77435784 74242576 71258392 68568856 66229872 64264140 
1107.915 62670208 61430524 60517920 59900796 59543152 59409480 59462596 
1111.290 59661776 59966596 60332164 60710044 61054156 61319276 61467396 
1114.665 61473960 61327936 61033716 60607588 60075940 59468860 58815552 
1118.041 58144316 57478392 56835952 56231952 55676664 55177236 54738400 
1121.416 54362340 54049452 53797544 53601180 53449724 53325032 53203404 
1124.791 53055008 52848688 52560112 52175772 51698560 51147060 50555568 
1128.166 49965920 49417988 48946912 48575388 48311264 48149904 48076204 
1131.542 48068136 48098268 48139540 48166824 48159748 48107444 48009440 
1134.917 47876752 47728424 47589092 47484220 47433436 47449516 47535228 
1138.292 47684492 47882192 48106592 48332632 48531440 48674964 48739908 
1141.667 48707472 48567680 48318852 47966552 47521552 46997444 46410208 
1145.042 45775384 45109244 44428752 43749212 43084780 42446468 41840284 
1148.418 41267700 40726116 40211184 39718908 39247208 38796776 38370920 
1151.793 37973356 37607592 37276104 36980696 36723204 36506156 36332336 
1155.168 36204248 36123296 36088332 36096828 36144684 36228668 36346496 
1158.543 36497508 36682064 36900320 37151784 37435208 37748560 38090212 
1161.919 38458228 38850000 39260624 39682348 40102848 40507528 40881572 
1165.294 41210316 41482548 41690648 41829852 41898008 41895528 41824964 
1168.669 41691964 41505484 41277760 41022296 40752932 40483120 40223180 
1172.044 39982472 39769744 39593300 39462948 39389288 39381708 39448792 
1175.420 39597296 39832020 40157648 40579808 41105440 41743320 42502664 
1178.795 43391844 44418584 45590012 46913456 48398336 50055184 51896228 
1182.170 53933776 56178024 58637004 61315192 64212812 67321608 70620256 
1185.545 74072112 77614104 81157544 84597656 87807248 90657616 93032840 
1188.921 94829384 95974784 96431952 96200488 95318152 93855552 91913176 
1192.296 89602008 87038816 84338656 81597248 78895208 76293160 73827336 
1195.671 71515992 69360528 67350896 65470264 63700444 62026400 60437296 
1199.046 58927448 57495864 56143748 54872672 53682724 52572492 51539076 
1202.422 50579988 49694112 48883016 48150124 47500372 46937008 46460648 
1205.797 46067220 45749500 45497356 45300444 45150568 45040952 44966456 
1209.172 44922836 44904280 44905052 44919824 44945620 44983688 45039628 
1212.547 45123400 45246972 45422304 45661008 45972144 46363236 46840300 
1215.923 47407308 48065580 48813272 49645076 50553296 51529112 52565724 
1219.298 53658912 54807712 56013528 57279336 58608340 60004604 61474340 
1222.673 63026644 64673104 66427356 68301680 70303272 72432328 74680328 
1226.048 77029704 79452568 81914592 84372136 86771480 89056208 91165336 
1229.424 93039904 94632768 95909240 96852896 97467272 97777416 97831536 
1232.799 97697368 97468848 97258560 97184496 97375344 97949432 99005944 
1236.174 100627992 102872136 105771632 109339752 113570816 118440352 
1239.067 123898512 129874320 136266560 142941776 149754160 156537824 
1241.960 163117904 169329776 175005568 179986416 184136848 187341392 
1244.853 189521632 190641296 190704304 189749952 187842704 185072688 
1247.746 181545440 177376848 172694752 167615120 162231216 156603840 
1250.639 150751456 144659456 138294944 131632816 124674096 117463464 
1253.532 110086192 102668864 95363216 88314768 81663864 75520496 69950584 
1256.908 64983344 60607856 56784216 53450812 50537480 47974248 45691632 
1260.283 43630680 41743176 39990388 38347104 36797780 35334648 33954600 
1263.658 32656218 31437538 30295554 29227302 28229836 27302078 26443202 
1267.033 25651816 24925028 24257824 23644612 23080796 22564478 22097892 
1270.409 21685686 21333866 21047258 20828586 20678720 20598246 20588308 
1273.784 20651754 20791706 21009282 21301116 21658762 22067178 22505324 
1277.159 22949956 23373820 23747874 24045828 24243108 24323384 24281862 
1280.534 24127014 23879376 23565686 23215206 22850516 22484038 22118844 
1283.910 21751138 21376292 20994188 20611030 20239218 19894428 19589634 
1287.285 19334174 19132154 18983944 18888834 18847030 18858588 18923372 
1290.660 19039018 19200892 19402150 19636224 19897446 20181108 20481872 
1294.035 20792714 21102214 21397592 21666808 21902212 22103994 22280720 
1297.411 22447924 22623500 22825336 23069930 23370114 23736850 24178506 
1300.786 24698046 25289288 25932158 26593240 27223968 27768536 28175988 
1304.161 28403344 28426302 28240232 27859922 27314324 26641258 25885908 
1307.536 25092586 24302884 23555016 22876780 22285464 21787436 21379076 
1310.912 21051222 20793340 20597446 20459502 20377924 20351500 20377056 
1314.287 20449292 20561488 20708326 20886676 21095988 21335674 21602624 
1317.662 21890014 22187046 22483026 22770374 23047322 23317982 23589508 
1321.037 23868524 24157488 24453588 24750064 25039756 25317000 25580326 
1324.413 25832418 26080330 26334404 26607930 26918254 27284826 27725338 
1327.788 28252680 28867480 29555534 30286176 31019364 31714048 32335590 
1331.163 32865238 33301506 33657756 33955496 34218596 34469368 34723912 
1334.538 34995448 35294428 35628652 36004596 36425652 36892384 37403496 
1337.914 37957808 38556672 39204668 39907856 40670404 41492724 42368800 
1341.289 43288160 44237460 45202704 46170024 47122476 48040896 48902188 
1344.664 49681188 50357020 50916384 51355740 51679640 51895188 52004456 
1348.039 51999188 51857812 51549372 51043744 50317992 49367720 48210284 
1351.415 46886288 45452984 43974680 42521956 41158548 39938184 38905264 
1354.790 38087100 37493648 37115256 36926004 36887300 36954756 37090068 
1358.165 37262460 37451892 37648568 37848760 38053280 38267524 38504788 
1361.540 38787720 39146248 39615264 40222564 40978488 41872432 42872796 
1364.916 43935008 45004748 46027764 46950480 47716592 48275896 48584016 
1368.291 48608848 48338668 47782644 46970528 45943560 44751348 43445964 
1371.666 42074728 40688632 39341988 38090608 36995888 36111448 35471720 
1375.041 35085600 34935080 34985928 35200348 35552728 36036024 36663644 
1378.417 37464572 38479368 39758340 41354428 43323632 45714972 48549408 
1381.792 51794528 55333924 58972760 62424880 65355784 67451192 68426240 
1385.167 68093104 66397400 63451968 59544904 55084356 50547304 46335660 
1388.542 42707048 39769484 37498344 35796360 34537560 33606916 32908306 
1391.917 32367148 31932994 31570070 31256084 30981858 30746568 30555448 
1395.293 30414092 30325114 30285998 30291008 30332932 30405706 30505682 
1398.668 30631032 30782454 30961076 31168964 31407830 31678048 31978856 
1402.043 32307930 32661896 33037498 33433144 33850244 34292740 34764864 
1405.418 35269092 35804492 36366672 36950968 37555024 38180644 38833480 
1408.794 39520424 40246700 41013264 41817740 42655324 43521296 44410256 
1412.169 45313204 46211332 47074872 47864320 48537036 49063568 49436776 
1415.544 49678960 49836240 49973096 50160796 50460508 50919816 51560156 
1418.919 52371976 53316636 54336576 55372200 56370312 57294040 58126852 
1422.295 58873260 59563980 60253592 61016324 61921572 63014844 64304748 
1425.670 65763660 67343424 68992616 70674128 72364384 74049640 75720080 
1429.045 77363440 78966224 80520768 82034880 83535688 85062424 86660752 
1432.420 88367472 90205544 92187064 94324528 96644152 99192096 102030928 
1435.796 105218360 108779744 112676000 116813352 121078552 125370800 
1438.689 129611608 133723704 137617312 141154176 144149552 146412560 
1441.582 147752400 148026544 147165792 145172752 142122752 138146928 
1444.475 133434104 128201904 122667760 117056584 111567192 106375184 
1447.368 101642600 97491824 93991168 91136512 88858408 87045008 85581112 
1450.743 84390568 83449552 82785800 82450232 82487696 82905768 83671216 
1454.118 84711888 85938240 87268672 88627704 89966168 91266056 92549504 
1457.494 93865048 95266784 96810664 98534712 100463520 102610656 104973776 
1460.869 107531016 110230400 112998536 115722832 118249856 120412392 
1463.762 122038480 123009232 123306048 123029472 122366768 121515424 
1466.655 120646840 119869816 119234760 118758536 118432088 118225936 
1469.548 118080920 117901664 117555400 116874976 115712288 113992352 
1472.441 111767296 109210120 106554440 104009032 101697880 99676256 97962552 
1475.816 96570024 95527832 94870392 94614768 94747040 95216776 95954032 
1479.192 96882840 97946064 99117328 100400296 101822728 103421712 105235248 
1482.567 107293656 109625480 112267280 115266952 118681192 122557464 
1485.460 126910656 131687600 136734560 141808112 146553136 150536368 
1488.353 153318912 154480896 153726768 150973984 146394176 140395536 
1491.246 133497224 126224296 118969648 111954720 105282240 98959040 92963552 
1494.621 87306104 82042488 77282000 73162816 69799808 67245664 65477552 
1497.997 64424948 63994600 64099932 64674296 65662048 67010916 68668000 
1501.372 70569264 72642416 74814656 76993144 79068328 80904936 82305152 
1504.747 83015392 82743104 81225688 78376504 74395056 69737632 64901888 
1508.122 60237032 55883728 51836980 48043304 44464100 41092184 37959144 
1511.498 35112220 32585066 30391916 28519102 26935282 25603240 24487766 
1514.873 23557990 22782314 22129688 21573442 21094804 20691020 20372334 
1518.248 20152508 20036980 20016024 20063146 20145568 20235328 20326290 
1521.623 20438246 20607208 20862690 21210474 21635568 22112116 22619450 
1524.999 23148452 23707316 24315710 24995392 25757770 26599088 27504586 
1528.374 28457928 29449500 30479166 31556598 32695476 33908132 35203264 
1531.749 36583576 38044888 39576644 41160080 42770484 44379460 45962088 
1535.124 47498524 48975324 50377300 51688000 52891692 53967840 54897412 
1538.500 55663328 56251264 56645988 56833008 56808836 56587028 56200536 
1541.875 55692444 55096692 54426892 53672636 52811720 51826936 50726908 
1545.250 49550440 48358184 47205984 46118984 45087816 44074416 43034696 
1548.625 41940848 40801016 39658500 38578252 37613368 36783028 36071124 
1552.000 35439900 34852424 34289400 33758268 33285696 32901124 32615640 
1555.376 32413628 32252930 32077056 31818140 31403058 30767764 29879012 
1558.751 28771808 27558812 26384470 25354372 24503086 23810942 23233418 
1562.126 22722154 22233810 21736298 21213710 20671040 20131372 19627626 
1565.501 19189360 18828448 18536194 18287884 18055364 17815512 17559574 
1568.877 17295274 17042262 16822704 16650077 16526975 16447542 16404564 
1572.252 16392348 16406594 16442003 16488668 16531967 16555957 16550312 
1575.627 16518233 16479617 16464407 16495381 16579812 16709298 16868618 
1579.002 17044468 17231006 17430800 17652222 17904758 18193582 18518004 
1582.378 18872290 19248132 19636918 20029452 20414456 20775160 21090248 
1585.753 21337520 21498546 21566372 21549206 21471982 21370862 21287232 
1589.128 21263224 21331498 21516616 21833496 22286020 22865220 23543892 
1592.503 24277620 25000306 25633012 26101090 26340248 26314724 26023756 
1595.879 25501294 24807242 24011022 23184764 22388054 21664926 21049310 
1599.254 20563226 20219708 20024420 19975118 20063318 20277682 20607834 
1602.629 21045138 21581206 22205702 22900740 23638350 24384222 25096062 
1606.004 25729646 26244744 26604584 26781108 26757708 26529062 26101794 
1609.380 25493458 24733612 23861486 22923934 21974562 21060822 20218840 
1612.755 19468262 18809660 18230312 17709266 17225868 16763156 16313525 
1616.130 15881373 15482198 15137287 14865402 14676929 14571415 14539276 
1619.505 14564083 14626722 14708804 14794843 14877746 14959910 15053134 
1622.881 15172627 15330250 15528830 15762508 16021101 16297081 16588040 
1626.256 16896280 17224490 17571270 17928688 18283116 18621610 18936558 
1629.631 19229186 19507526 19781536 20057558 20335248 20606654 20859768 
1633.006 21082074 21262282 21393348 21471914 21499486 21481626 21428468 
1636.382 21353946 21270878 21188764 21110422 21032234 20944186 20833730 
1639.757 20690394 20509762 20297298 20066616 19835776 19619274 19422488 
1643.132 19240340 19058440 18858310 18621750 18337964 18007492 17644214 
1646.507 17272792 16921978 16618403 16378241 16208576 16106920 16064765 
1649.883 16067928 16095228 16118679 16101109 16002743 15799480 15507402 
1653.258 15191155 14927708 14763237 14694923 14691735 14717304 14744657 
1656.633 14758985 14754941 14733757 14699207 14653932 14598005 14528621 
1660.008 14442052 14335567 14207711 14059221 13892137 13710378 13519704 
1663.384 13328397 13146122 12982016 12841248 12723556 12622063 12524584 
1666.759 12414785 12276722 12099420 11879688 11625013 11350387 11074778 
1670.134 10814187 10578436 10371011 10190548 10031965 9887064 9744721 
1673.509 9590973 9412494 9202579 8966888 8725274 8503661 8323940 8193790 
1677.367 8106583 8046835 7998131 7949602 7899120 7853537 7823274 7816763 
1681.224 7834475 7866425 7894160 7897062 7859543 7781545 7682145 7593692 
1685.082 7543893 7541904 7581689 7649938 7735164 7829752 7930164 8034988 
1688.939 8142740 8251330 8359101 8466259 8576010 8693362 8822648 8964892 
1692.796 9116050 9266413 9404198 9518353 9604252 9667772 9725778 9798162 
1696.654 9895640 10015214 10141197 10251814 10322860 10334294 10278718 
1700.029 10169349 10038983 9923878 9846322 9806464 9790367 9778302 9752582 
1703.886 9699519 9610214 9483200 9324332 9145759 8961341 8782513 8616026 
1707.744 8462306 8318266 8178326 8037890 7894835 7750174 7607820 7472592 
1711.601 7348965 7238074 7139135 7049244 6965735 6887123 6813877 6746432 
1715.459 6683707 6620959 6550549 6465354 6364170 6254640 6152900 6074973 
1719.316 6031294 6023230 6043557 6081256 6124839 6166208 6201868 6232690 
1723.174 6262371 6294979 6332834 6375904 6422207 6470230 6518528 6566292 
1727.031 6611774 6651979 6682227 6698176 6697672 6683001 6659785 6634651 
1730.888 6611135 6585904 6547488 6477394 6357345 6177971 5950197 5705454 
1734.746 5484504 5316660 5208702 5149552 5119612 5100569 5077739 5043545 
1738.603 4997021 4942257 4886159 4835463 4794756 4766314 4750570 4746918 
1742.461 4754456 4771339 4794589 4820989 4848329 4875470 4903316 4933309 
1746.318 4966420 5001613 5035601 5063256 5079984 5081661 5066776 5035367 
1750.176 4989178 4930628 4863575 4793249 4726217 4669210 4626710 4599886 
1754.033 4585253 4575207 4560340 4531344 4483435 4418493 4344959 4274348 
1757.890 4215326 4170998 4137645 4107440 4070948 4021786 3958116 3883758 
1761.748 3805902 3732205 3668545 3617289 3578066 3549603 3529927 3516866 
1765.605 3507781 3498896 3486470 3468100 3444354 3419373 3399135 3388215 
1769.463 3387347 3392223 3394761 3385344 3358496 3315390 3265144 3220879 
1773.320 3192907 3185697 3195978 3217207 3242811 3269284 3296526 3326408 
1777.177 3360433 3397733 3434301 3465194 3485869 3495255 3495956 3493585 
1781.035 3494019 3499764 3510319 3521977 3530729 3534103 3532533 3528357 
1784.892 3525217 3525117 3528291 3533602 3540016 3548133 3559959 3578066 
1788.750 3603490 3633995 3664201 3685954 3691067 3674860 3637136 3583946 
1792.607 3523246 3463291 3408720 3360867 3318796 3281703 3250088 3224818 
1796.465 3207093 3195978 3188568 3181225 3170043 3153289 3132096 3109168 
1800.322 3088144 3071526 3059981 3052540 3048135 3046533 3048636 3055676 
1804.179 3068156 3084874 3103595 3121182 3135700 3147348 3157761 3169376 
1808.037 3183828 3200317 3216406 3228724 3235233 3236502 3235433 3236502 
1811.894 3242911 3255864 3273958 3293989 3313454 3331083 3348212 3367178 
1815.752 3390787 3420041 3454440 3492082 3531163 3570315 3610172 3651002 
1819.609 3693005 3735347 3775720 3811518 3841135 3863833 3880181 3891146 
1823.467 3897465 3899739 3899170 3898100 3900374 3910069 3930331 3961025 
1827.324 3998744 4036166 4065598 4081250 4081952 4073022 4063256 4062654 
1831.181 4077203 4107239 4148517 4195386 4243364 4291046 4339872 4392920 
1835.039 4452669 4519358 4591180 4665492 4741157 4819381 4904221 5000607 
1838.896 5112672 5241868 5386937 5544035 5708778 5877713 6047623 6216455 
1842.754 6382428 6544057 6701238 6855211 7009306 7166756 7328914 7493256 
1846.611 7653783 7801313 7925912 8020137 8080219 8106955 8104186 8076944 
1850.469 8028845 7960637 7871352 7759888 7626940 7476132 7313279 7143885 
1854.326 6972166 6799876 6626678 6452440 6278809 6109583 5949895 5803261 
1858.183 5670406 5548197 5431725 5315889 5198206 5080152 4965314 4858013 
1862.041 4760519 4672492 4591682 4516010 4445405 4382343 4330468 4292786 
1865.898 4269028 4255711 4246442 4234899 4218137 4197092 4176517 4161697 
1869.756 4156378 4160493 4170663 4182773 4193847 4202747 4209471 4214356 
1873.613 4216363 4212649 4200271 4176885 4142897 4101085 4055530 4009814 
1877.470 3965071 3919999 3871689 3818170 3758942 3696347 3633794 3574625 
1881.328 3519171 3466263 3412727 3357160 3300366 3245949 3198581 3161866 
1885.185 3135967 3117678 3101526 3082204 3057578 3028349 2998120 2970663 
1889.043 2948545 2932532 2921558 2915120 2913852 2919956 2935368 2960521 
1892.900 2992415 3025746 3054842 3075964 3088845 3097355 3106565 3120882 
1896.758 3141407 3165971 3190571 3212601 3231528 3249855 3270720 3296460 
1900.615 3326241 3356760 3384108 3405447 3421543 3436138 3453071 3474880 
1904.472 3500332 3524950 3542788 3550137 3546630 3536274 3524850 3517167 
1908.330 3514896 3516332 3517434 3514628 3506745 3494988 3482195 3470171 
1912.187 3459583 3448528 3435804 3420909 3406048 3394393 3388249 3386379 
1916.045 3384375 3375192 3352987 3316692 3270686 3224651 3187867 3165471 
1919.902 3155525 3151620 3144544 3127790 3100158 3065553 3030651 3001056 
1923.760 2978403 2960021 2941639 2920223 2896940 2876494 2865053 2866287 
1927.617 2879062 2897207 2912985 2919756 2915353 2902444 2885800 2869856 
1931.474 2855815 2841173 2821996 2796851 2766972 2737662 2714489 2700386 
1935.332 2694451 2691551 2685883 2674381 2659245 2646644 2643677 2654011 
1939.189 2675414 2700452 2719791 2726292 2718990 2702453 2685183 2674281 
1943.047 2672347 2676981 2684016 2690350 2696918 2707721 2728326 2759736 
1946.904 2798952 2837571 2867088 2882664 2886433 2885366 2889602 2906614 
1950.761 2937203 2976067 3014235 3044465 3064285 3076532 3087143 3100091 
1954.619 3115843 3129759 3135900 3129459 3109903 3082472 3054242 3030884 
1958.476 3014569 3002224 2988912 2971163 2949813 2928196 2912218 2904579 
1962.334 2904212 2906380 2905980 2901010 2893905 2889502 2892738 2904412 
1966.191 2919956 2930898 2929730 2914186 2888501 2861318 2840506 2829600 
1970.049 2825365 2820129 2806789 2783345 2754635 2730494 2719957 2727359 
1973.906 2749533 2779410 2811224 2844908 2887868 2951914 3045566 3167407 
1977.763 3303638 3432063 3532299 3590193 3603991 3581073 3533602 3473210 
1981.621 3405113 3331984 3254027 3174649 3101259 3042563 3006361 2994350 
1985.478 3001690 3018439 3035055 3045933 3051338 3056410 3066287 3082271 
1989.336 3100458 3114241 3117645 3110503 3098523 3092816 3102861 3133164 
1993.193 3180257 3234198 3284307 3323170 3349481 3367579 3383140 3400171 
1997.051 3417870 3432497 3439244 3436171 3425217 3411291 3398668 3388516 
2000.908 3377596 3360032 3330716 3288714 3238772 3190003 3151086 3128158 
2004.765 3121883 3128758 3143843 3165437 3193575 3230259 3275293 3323504 
2008.623 3365041 3389852 3390920 3368748 3331049 3290317 3258301 3241743 
2012.480 3240441 3250789 3267982 3290317 3319731 3360032 3411759 3471173 
2016.338 3529827 3577431 3608736 3625809 3638572 3659957 3699822 3760747 
2020.195 3837023 3916422 3986806 4039979 4075163 4095867 4107105 4112223 
2024.052 4111253 4103158 4088742 4071818 4059176 4057303 4069310 4091351 
2027.910 4114832 4130052 4132293 4123161 4111621 4108544 4121923 4153066 
2031.767 4195988 4241758 4283785 4320863 4357910 4402258 4458695 4525887 
2035.625 4598011 4666430 4725145 4774120 4818577 4864647 4916720 4973425 
2039.482 5028059 5072911 5102111 5115588 5118874 5119276 5122528 5129468 
2043.340 5136510 5138052 5131178 5117097 5102781 5096311 5105229 5131983 
2047.197 5174432 5226609 5281543 5334002 5379959 5416326 5439543 5445784 
2051.054 5432866 5402805 5362482 5322698 5296100 5291773 5311998 5350640 
2054.912 5395928 5435215 5459808 5469170 5468935 5468767 5476518 5495745 
2058.769 5525007 5559540 5594076 5625929 5655065 5682390 5707636 5728351 
2062.627 5739968 5737920 5721670 5694073 5662517 5633984 5614147 5603843 
2066.484 5600084 5597331 5591525 5581590 5569273 5557795 5549136 5542961 
2070.342 5536820 5527759 5514638 5498833 5483431 5472223 5465915 5462560 
2074.199 5458164 5449474 5435248 5418473 5404114 5397370 5400423 5410958 
2078.056 5423271 5431222 5430987 5422600 5410320 5399316 5394553 5397471 
2081.914 5406865 5419916 5434175 5449239 5465580 5484135 5504571 5523933 
2085.771 5538867 5545982 5544304 5535847 5523665 5510511 5496484 5478834 
2089.629 5452863 5415789 5367916 5314179 5262929 5223390 5200922 5197367 
2093.486 5209071 5230466 5255987 5282147 5308174 5334237 5360100 5384085 
2097.344 5403644 5417366 5425619 5432262 5442328 5459842 5486216 5518665 
2101.201 5551922 5580617 5602198 5618041 5633011 5652782 5681216 5719219 
2105.058 5764713 5814107 5865019 5916910 5971226 6029849 6092848 6158613 
2108.916 6224018 6286137 6344164 6399240 6454491 6511464 6570329 6627721 
2112.773 6678761 6719073 6747576 6766759 6781735 6798462 6820912 6850061 
2116.631 6883622 6918364 6951560 6982133 7011225 7040219 7070461 7101614 
2120.488 7133375 7165948 7200881 7241207 7290197 7349201 7416066 7485503 
2124.345 7550670 7605797 7648724 7681302 7708316 7735299 7765826 7799761 
2128.203 7834509 7866729 7894160 7916701 7936643 7957060 7979772 8005118 
2132.060 8032659 8061856 8094599 8134198 8183694 8244339 8313166 8382915 
2135.918 8445582 8493660 8525220 8542217 8550834 8556816 8564013 8572969 
2139.775 8581519 8588751 8594969 8603013 8616093 8634547 8654185 8666488 
2143.633 8661115 8630626 8573408 8495282 8405313 8314213 8228603 8149121 
2147.490 8073164 7996343 7917949 7841054 7771324 7713645 7668891 7633111 
2151.347 7597941 7555356 7500774 7433795 7358199 7276921 7189797 7092958 
2155.205 6982334 6856187 6722371 6597073 6503493 6463235 6487753 6572717 
2159.062 6700734 6847267 6989203 7112863 7212840 7289961 7346876 7383913 
2162.920 7399382 7392136 7362580 7315368 7256234 7191482 7123439 7052443 
2166.777 6976105 6893957 6809064 6728293 6660693 6611841 6582977 6568748 
2170.635 6559463 6544797 6518965 6481194 6436398 6392751 6357210 6334482 
2174.492 6324833 6326715 6334952 6345677 6352839 6349645 6329842 6288524 
2178.349 6224522 6142919 6053805 5970420 5903945 5860317 5836808 5825491 
2182.207 5815249 5799198 5776868 5755076 5742653 5747992 5772603 5811387 
2186.064 5854708 5892726 5919597 5934880 5942572 5947040 5952011 5958259 
2189.922 5964138 5968337 5971125 5974686 5981640 5992961 6006735 6018527 
2193.779 6023701 6020643 6012076 6003678 6002267 6012009 6032033 6056526 
2197.636 6077762 6089993 6091807 6087103 6081962 6082096 6089119 6100476 
2201.494 6110154 6112237 6104273 6087640 6067782 6049907 6038181 6032570 
2205.351 6031428 6031361 6029983 6026355 6020274 6011741 5999512 5981774 
2209.209 5957957 5929203 5901157 5880400 5874153 5886379 5916540 5958830 
2213.066 6005122 6047387 6080853 6103769 6117345 6123461 6123562 6117849 
2216.924 6106928 6092916 6079139 6070772 6071982 6084112 6104206 6126486 
2220.781 6144599 6153639 6153370 6146851 6139760 6136903 6140163 6148598 
2224.638 6159117 6168494 6175182 6179316 6182575 6185466 6187785 6187046 
2228.496 6181299 6169334 6152833 6134249 6117211 6103669 6093185 6083641 
2232.353 6072721 6059651 6046111 6035829 6032268 6037576 6050982 6068958 
2236.211 6087640 6104240 6118555 6132904 6150110 6171854 6197767 6225093 
2240.068 6250774 6272590 6290810 6307250 6325135 6346316 6370760 6397189 
2243.926 6423788 6449985 6477024 6507630 6544091 6586812 6633407 6678593 
2247.783 6716818 6743706 6757672 6760297 6755316 6746466 6736942 6728462 
2251.640 6722270 6719107 6720419 6727688 6741855 6762182 6786245 6810478 
2255.498 6831615 6847907 6859048 6865747 6868373 6866420 6857702 6840131 
2259.355 6812699 6777528 6739466 6704637 6679199 6666514 6666278 6675497 
2263.213 6689966 6706117 6722572 6740341 6760667 6784192 6809670 6834409 
2267.070 6854740 6868474 6875072 6876014 6873692 6870022 6865848 6860765 
2270.927 6853730 6844372 6833904 6824513 6818724 6818758 6824816 6836496 
2274.785 6852081 6870392 6890489 6912170 6934928 6957520 6978294 6995096 
2278.642 7006949 7014054 7018398 7022506 7028634 7037996 7049446 7061368 
2282.500 7071302 7077870 7081136 7082686 7083696 7085346 7087704 7090095 
2286.357 7091779 7092251 7091274 7089354 7086626 7082854 7077331 7070157 
2290.215 7061536 7053891 7049648 7051803 7062311 7080867 7105723 7133577 
2294.072 7161502 7187641 7211695 7234233 7256335 7278505 7300406 7320962 
2297.929 7339226 7354458 7366556 7375487 7381149 7382531 7378251 7367028 
2301.787 7348560 7324197 7296431 7268060 7241780 7218433 7197411 7177435 
2305.644 7157257 7136744 7117073 7100300 7088276 7081911 7080766 7083023 
2309.502 7087165 7091880 7096932 7102826 7110236 7118858 7128289 7137114 
2313.359 7144356 7149611 7153148 7155573 7157190 7156920 7153417 7144255 
2317.217 7128087 7104510 7074906 7041498 7007285 6974758 6945668 6921057 
2321.074 6901531 6886955 6877159 6870123 6862785 6850835 6829899 6796914 
2324.931 6751345 6696023 6636031 6577628 6526466 6485062 6453516 6429337 
2328.789 6408992 6390094 6371937 6355495 6343055 6336365 6335625 6339827 
2332.646 6346989 6355361 6364405 6374459 6386866 6402670 6422241 6444873 
2336.504 6469423 6494715 6520075 6545336 6570665 6595996 6620892 6644880 
2340.361 6667793 6689831 6711838 6734553 6758513 6783687 6809367 6836226 
2344.219 6865983 6902575 6951291 7016849 7102085 7206372 7324971 7450480 
2348.076 7574237 7687811 7783737 7856944 7904384 7925170 7920682 7894937 
2351.933 7854110 7805125 7755335 7711386 7676884 7653412 7640024 7634898 
2355.791 7636348 7644206 7658976 7682482 7716343 7760563 7813626 7873106 
2359.648 7935834 7998570 8059965 8119412 8177279 8234513 8292091 8351097 
2363.506 8412272 8476462 8543366 8612476 8682241 8750765 8816257 8878546 
2367.363 8937935 8996385 9055723 9116726 9178720 9239504 9296471 9347590 
2371.220 9392822 9433962 9474970 9520588 9574511 9639381 9716223 9804905 
2375.078 9904657 10014739 10134074 10261991 10396971 10537798 10683323 
2378.453 10832973 10987194 11147114 11313690 11487134 11665855 11847033 
2381.828 12026924 12201710 12368895 12527074 12676234 12816472 12947503 
2385.204 13067920 13175732 13268780 13345788 13406885 13453158 13486959 
2388.579 13510031 13523874 13528830 13525071 13512663 13492188 13465120 
2391.954 13432891 13397316 13359216 13319958 13279883 13240392 13202853 
2395.329 13169107 13140691 13118424 13102716 13093155 13089705 13093120 
2398.705 13104765 13126826 13160807 13207566 13266593 13336358 13414744 
2402.080 13500528 13593064 13692801 13800632 13917180 14042110 14174539 
2405.455 14313342 14457637 14607292 14763168 14926370 15098005 15278492 
2408.830 15467537 15664598 15869034 16080100 16297735 16520642 16747383 
2412.206 16975346 17200670 17419074 17626340 17818032 17990882 18142276 
2415.581 18270294 18374566 18455528 18515654 18557596 18585368 18602452 
2418.956 18610994 18611996 18605668 18591350 18569044 18539996 18505798 
2422.331 18469460 18433436 18399422 18368586 18341454 18319058 18303228 
2425.707 18297250 18304680 18329358 18374326 18440836 18528930 18637694 
2429.082 18765338 18910498 19071942 19248582 19439640 19644474 19862310 
2432.457 20092988 20336914 20594284 20865088 21149208 21445700 21753296 
2435.832 22071082 22398764 22736504 23084920 23444772 23816050 24198264 
2439.208 24590878 24993498 25406712 25831998 26271214 26725888 27196346 
2442.583 27681476 28179098 28686672 29202140 29724712 30253846 30789426 
2445.958 31330508 31875652 32422018 32967572 33510480 34050556 34588116 
2449.333 35123716 35657532 36187972 36712676 37228488 37732188 38221712 
2452.708 38695272 39152048 39591052 40011024 40409512 40784200 41131524 
2456.084 41447224 41727304 41966612 42159648 42301776 42388708 42417752 
2459.459 42387688 42298816 42151980 41948292 41688896 41375604 41010496 
2462.834 40597924 40143804 39655844 39143748 38616712 38083844 37553612 
2466.209 37032728 36527852 36045348 35591424 35172540 34794804 34463196 
2469.585 34181452 33951592 33773988 33647516 33570116 33538792 33549388 
2472.960 33597140 33676732 33782120 33907560 34048088 34198984 34356384 
2476.335 34516252 34674564 34827184 34970380 35100368 35214832 35311432 
2479.710 35388852 35446048 35481712 35494836 35485060 35452484 35399060 
2483.086 35327244 35240452 35142076 35034956 34921324 34803236 34681992 
2486.461 34559124 34436044 34313284 34190772 34066972 33939660 33806260 
2489.836 33664628 33513810 33353954 33185542 33009860 32827284 32637212 
2493.211 32438512 32229874 32009818 31777394 31532052 31273246 31000076 
2496.587 30711644 30407340 30086700 29751182 29403086 29046060 28684406 
2499.962 28321852 27961648 27605662 27254836 26909266 26569182 26234256 
2503.337 25904336 25579624 25260314 24947242 24642178 24347354 24065266 
2506.712 23798096 23547322 23312458 23091768 22882404 22681482 22486794 
2510.088 22297428 22113196 21934446 21761450 21593778 21431252 21273766 
2513.463 21121796 20977358 20842700 20719866 20609850 20512160 20424528 
2516.838 20344518 20270080 20200928 20138486 20085596 20045274 20020014 
2520.213 20011062 20017966 20038890 20071854 20114122 20163198 20216444 
2523.589 20271538 20326428 20379384 20429288 20476278 20520810 20563504 
2526.964 20604708 20644318 20681326 20714478 20742038 20762264 20773840 
2530.339 20775196 20765046 20742768 20708640 20664228 20612142 20555894 
2533.714 20499100 20444082 20391814 20341846 20292230 20241854 20190652 
2537.090 20139494 20091080 20048466 20013664 19987538 19969532 19958014 
2540.465 19951110 19947640 19946948 19948578 19952602 19958186 19964502 
2543.840 19970574 19975706 19979628 19982994 19985838 19988232 19989446 
2547.215 19988508 19984172 19976194 19965300 19953122 19941674 19932966 
2550.591 19927624 19925856 19926584 19928630 19931232 19933590 19935708 
2553.966 19937962 19940460 19943270 19946252 19949654 19953018 19956420 
2557.341 19959054 19959784 19956834 19948162 19931788 19906916 19872958 
2560.716 19830470 19780322 19723592 19660596 19592096 19518652 19440922 
2564.092 19360538 19279272 19199334 19122666 19050892 18985294 18926938 
2567.467 18876858 18835610 18803742 18781080 18766688 18759110 18756792 
2570.842 18758384 18763054 18771116 18783122 18799972 18822392 18850456 
2574.217 18883848 18922404 18965562 19013264 19064948 19119930 19177204 
2577.593 19235456 19293542 19350978 19408282 19466738 19527662 19592478 
2580.968 19661566 19734378 19809938 19887316 19965994 20046212 20128664 
2584.343 20213736 20301534 20391328 20482010 20572466 20662212 20751630 
2587.718 20841760 20933684 21028130 21124998 21223764 21323078 21421960 
2591.094 21519646 21615682 21709824 21802106 21892140 21979580 22064318 
2594.469 22146598 22226696 22305658 22384286 22462998 22542420 22622382 
2597.844 22702952 22784306 22866966 22951564 23039008 23129578 23223840 
2601.219 23322318 23425468 23534134 23648810 23770166 23898208 24032346 
2604.594 24171956 24316026 24464348 24616862 24774232 24937066 25105610 
2607.970 25279348 25457058 25637052 25817368 25996634 26173862 26348380 
2611.345 26519728 26687200 26849940 27006642 27156206 27297174 27428660 
2614.720 27549668 27659370 27757374 27843848 27919068 27984088 28040564 
2618.095 28090226 28134518 28174892 28212016 28246314 28278140 28307634 
2621.471 28335396 28361854 28387178 28411516 28434544 28456052 28476644 
2624.846 28497094 28519208 28544756 28575612 28612806 28656090 28704972 
2628.221 28758108 28814224 28872190 28931614 28992002 29053040 29114260 
2631.596 29175278 29235700 29295708 29355792 29416668 29479214 29543654 
2634.972 29609662 29676070 29741920 29806362 29869180 29931086 29993210 
2638.347 30056660 30122498 30191044 30262124 30335278 30410040 30486418 
2641.722 30564620 30645040 30728038 30813968 30902618 30993670 31086664 
2645.097 31181316 31277306 31374704 31473550 31574450 31678048 31784772 
2648.473 31895052 32009282 32127432 32249254 32374214 32501678 32631394 
2651.848 32763324 32897514 33034458 33174884 33318930 33467282 33619980 
2655.223 33777216 33939084 34105572 34276676 34452328 34632320 34816556 
2658.598 35004892 35197224 35393492 35593584 35797080 36003300 36211344 
2661.974 36420172 36628744 36836296 37042544 37247476 37451100 37653660 
2665.349 37855340 38056172 38256304 38456164 38656260 38857468 39060288 
2668.724 39265596 39473868 39685360 39900480 40119196 40341736 40567944 
2672.099 40797552 41030124 41264712 41500816 41737664 41974464 42211092 
2675.475 42446764 42680508 42911492 43138608 43361268 43579832 43795460 
2678.850 44010132 44226564 44446992 44673300 44906780 45148104 45397764 
2682.225 45656736 45926396 46208272 46504312 46816052 47143820 47487432 
2685.600 47846232 48218728 48603696 48999728 49406072 49821820 50246456 
2688.976 50679616 51120968 51570452 52027984 52493704 52967744 53449984 
2692.351 53940380 54439324 54947348 55465104 55993664 56533696 57084908 
2695.726 57646996 58218568 58797948 59383760 59975232 60572048 61174528 
2699.101 61783228 62398560 63020708 63649036 64282544 64919932 65558964 
2702.477 66197844 66834076 67465088 68088688 68702432 69304368 69892552 
2705.852 70464496 71017336 71547792 72052184 72527120 72969424 73377336 
2709.227 73749536 74085904 74386560 74652192 74883352 75080872 75245856 
2712.602 75379720 75483912 75559488 75606536 75624320 75611032 75564576 
2715.978 75482568 75363760 75207672 75015064 74787536 74527672 74238840 
2719.353 73925448 73592184 73244624 72887944 72527864 72169112 71816040 
2722.728 71473216 71145232 70836984 70553400 70299408 70078624 69893208 
2726.103 69743432 69628640 69547512 69498432 69480704 69494472 69539928 
2729.479 69617280 69726008 69864608 70030504 70221352 70434104 70665864 
2732.854 70914376 71176720 71450136 71731920 72019528 72311040 72604896 
2736.229 72900400 73196664 73492848 73787200 74077616 74361976 74638776 
2739.604 74907208 75167136 75419264 75664312 75903032 76136472 76365648 
2742.979 76592544 76820384 77052216 77291184 77539984 77799360 78069232 
2746.355 78347888 78633592 78924016 79217416 79511528 79803736 80090560 
2749.730 80367568 80630224 80874648 81098312 81300320 81481520 81643872 
2753.105 81790088 81923184 82045488 82159168 82265552 82365392 82457728 
2756.480 82541112 82612552 82668344 82704704 82718488 82707064 82668744 
2759.856 82602176 82506048 82378856 82219232 82026072 81799448 81540320 
2763.231 81250696 80933608 80592008 80228808 79847584 79451568 79045392 
2766.606 78633912 78223344 77819256 77426832 77050360 76692112 76353840 
2769.981 76037104 75742608 75472008 75226944 75008408 74817176 74652904 
2773.357 74514024 74398392 74303160 74224928 74159792 74103592 74051680 
2776.732 73998832 73940256 73871080 73786408 73681848 73553096 73395888 
2780.107 73206664 72982672 72723456 72430808 72108904 71764440 71404672 
2783.482 71037280 70668640 70303304 69944352 69593280 69250536 68915608 
2786.858 68587328 68264176 67943368 67621976 67296888 66965728 66626944 
2790.233 66280396 65927148 65569168 65208608 64848260 64490444 64137840 
2793.608 63793616 63460788 63142656 62842228 62561668 62302364 62064888 
2796.983 61848860 61653636 61478124 61321680 61183416 61062812 60959016 
2800.359 60871216 60798264 60739344 60693012 60657876 60632200 60613764 
2803.734 60600504 60590104 60581116 60572504 60564276 60556544 60549992 
2807.109 60544736 60539896 60534680 60526796 60513732 60493048 60462352 
2810.484 60419284 60362128 60289376 60200152 60093860 59971048 59832072 
2813.860 59678616 59512220 59335364 59150648 58961300 58770784 58583612 
2817.235 58404860 58239444 58093444 57972900 57883472 57830700 57819420 
2820.610 57852732 57932500 58058824 58229668 58441212 58688812 58966728 
2823.985 59268896 59589368 59922396 60261584 60601076 60934348 61254640 
2827.361 61555544 61830868 62075136 62284084 62454572 62585204 62676028 
2830.736 62729156 62748344 62738500 62705540 62654972 62591784 62520264 
2834.111 62443472 62364252 62285692 62210660 62143216 62087248 62046732 
2837.486 62025136 62025748 62052044 62107932 62199460 62333304 62518352 
2840.862 62764496 63081196 63478848 63967728 64558180 65262624 66095748 
2844.237 67072788 68211064 69525616 71025064 72707440 74554432 76528872 
2847.612 78567960 80588936 82493344 84168176 85508560 86423728 86847832 
2850.987 86752704 86146880 85075600 83607824 81832728 79848928 77747632 
2854.363 75616984 73531664 71547832 69708232 68038496 66548616 65236368 
2857.738 64089484 63089548 62213876 61439796 60746396 60114372 59527952 
2861.113 58974012 58441552 57922052 57409252 56898840 56389404 55881312 
2864.488 55377700 54883160 54404324 53948932 53525092 53141240 52805356 
2867.864 52523168 52299128 52134412 52027872 51975288 51970056 52003708 
2871.239 52065784 52145544 52231860 52314488 52385280 52439116 52474336 
2874.614 52492508 52498000 52496732 52494264 52495872 52504620 52522680 
2877.989 52550728 52588800 52637012 52695100 52763300 52841316 52928964 
2881.365 53025916 53131804 53246512 53369952 53502040 53642716 53791540 
2884.740 53948028 54111260 54280892 54456380 54637232 54823272 55013756 
2888.115 55208500 55406756 55608796 55815524 56028644 56250736 56484788 
2891.490 56733692 57000120 57286596 57595620 57930416 58294728 58692872 
2894.865 59129232 59607232 60127956 60689544 61286424 61908692 62541424 
2898.241 63167648 63767172 64319580 64808332 65220968 65552636 65806336 
2901.616 65992980 66129588 66235356 66331424 66437280 66569008 66741140 
2904.991 66965452 67251656 67608856 68044696 68565752 69178344 69888344 
2908.366 70701624 71625776 72668504 73837896 75140744 76579976 78152840 
2911.742 79848336 81647912 83522040 85432160 87334056 89175000 90900112 
2915.117 92458688 93804096 94902264 95734768 96299536 96609800 96689480 
2918.492 96569944 96280800 95846592 95283776 94598408 93788064 92844792 
2921.867 91760648 90531120 89159984 87660848 86058120 84385376 82679128 
2925.243 80978440 79318984 77728304 76227608 74828864 73536496 72348880 
2928.618 71260192 70262440 69345960 68501816 67722464 67001796 66336400 
2931.993 65725260 65169296 64670832 64232640 63857360 63546040 63298152 
2935.368 63110508 62977992 62892624 62844448 62822312 62813848 62807188 
2938.744 62792404 62762348 62713540 62646552 62565608 62477220 62388576 
2942.119 62306876 62237200 62181720 62138896 62103804 62067756 62019172 
2945.494 61946676 61838852 61688160 61492856 61257540 60993828 60717700 
2948.869 60448644 60205668 60003348 59852264 59755528 59710816 59710360 
2952.245 59743628 59799216 59864968 59930728 59987748 60028760 60048468 
2955.620 60042760 60008712 59944460 59849452 59724392 59571428 59394360 
2958.995 59198488 58989536 58773856 58557300 58344336 58138404 57942004 
2962.370 57756476 57582792 57421960 57274764 57141932 57024300 56922224 
2965.746 56836216 56766316 56712248 56673512 56649084 56637460 56636328 
2969.121 56643048 56654936 56669888 56686652 56704960 56725840 56750268 
2972.496 56779644 56814840 56856424 56904432 56958640 57018368 57082304 
2975.871 57147264 57208308 57257296 57284212 57277560 57225392 57118388 
2979.247 56950516 56720856 56433356 56097256 55725480 55331892 54931364 
2982.622 54537552 54160280 53806240 53478388 53175952 52895020 52630240 
2985.997 52376312 52128768 51885328 51645756 51411232 51182360 50958040 
2989.372 50732160 50494708 50231240 49924660 49559836 49126152 48621004 
2992.748 48050444 47429740 46780436 46124952 45484480 44874044 44300932 
2996.123 43764896 43259900 42776992 42306924 41842508 41379796 40917792 
2999.498 40457700 40001540 39551640 39109156 38674844 38248884 37831628 
3002.873 37423432 37025328 36637864 36261840 35897224 35543992 35201608 
3006.249 34869980 34549044 34239384 33941592 33656392 33383940 33123922 
3009.624 32875352 32636642 32405846 32181204 31961024 31744026 31529416 
3012.999 31316728 31105956 30897494 30692192 30490824 30294844 30105416 
3016.374 29923772 29750828 29587030 29432232 29285712 29146114 29012052 
3019.750 28882070 28754496 28628236 28502260 28375790 28248400 28119848 
3023.125 27990378 27860666 27732334 27607922 27490500 27383910 27291460 
3026.500 27215994 27158886 27119806 27096600 27085420 27080872 27076286 
3029.875 27064366 27038060 26990952 26918114 26816984 26687552 26532304 
3033.250 26355352 26162530 25959770 25752638 25545992 25343378 25147248 
3036.626 24959174 24780090 24610164 24449416 24297418 24153460 24016518 
3040.001 23886026 23760964 23640448 23523850 23410606 23300046 23191754 
3043.376 23085722 22981850 22880378 22781860 22686542 22594982 22507104 
3046.751 22423116 22342946 22266560 22194020 22125330 22060276 21998506 
3050.127 21938906 21880710 21822694 21763888 21703798 21642044 21578560 
3053.502 21513342 21446432 21377962 21308146 21237474 21166778 21096996 
3056.877 21029278 20964874 20904686 20849062 20798414 20752812 20712080 
3060.252 20675800 20643728 20615098 20589630 20566978 20547522 20531786 
3063.628 20520844 20515598 20516606 20523518 20535538 20550928 20567846 
3067.003 20584696 20599984 20612804 20622220 20627188 20626528 20618536 
3070.378 20601964 20575940 20540888 20498126 20450472 20401122 20353478 
3073.753 20310422 20273934 20244632 20222104 20204954 20191000 20177914 
3077.129 20163336 20145600 20123356 20096286 20064742 20029348 19991250 
3080.504 19951630 19911494 19871604 19832932 19795858 19760730 19727302 
3083.879 19695160 19663474 19631476 19598924 19566100 19534384 19505516 
3087.254 19481466 19463724 19452910 19448060 19447920 19450140 19453084 
3090.630 19455580 19457416 19459044 19461506 19465630 19472144 19481292 
3094.005 19492970 19506936 19522638 19539724 19558092 19577398 19597884 
3097.380 19619620 19643018 19668256 19695474 19724044 19753136 19781640 
3100.755 19808446 19833208 19856134 19878264 19901054 19926272 19955204 
3104.131 19988058 20024662 20064220 20105516 20147336 20188710 20228628 
3107.506 20266398 20301534 20333824 20363478 20391398 20418764 20447416 
3110.881 20478466 20513132 20551518 20593416 20638064 20684244 20730986 
3114.256 20777246 20822154 20864844 20904964 20942098 20976696 21009386 
3117.632 21040894 21072126 21103258 21133868 21163402 21190712 21215206 
3121.007 21236604 21255392 21272688 21289320 21306094 21323250 21340756 
3124.382 21358612 21377232 21397176 21419556 21445074 21474314 21506868 
3127.757 21541408 21576506 21610632 21642672 21672624 21700628 21728008 
3131.133 21756050 21785904 21818758 21855274 21895624 21939918 21987596 
3134.508 22037686 22089316 22141298 22192522 22242390 22290032 22335168 
3137.883 22377378 22416696 22453506 22488226 22522388 22557392 22594982 
3141.258 22636276 22681586 22730324 22781268 22832880 22883834 22933784 
3144.634 22983072 23032648 23083732 23137128 23193256 23251910 23312492 
3148.009 23374100 23436482 23499262 23562502 23626348 23690832 23755888 
3151.384 23821408 23887218 23953140 24018794 24083618 24147226 24209510 
3154.759 24270334 24330182 24390040 24450994 24513708 24578850 24646142 
3158.135 24714916 24784582 24854606 24924784 24995848 25068190 25142860 
3161.510 25219860 25299334 25380788 25463698 25547502 25631956 25716532 
3164.885 25800914 25884324 25966558 26047186 26126390 26204622 26282338 
3168.260 26360000 26437462 26513988 26588730 26660704 26729236 26794252 
3171.635 26856496 26916668 26975438 27032594 27087888 27140544 27189962 
3175.011 27235998 27279146 27319828 27358432 27395132 27429898 27462546 
3178.386 27493042 27522448 27551998 27583384 27618020 27656828 27699842 
3181.761 27746460 27795840 27847098 27900058 27954510 28010488 28068026 
3185.136 28126600 28185568 28243804 28300950 28356652 28411162 28465004 
3188.512 28518890 28573418 28628944 28685930 28744584 28805302 28868506 
3191.887 28934448 29003338 29075216 29149480 29225280 29302052 29378446 
3195.262 29453684 29526878 29597778 29666102 29732376 29797276 29861478 
3198.637 29925654 29989838 30054210 30118414 30182662 30247168 30312608 
3202.013 30380118 30450520 30523952 30599744 30676866 30753608 30828446 
3205.388 30900910 30970542 31038154 31104534 31170138 31235612 31301092 
3208.763 31366658 31432584 31499058 31566330 31634070 31701860 31768944 
3212.138 31834434 31898298 31960844 32023300 32087080 32153156 32221884 
3215.514 32292436 32363578 32433622 32501750 32567564 32631748 32695622 
3218.889 32760252 32826644 32895080 32965570 33037748 33111226 33185542 
3222.264 33260152 33334206 33407234 33478376 33547562 33615220 33682424 
3225.639 33750248 33819548 33890828 33963412 34036044 34107472 34176400 
3229.015 34242648 34306508 34368616 34429984 34491000 34551984 34612876 
3232.390 34673200 34732632 34790888 34847576 34902292 34954900 35005572 
3235.765 35054816 35103744 35153752 35205668 35260324 35317504 35376592 
3239.140 35436664 35496924 35557620 35619440 35683216 35749228 35816796 
3242.516 35884452 35950132 36011976 36069216 36122720 36174324 36226436 
3245.891 36281040 36339216 36400684 36464352 36528756 36592912 36656792 
3249.266 36720680 36785124 36850688 36917168 36984088 37050948 37117676 
3252.641 37184556 37252492 37322464 37394828 37469408 37545124 37620416 
3256.017 37693696 37763704 37830324 37893880 37955276 38015668 38076140 
3259.392 38136980 38198268 38259672 38320792 38381596 38441900 38502180 
3262.767 38563116 38625368 38689512 38755728 38823804 38893560 38964448 
3266.142 39035960 39108468 39182472 39258268 39336544 39417008 39499704 
3269.518 39583828 39668588 39753400 39837936 39922456 40007064 40092232 
3272.893 40178184 40264552 40351552 40438860 40526444 40614296 40702568 
3276.268 40791404 40881132 40972080 41064868 41160188 41258920 41361644 
3279.643 41468808 41580516 41696196 41815804 41939100 42066476 42198604 
3283.019 42336072 42479024 42626848 42778744 42932892 43087892 43243280 
3286.394 43399388 43557156 43718212 43883504 44053444 44227920 44405556 
3289.769 44585316 44766296 44948084 45131196 45316480 45505192 45698884 
3293.144 45898372 46104876 46318848 46540236 46768444 47002500 47241076 
3296.520 47482632 47725800 47969988 48215172 48461492 48709768 48961008 
3299.895 49215912 49475684 49741408 50014176 50294924 50584156 50882224 
3303.270 51188736 51503112 51824620 52152868 52487832 52829308 53177004 
3306.645 53530712 53889548 54252736 54619908 54991452 55368440 55752192 
3310.021 56143824 56543360 56950064 57362632 57779636 58200684 58626616 
3313.396 59058888 59499528 59949976 60410484 60880212 61357628 61841220 
3316.771 62330092 62824032 63323028 63827464 64336560 64849108 65363868 
3320.146 65879868 66396476 66914544 67434984 67958288 68484624 69013120 
3323.521 69542768 70072704 70602320 71131488 71660240 72188232 72714176 
3326.897 73236864 73754448 74266320 74771952 75271544 75764584 76249440 
3330.272 76723784 77183392 77624608 78045120 78443856 78821632 79179760 
3333.647 79519096 79838816 80137496 80413056 80663656 80889616 81092280 
3337.022 81274104 81436824 81580776 81704296 81804448 81877336 81920024 
3340.398 81930792 81909104 81855336 81770008 81653384 81505496 81326088 
3343.773 81114768 80871496 80595600 80286200 79941808 79560960 79142584 
3347.148 78687208 78196520 77673816 77122616 76546976 75949400 75331920 
3350.523 74696072 74043312 73375640 72695448 72005128 71306456 70600720 
3353.899 69887960 69168664 68443624 67715104 66986100 66260828 65542540 
3357.274 64834064 64137184 63452580 62780464 62121120 61474992 60842820 
3360.649 60225308 59622284 59033036 58456488 57891612 57337596 56794448 
3364.024 56262540 55743112 55236232 54743020 54263848 53799152 53349680 
3367.400 52915868 52498000 52095296 51706400 51328816 50960200 50598528 
3370.775 50242508 49892284 49548356 49211424 48881680 48558152 48239352 
3374.150 47923260 47607800 47292056 46975656 46659268 46343512 46029092 
3377.525 45716444 45405788 45096968 44789876 44484252 44179500 43874888 
3380.901 43569320 43261584 42950300 42634380 42313428 41987308 41656916 
3384.276 41323124 40987736 40652500 40318900 39988352 39661804 39339008 
3387.651 39019760 38702880 38387312 38072124 37756944 37441600 37126804 
3391.026 36813068 36501616 36193552 35890388 35593508 35304280 35023172 
3394.402 34749788 34482280 34217732 33952772 33685004 33413068 33138048 
3397.777 32862630 32590460 32324564 32066532 31816072 31571068 31328548 
3401.152 31086274 30842852 30598500 30354642 30112554 29873262 29637046 
3404.527 29403016 29170210 28937920 28706460 28476574 28249320 28025792 
3407.903 27806296 27590798 27378724 27169432 26962534 26758024 26555726 
3411.278 26355774 26158026 25962372 25768952 25578112 25390554 25207010 
3414.653 25028210 24854292 24685140 24520020 24358322 24199316 24042292 
3418.028 23886692 23732266 23578524 23425364 23273094 23122590 22975318 
3421.404 22833124 22697052 22567304 22442516 22320448 22198518 22074358 
3424.779 21947098 21817016 21685824 21555960 21429236 21306650 21188278 
3428.154 21073030 20959414 20845794 20730916 20613986 20495106 20374382 
3431.529 20252790 20131926 20013732 19899978 19792286 19691416 19596740 
3434.905 19506936 19420132 19334246 19248374 19162246 19076408 18991974 
3438.280 18909356 18828586 18748594 18667924 18585332 18500128 18412592 
3441.655 18323344 18233802 18144868 18057124 17970264 17883938 17796732 
3445.030 17707956 17616540 17522038 17424626 17325514 17226006 17128316 
3448.406 17034440 16945888 16863280 16785920 16712500 16640333 16567523 
3451.781 16491938 16412478 16329110 16241733 16151588 16058885 15964758 
3455.156 15870064 15776046 15684212 15595626 15511007 15430284 15352425 
3458.531 15275884 15198499 15118795 15035846 14949587 14860842 14770812 
3461.906 14681213 14593105 14507379 14424925 14345327 14268896 14194702 
3465.282 14122302 14050665 13979007 13906813 13833811 13760341 13686474 
3468.657 13612483 13538231 13463683 13388364 13312134 13235063 13157631 
3472.032 13080486 13004515 12929855 12856811 12784667 12712739 12640688 
3475.407 12568137 12495086 12422252 12350452 12280404 12212819 12147665 
3478.783 12084360 12021644 11957847 11890994 11819930 11744758 11666297 
3482.158 11587034 11510031 11437566 11371576 11311887 11257103 11205181 
3485.533 11153539 11101019 11047144 10992666 10938466 10885427 10833585 
3488.908 10782258 10730767 10678976 10627022 10576127 10527919 10483621 
3492.284 10443501 10407356 10373522 10340402 10306675 10271898 10236276 
3495.659 10200419 10165380 10131497 10099142 10068722 10040306 10014672 
3499.034 9991853 9972121 9954863 9938964 9922624 9904522 9883640 9860015 
3502.892 9834697 9809650 9787147 9769254 9757461 9752480 9753835 9760478 
3506.749 9770440 9781793 9791892 9799009 9802432 9802872 9801855 9802161 
3510.606 9806499 9816259 9832155 9853203 9877268 9902623 9927709 9952219 
3514.464 9976222 10000532 10025488 10050716 10075301 10097718 10116743 
3517.839 10131869 10143368 10152389 10160055 10167211 10174097 10180203 
3521.214 10183934 10183493 10177353 10164057 10142893 10113928 10077302 
3524.590 10033457 9982970 9926115 9862931 9793857 9719747 9641651 9561165 
3528.447 9480287 9400440 9322369 9246206 9170903 9095375 9018374 8939356 
3532.304 8858458 8775987 8691976 8606697 8519374 8429535 8336403 8240557 
3536.162 8143550 8047881 7955845 7869698 7789843 7716411 7647476 7581385 
3540.019 7516619 7452300 7388260 7324837 7262366 7200814 7140247 7080227 
3543.877 7020317 6960449 6900050 6838919 6776889 6713992 6650263 6586510 
3547.734 6524279 6464278 6407412 6353680 6301837 6250101 6196456 6139524 
3551.592 6078669 6014932 5949659 5884834 5822234 5762228 5705219 5651406 
3555.449 5600822 5554036 5511886 5474304 5441153 5410757 5381469 5350976 
3559.306 5317969 5282114 5243880 5204879 5166820 5131212 5099060 5070900 
3563.164 5046026 5023601 5001210 4975738 4943530 4900166 4842968 4771239 
3567.021 4687564 4597643 4508544 4426593 4355702 4296233 4245940 4201107 
3570.879 4158352 4114966 4070146 4024595 3979885 3937151 3897498 3860824 
3574.736 3826627 3794137 3762886 3732272 3702262 3672387 3642047 3610840 
3578.594 3578367 3544559 3510286 3476684 3445088 3416768 3392590 3372888 
3582.451 3357828 3347544 3341667 3339497 3339530 3339196 3334322 3320498 
3586.308 3293321 3250456 3192540 3123719 3050704 2980972 2920891 2873859 
3590.166 2841106 2820195 2807990 2800186 2792816 2781978 2765372 2741763 
3594.023 2711188 2675214 2636910 2599408 2566177 2539747 2521116 2509919 
3597.881 2504020 2500654 2496522 2489157 2477360 2461499 2443272 2424879 
3601.738 2408953 2397258 2390728 2389528 2393226 2400956 2412118 2425279 
3605.595 2438873 2450036 2456067 2453868 2441772 2419548 2389495 2355247 
3609.453 2321634 2291455 2265940 2243725 2222310 2198465 2170925 2139624 
3613.310 2107293 2077362 2053425 2037146 2028823 2026626 2027092 2027458 
3617.168 2024229 2014776 1997366 1971004 1936189 1894522 1848999 1803381 
3621.025 1761427 1726463 1699918 1683086 1675436 1677066 1688408 1710363 
3624.883 1743595 1788176 1842111 1900413 1954295 1992074 2002259 1976496 
3628.740 1915289 1829001 1735711 1652818 1590792 1552450 1533164 1525583 
3632.597 1521992 1516938 1508193 1496722 1485784 1478835 1477837 1482725 
3636.455 1490937 1499216 1505067 1507162 1505766 1502541 1499083 1496024 
3640.312 1493065 1488776 1481993 1472318 1461680 1453169 1450675 1458222 
3644.170 1477638 1509323 1551186 1599405 1649725 1697090 1736177 1762691 
3648.027 1771674 1759830 1725532 1670580 1600569 1525416 1456859 1404767 
3651.885 1375715 1371360 1388346 1419493 1456360 1490106 1512848 1520362 
3655.742 1512449 1493264 1470257 1450675 1439871 1439738 1448282 1461247 
3659.599 1474247 1482957 1485351 1481561 1474014 1466234 1462411 1464871 
3663.457 1475144 1493065 1518301 1550555 1591058 1641776 1704608 1780890 
3667.314 1870795 1972968 2087483 2217048 2369572 2559344 2803954 3118079 
3671.172 3511455 3987308 4543264 5173425 5866463 6601413 7333194 7987770 
3675.029 8471124 8687108 8582195 8166475 7504516 6683236 5785967 4885254 
3678.886 4035664 3280735 2652511 2164698 1813130 1576393 1426008 1331376 
3682.744 1268498 1224270 1193104 1174531 1169448 1176624 1191708 1208820 
3686.601 1221346 1223805 1213305 1189183 1153302 1108189 1057765 1005090 
3690.459 954015 907494 868615 838968 819581 809224 806634 809290 815332 
3694.798 822867 830801 838204 844379 849426 854173 859717 867619 878575 
3699.138 891690 904406 911977 909819 895010 867519 831698 793987 761225 
3703.478 738622 728399 729561 739551 755947 776925 802186 832196 867320 
3707.817 907096 949764 991839 1029667 1059526 1078127 1082877 1072679 
3711.675 1047403 1009075 961852 912010 865793 829341 806302 797672 801987 
3716.014 815697 834287 853874 871337 885381 895774 903178 907893 910151 
3720.354 909354 905436 898795 890793 882825 876384 871902 868582 864996 
3724.693 859518 850355 837474 821772 805970 793555 788875 795182 814634 
3729.033 847633 892155 943621 996721 1045144 1083707 1110746 1127622 1138120 
3733.373 1146259 1153036 1155794 1149083 1127722 1089354 1037870 982142 
3737.230 932099 895940 877579 876218 889166 913039 946211 988352 1039597 
3741.570 1098422 1160345 1215299 1250986 1253711 1217425 1148418 1066866 
3745.427 996987 955675 948502 971249 1013858 1065006 1114899 1156491 1185529 
3749.767 1200978 1202872 1191509 1167455 1132007 1089321 1045443 1007780 
3753.624 982275 972013 975998 990378 1010503 1031527 1049661 1063047 1070852 
3757.964 1072081 1066601 1053547 1033453 1009142 985131 967032 959660 964874 
3762.303 980880 1002998 1024784 1040992 1048266 1047303 1041424 1036143 
3766.161 1035778 1041922 1053414 1066368 1076233 1079223 1073510 1059160 
3770.018 1039232 1017279 996754 980249 968659 961686 958464 958000 959261 
3774.358 961885 966634 974006 985031 999743 1016980 1033918 1046805 1051887 
3778.697 1047037 1032822 1012662 991905 975600 967298 967065 972810 980681 
3783.037 986924 989083 986592 980448 973043 966434 962018 960324 961287 
3787.376 964409 969655 976829 985363 994330 1002466 1008843 1012762 1014821 
3791.716 1016681 1020002 1026578 1036243 1047336 1057467 1063180 1062283 
3795.573 1055142 1044214 1034283 1031161 1038734 1058662 1089354 1125695 
3799.431 1160013 1184432 1190977 1175694 1140478 1094303 1049761 1018341 
3803.288 1007348 1017046 1043350 1077396 1109152 1129615 1132007 1115397 
3807.146 1084936 1050060 1019902 1001038 995226 1000573 1014090 1032457 
3811.003 1054544 1080751 1112441 1150279 1193104 1236864 1275410 1300634 
3814.861 1305752 1288072 1252216 1209052 1171973 1153169 1157853 1184332 
3818.718 1225001 1268831 1303060 1316387 1303293 1266239 1215731 1165794 
3822.575 1128718 1110414 1110414 1123403 1141741 1158916 1170113 1173867 
3826.433 1171674 1167754 1165827 1168784 1177090 1188984 1201709 1212375 
3830.290 1218622 1220150 1218455 1216229 1217359 1225267 1242579 1270226 
3834.148 1307380 1351185 1397254 1440237 1474912 1496822 1503871 1496589 
3838.005 1478137 1453967 1428601 1405166 1384955 1366940 1348692 1328584 
3841.863 1305021 1277504 1247098 1215631 1185661 1159814 1140080 1127522 
3845.720 1122572 1124400 1131741 1143834 1160644 1183336 1214601 1257665 
3849.577 1315190 1387880 1473017 1562891 1646632 1707934 1731220 1706803 
3853.435 1636887 1536722 1429300 1336029 1267435 1225533 1206494 1203404 
3857.292 1210780 1224370 1241649 1261520 1283419 1306516 1329847 1351617 
3861.150 1370097 1383892 1391770 1392401 1385720 1371460 1350952 1327554 
3865.007 1305852 1291594 1289700 1302628 1329116 1363848 1399814 1428103 
3868.865 1440802 1435117 1413509 1384191 1357301 1340250 1335032 1338488 
3872.722 1343574 1342643 1331243 1308577 1278900 1249624 1228756 1221579 
3876.579 1229520 1249956 1277870 1307148 1332140 1348659 1355406 1353844 
3880.437 1347695 1342444 1343574 1354276 1375748 1405830 1439738 1470423 
3884.294 1490372 1493397 1477505 1446553 1409387 1377576 1360691 1362951 
3888.152 1383027 1415936 1453102 1485119 1505134 1508392 1495193 1469426 
3892.009 1437245 1405232 1378573 1360226 1351916 1354309 1367604 1391138 
3895.866 1423748 1462976 1504801 1545800 1581547 1609017 1627308 1637253 
3899.724 1640845 1641177 1640379 1639215 1636987 1631532 1619958 1600303 
3903.581 1571571 1534627 1492466 1449578 1410318 1379072 1357832 1347163 
3907.439 1345933 1352315 1363283 1376546 1389908 1402473 1414041 1425144 
3911.296 1436347 1448780 1463010 1479466 1497919 1518234 1539116 1559167 
3915.154 1576858 1590958 1600503 1605724 1607254 1606489 1604859 1603197 
3919.011 1601833 1601101 1601201 1602997 1606855 1613473 1621954 1630601 
3922.868 1636355 1635723 1626410 1608052 1582611 1554744 1529905 1512515 
3926.726 1504968 1507428 1517702 1532765 1549358 1565485 1579652 1591391 
3930.583 1600104 1605292 1606090 1601467 1591524 1577257 1560497 1543705 
3934.441 1529074 1517636 1510155 1506231 1505433 1506996 1511019 1516871 
3938.298 1524419 1533330 1542807 1551486 1558269 1562093 1562060 1558203 
3942.156 1550854 1540945 1530304 1520761 1514111 1511950 1514544 1521327 
3946.013 1530471 1539581 1546631 1550255 1550222 1547495 1543771 1541044 
3949.870 1539914 1540945 1543339 1546332 1548992 1550987 1552051 1552483 
3953.728 1552284 1551419 1549956 1547928 1545933 1545134 1546431 1550355 
3957.585 1556607 1564787 1573400 1581580 1588763 1595115 1600769 1606456 
3961.443 1612376 1618096 1623450 1627973 1631898 1635590 1639880 1645135 
3965.300 1651421 1658040 1663861 1668484 1671777 1674338 1677565 1682421 
3969.157 1689406 1698055 1707136 1715020 1720808 1724035 1724800 1723768 
3973.015 1721972 1719577 1717215 1715153 1713822 1713988 1716816 1723136 
3976.872 1733116 1746290 1761460 1776831 1791337 1803680 1813562 1821248 
3980.730 1826572 1829367 1829966 1827836 1823145 1816523 1808538 1800286 
3984.587 1792468 1785681 1779891 1775067 1771374 1768779 1767648 1768447 
3988.445 1770676 1774668 1779559 1784682 1789906 1794930 1799422 1803680 
3992.302 1807240 1809503 1809969 1808272 1803913 1797625 1790139 1781854 
3996.159 1773703 1766184 1759331 1753309 1748486 1744527 1741899 1740435 
4000.017 1739969 1740302 
##END=
