
##TITLE=Z240_1_a
##JCAMP-DX=5.01  $$ Nicolet v. 1
##DATATYPE=INFRARED SPECTRUM
##ORIGIN=UniL
##OWNER=Nicolet
##LONGDATE=2011/09/09
##TIME=11:09:25
##SPECTROMETER/DATA SYSTEM=Nicolet iS5
##DATA PROCESSING=
Ratio against background
%Transmittance->Absorbance
Truncated
ElementMultiply or ElementDivide
##COMMENTS=
Number of sample scans: 32
Collection length: 51.19 sec
Sample gain: 2.0
Background collected on: Ven Sep 09 11:02:15 2011 (GMT+02:00);
Number of background scans: 32
Background gain: 2.0
Sample spacing:  1.000
Number of scan points: 12415
Resolution points: 8192
Number of FFT points: 65536
Apodization: N-B fort;
Phase correction: Mertz;
Laser frequency: 15798.0 cm-1
Number of rejected sample scans: 0
Number of rejected background scans: 0
Bench serial number: ASB1000141;
##RESOLUTION=4.000
##XUNITS=1/CM
##YUNITS=ABSORBANCE
##FIRSTX=649.893372
##LASTX=4000.122314
##FIRSTY=0.082497
##MAXX=4000.122314
##MINX=649.893372
##MAXY=0.272501
##MINY=-0.000757
##XFACTOR=1.000000
##YFACTOR=1.000000E-009
##NPOINTS=6950
##DELTAX=0.482117
##ZPD=6100
##XYDATA=(X++(Y..Y))
649.893 82496512 82302032 82185312 82162456 82228032 82354824 82505880 
653.268 82651872 82785680 82925864 83107216 83364992 83721032 84175736 
656.643 84713616 85316960 85979752 86711440 87534568 88468040 89520440 
660.018 90683088 91939512 93275544 94689224 96188504 97782848 99466360 
663.393 101212296 102971416 104689904 106322312 107830768 109187152 
666.285 110358536 111294824 111934904 112229440 112172416 111806648 
669.178 111194992 110381488 109374912 108155800 106700824 105004496 
672.071 103095032 101035808 98904952 96783544 94729472 92771392 90920288 
675.446 89180576 87560312 86073992 84735080 83546096 82494552 81554424 
678.820 80693256 79880632 79097544 78335392 77594296 76876776 76183736 
682.195 75512968 74860944 74226104 73609968 73017480 72454960 71926488 
685.570 71433336 70973720 70543656 70139096 69756120 69389648 69033512 
688.945 68678096 68313152 67928832 67518384 67080244 66618212 66139264 
692.320 65650216 65156320 64660104 64162224 63664304 63170744 62688968 
695.694 62230204 61805960 61425828 61096792 60821820 60599668 60427392 
699.069 60299880 60211760 60157484 60131916 60130012 60146948 60178264 
702.444 60220628 60271864 60331900 60402756 60488136 60591208 60713584 
705.819 60853192 61005268 61162928 61320572 61476100 61633396 61802596 
709.194 61998804 62242480 62558568 62975468 63527592 64248344 65164948 
712.569 66286416 67591120 69016768 70455296 71775344 72835552 73514984 
715.943 73748512 73533864 72938736 72079008 71111392 70205736 69515744 
719.318 69184480 69323688 69999712 71226536 72942376 75004896 77176120 
722.693 79163656 80667096 81415968 81255296 80171888 78307416 75912104 
726.068 73294680 70756720 68511856 66682264 65294012 64305096 63639096 
729.443 63214900 62968956 62851608 62825568 62860452 62926284 62997684 
732.817 63059324 63108020 63152580 63207612 63286112 63392952 63524484 
736.192 63671364 63825548 63983544 64147748 64321884 64507736 64700948 
739.567 64892500 65072864 65237752 65391608 65547012 65719052 65917848 
742.942 66143548 66385312 66624976 66842616 67023100 67159720 67252816 
746.317 67307208 67328528 67322808 67296304 67258504 67222688 67203000 
749.692 67211968 67256376 67334296 67437416 67554456 67677264 67803016 
753.066 67935272 68080160 68243400 68425784 68625200 68836896 69057632 
756.441 69286728 69525576 69774520 70030976 70287568 70535776 70769352 
759.816 70988424 71200464 71417288 71651136 71908192 72187728 72484520 
763.191 72794168 73120312 73479112 73898504 74419192 75089776 75957720 
766.566 77069192 78454536 80115464 82007464 84029792 86031696 87819528 
769.940 89215160 90105520 90489488 90499200 90377728 90423304 90869632 
773.315 91815912 93158056 94610192 95742904 96102704 95370272 93423928 
776.690 90397632 86612128 82510496 78522576 74962768 72019720 69730560 
780.065 68026832 66778004 65847708 65126524 64536996 64039564 63617812 
783.440 63267404 62989980 62791028 62680504 62671588 62779620 63018940 
786.815 63399056 63926532 64606040 65443920 66451452 67645168 69043104 
790.189 70665320 72529704 74653056 77055896 79763480 82805168 86212128 
793.564 90005312 94183624 98709400 103504880 108446376 113363728 118068264 
796.939 122355480 126030264 128950072 131041408 132333280 132954672 
799.832 133135976 133165288 133316176 133818792 134782432 136164192 
802.724 137750320 139187552 140059744 139938496 138523616 135710784 
805.617 131627976 126604064 121089064 115561672 110378784 105736128 
808.510 101640136 97947184 94428424 90854200 87080600 83067416 78885440 
811.885 74668680 70579200 66755132 63281700 60198552 57503128 55169708 
815.259 53163560 51451332 50003096 48789172 47781536 46952844 46277820 
818.634 45738164 45322548 45025404 44844612 44777756 44820664 44968768 
822.009 45218624 45571316 46033400 46616476 47333992 48197736 49214432 
825.384 50382176 51689008 53107800 54596540 56099636 57544848 58858080 
828.759 59974320 60849872 61479652 61904264 62212648 62523672 62978832 
832.133 63723892 64873920 66504896 68623144 71153816 73921248 76653136 
835.508 79027984 80682928 81300800 80685040 78789048 75745920 71825304 
838.883 67400072 62846056 58481432 54550100 51181464 48412336 46211588 
842.258 44509616 43222420 42266308 41572748 41082932 40748312 40532880 
845.633 40409292 40360060 40376092 40452024 40582532 40759448 40971024 
849.008 41204924 41453060 41713992 41993400 42301264 42647828 43039048 
852.382 43475992 43956528 44479184 45046244 45665312 46346828 47101312 
855.757 47936576 48856280 49862700 50959904 52156864 53469812 54921888 
859.132 56539208 58352708 60395940 62703588 65312452 68251656 71529352 
862.507 75112856 78912688 82773128 86459592 89701192 92215496 93745056 
865.882 94123496 93292264 91320640 88385544 84753968 80740944 76639064 
869.256 72713896 69165592 66112532 63614240 61673956 60258844 59311128 
872.631 58761452 58538112 58562228 58756520 59046812 59359600 59635928 
876.006 59835648 59941872 59964088 59934644 59901896 59913916 60011412 
879.381 60215224 60520664 60897140 61292792 61649932 61910872 62034692 
882.756 62006064 61837244 61565468 61240408 60917648 60642564 60444532 
886.131 60338144 60325424 60404280 60575780 60846480 61228848 61736208 
889.505 62376184 63146220 64031504 65008828 66049300 67124368 68211560 
892.880 69292480 70352896 71381352 72366056 73294440 74153936 74930752 
896.255 75609296 76172632 76599696 76869184 76963048 76870808 76595424 
899.630 76154432 75580544 74913512 74196656 73473464 72778816 72143248 
903.005 71592256 71145384 70820528 70632536 70592648 70710160 70991896 
906.379 71443336 72070208 72878736 73874656 75062792 76445296 78021168 
909.754 79786856 81738568 83873456 86190352 88688864 91366184 94214904 
913.129 97222952 100375328 103659912 107074312 110630544 114356568 118290536 
916.504 122476448 126951936 131736872 136821408 142153216 147631456 
919.397 153083552 158273472 162920896 166703056 169331872 170609440 
922.289 170479312 169071184 166701664 163865376 161122720 159061536 
925.182 158218256 158959936 161469632 165688240 171331008 177875424 
928.075 184619408 190820864 195711232 198654704 199245664 197304640 
930.967 192897808 186273776 177821680 167995952 157270144 146141664 
933.860 135062512 124430720 114591608 105784784 98165208 91810264 86724704 
937.235 82872448 80193488 78621440 78082408 78485304 79713840 81593088 
940.610 83884832 86311952 88549320 90286096 91280200 91371920 90527448 
943.985 88829424 86464040 83670088 80695456 77773992 75075160 72706224 
947.359 70715656 69102152 67834120 66865228 66149728 65645664 65317808 
950.734 65138384 65081640 65124444 65247492 65433784 65671876 65954916 
954.109 66279472 66643244 67043200 67474576 67931632 68409416 68904768 
957.484 69416592 69945448 70491040 71051600 71623472 72202600 72786848 
960.859 73377216 73978600 74596912 75237936 75903464 76592104 77299104 
964.233 78019624 78751072 79493864 80251000 81025512 81819168 82630832 
967.608 83458144 84298504 85151504 86019456 86906072 87814304 88744424 
970.983 89693488 90656720 91629656 92610520 93600472 94603640 95624000 
974.358 96663984 97723968 98803360 99902280 101023520 102172520 103355000 
977.733 104575608 105835592 107132912 108464448 109828744 111228168 
980.625 112668952 114158880 115704160 117306848 118964552 120671520 
983.518 122420840 124205280 126016352 127840128 129655200 131428552 
986.411 133118136 134681920 136080320 137286368 138289808 139095712 
989.304 139722688 140198272 140559728 140849776 141114464 141404320 
992.196 141763968 142228512 142819680 143542208 144388400 145343296 
995.089 146392880 147528128 148746272 150048128 151433968 152899696 
997.982 154437088 156035824 157687408 159387056 161132704 162920896 
1000.874 164742704 166579696 168406736 170197632 171929680 173591120 
1003.767 175181760 176711040 178193200 179645136 181086272 182538400 
1006.660 184028864 185590640 187255200 189048784 190984800 193062176 
1009.552 195265488 197572016 199959616 202407760 204898544 207413312 
1012.445 209925872 212402512 214808352 217111136 219292560 221350240 
1015.338 223294192 225136464 226881056 228516304 230017424 231351616 
1018.231 232489696 233416608 234135136 234666816 235046240 235322624 
1021.123 235558656 235824192 236202944 236781488 237633728 238818128 
1024.016 240361840 242261168 244484880 246985232 249709472 252599216 
1026.909 255594768 258627888 261609280 264437056 266997184 269172032 
1029.802 270863776 271992960 272501216 272350816 271515456 269982592 
1032.695 267759088 264879408 261409904 257438832 253072528 248413536 
1035.588 243544704 238533648 233429440 228271280 223101088 217963456 
1038.481 212906080 207980480 203234096 198711776 194458064 190509536 
1041.374 186891056 183602416 180605184 177810208 175074000 172226768 
1044.267 169081248 165475808 161315408 156580224 151337824 145719344 
1047.160 139907904 134097768 128462600 123154320 118276568 113885920 
1050.053 110001552 106608056 103668152 101130360 98941688 97051520 95414520 
1053.429 93995360 92764008 91692064 90752832 89915304 89145504 88411296 
1056.804 87680840 86928624 86137504 85297488 84406704 83470712 82503160 
1060.179 81525360 80565528 79659856 78846696 78163080 77643664 77313992 
1063.554 77190992 77282712 77587608 78094696 78781344 79614008 80544224 
1066.930 81509696 82444632 83280864 83959960 84444408 84716840 84782208 
1070.305 84661432 84387104 83994496 83515768 82980088 82409576 81820248 
1073.680 81224376 80630864 80047976 79485824 78956640 78475496 78059200 
1077.055 77722200 77473768 77315328 77240240 77233592 77276224 77349064 
1080.431 77433648 77513928 77576200 77606464 77592320 77525248 77404584 
1083.806 77241944 77063256 76911744 76840272 76907232 77173584 77691248 
1087.181 78500784 79628296 81079144 82834672 84846808 87042616 89319296 
1090.556 91554128 93628664 95431936 96883584 97945152 98616696 98934448 
1093.932 98954712 98748120 98383744 97921696 97416680 96914360 96454656 
1097.307 96077240 95816512 95699408 95736832 95915440 96188664 96470176 
1100.682 96648080 96586088 96145288 95218504 93739176 91703472 89168120 
1104.057 86246272 83086272 79840928 76663616 73681064 70982880 68629040 
1107.433 66645248 65031796 63771436 62836484 62193916 61806876 61639620 
1110.808 61655012 61813332 62074940 62395844 62728360 63027180 63248092 
1114.183 63354924 63325480 63151276 62838888 62406136 61879160 61287188 
1117.558 60657804 60016816 59385772 58781328 58216900 57701560 57241080 
1120.934 56838332 56494148 56207140 55974444 55790396 55644800 55520452 
1124.309 55395164 55240220 55025904 54729564 54338080 53854888 53298284 
1127.684 52700788 52102060 51539188 51045124 50640560 50333248 50119516 
1131.059 49986032 49913916 49879092 49857572 49827508 49771132 49679328 
1134.435 49552592 49401540 49243744 49101336 48996648 48945948 48959224 
1137.810 49037412 49173316 49352352 49553968 49755012 49929344 50052620 
1141.185 50104564 50070284 49942724 49721868 49413496 49026988 48573200 
1144.560 48064288 47512572 46931284 46335472 45740004 45158948 44603312 
1147.936 44079040 43586644 43122252 42680176 42254956 41843900 41447704 
1151.311 41069676 40714432 40385876 40087076 39819816 39585608 39386028 
1154.686 39222836 39097700 39011240 38962164 38948284 38966364 39013816 
1158.061 39089432 39192988 39324864 39485192 39673200 39887368 40125884 
1161.437 40387040 40669128 40969824 41284756 41606700 41924976 42226944 
1164.812 42499852 42732056 42914636 43041904 43109884 43117056 43063048 
1168.187 42949788 42781744 42566944 42316788 42043884 41761448 41481824 
1171.562 41214728 40968584 40751512 40571548 40438388 40362384 40352896 
1174.938 40418496 40565508 40798028 41120376 41537420 42055636 42683616 
1178.313 43430328 44304384 45313944 46466292 47769332 49232612 50866652 
1181.688 52683316 54694012 56907644 59330464 61965132 64808904 67850816 
1185.063 71066160 74414712 77830112 81221016 84481072 87483544 90102208 
1188.438 92225776 93757552 94634496 94829056 94351784 93249920 91601424 
1191.814 89511400 87092016 84457936 81719816 78967456 76275312 73698768 
1195.189 71270304 69006520 66909016 64968840 63170976 61498124 59935140 
1198.564 58469340 57092164 55798832 54586768 53454108 52398516 51416604 
1201.939 50504536 49658972 48878528 48164340 47520300 46951700 46462564 
1205.315 46054400 45724320 45465752 45269372 45125312 45025368 44963220 
1208.690 44933712 44932536 44954328 44992660 45042092 45098884 45163696 
1212.065 45241568 45342264 45478040 45661376 45904740 46218148 46609688 
1215.440 47085728 47649916 48303080 49042608 49862552 50754652 51709460 
1218.816 52719940 53781492 54892676 56054772 57270036 58541220 59871888 
1222.191 61267156 62734864 64285116 65930000 67679784 69540280 71510440 
1225.566 73580528 75732592 77939176 80166312 82372608 84508520 86523520 
1228.941 88365440 89986344 91351264 92438232 93242856 93777288 94072384 
1232.317 94177776 94157280 94096576 94095592 94258000 94695768 95511320 
1235.692 96789088 98598744 100985384 103972624 107564672 111748480 116492096 
1239.067 121739464 127415512 133417352 139615616 145873568 152041904 
1241.960 157969520 163519424 168556592 172955648 176610816 179431232 
1244.853 181353712 182347056 182408880 181563296 179853696 177344112 
1247.746 174113024 170251824 165865840 161055216 155905328 150476816 
1250.639 144795408 138860160 132654744 126169848 119418888 112452768 
1253.532 105355928 98247912 91268344 84549864 78219648 72376864 67080364 
1256.908 62355908 58192240 54551792 51377148 48602772 46163832 43996056 
1260.283 42044720 40265460 38622252 37091152 35656776 34310020 33045650 
1263.658 31859644 30747562 29704454 28725716 27808698 26952416 26157110 
1267.033 25422872 24748168 24129466 23562154 23042466 22569294 22144716 
1270.409 21773398 21460946 21211936 21028408 20911222 20860672 20878368 
1273.784 20968004 21133242 21376640 21696378 22084468 22526298 23000332 
1277.159 23481598 23940606 24345568 24667570 24880326 24967000 24923168 
1280.534 24758586 24496040 24164740 23796382 23415990 23037994 22666784 
1283.910 22299518 21931692 21561776 21194644 20840404 20512124 20220992 
1287.285 19974910 19777688 19630122 19532446 19485624 19490960 19548804 
1290.660 19657094 19811396 20005302 20232342 20487740 20767410 21066770 
1294.035 21379284 21694218 21998576 22280476 22531776 22752320 22950550 
1297.411 23141986 23344694 23577300 23856482 24195112 24603746 25089182 
1300.786 25652694 26285718 26966130 27658946 28314884 28878316 29299110 
1304.161 29535356 29563656 29380254 29000542 28453932 27778956 27021628 
1307.536 26227708 25439948 24697942 24029966 23453548 22974584 22588874 
1310.912 22285812 22053720 21883916 21771168 21713202 21708292 21752774 
1314.287 21840430 21964140 22117938 22298438 22505324 22738214 22994846 
1317.662 23269108 23550888 23829842 24098328 24354362 24601924 24848292 
1321.037 25100766 25362662 25632274 25903774 26170554 26427286 26672472 
1324.413 26908736 27142838 27384898 27647152 27945568 28297626 28718918 
1327.788 29220638 29802670 30451870 31140128 31831368 32489180 33082976 
1331.163 33597140 34031388 34398780 34718996 35012652 35297844 35586784 
1334.538 35888048 36208352 36552796 36926004 37331024 37769344 38241144 
1337.914 38747324 39291056 39878252 40516004 41209476 41959500 42760280 
1341.289 43601516 44469420 45349984 46229760 47093780 47926256 48709508 
1344.664 49424964 50058160 50600648 51051868 51416716 51700464 51902204 
1348.039 52009908 51998032 51830928 51473564 50896716 50089320 49061452 
1351.415 47847600 46500584 45083220 43667460 42320436 41100600 40056988 
1354.790 39220876 38605016 38202104 37988112 37926128 37973824 38094476 
1358.165 38258584 38446496 38648476 38859860 39080372 39314272 39572508 
1361.540 39875744 40251244 40731060 41340324 42087836 42962040 43931196 
1364.916 44950652 45965548 46920800 47761932 48433080 48886352 49082264 
1368.291 48996724 48626448 47989236 47121476 46067404 44876944 43598952 
1371.666 42275696 40951472 39672944 38489180 37455072 36620128 36016584 
1375.041 35653432 35514472 35567512 35776896 36117536 36582420 37183584 
1378.417 37949020 38917872 40138824 41662384 43541184 45820048 48516064 
1381.792 51595268 54944484 58377608 61623508 64366608 66311084 67188880 
1385.167 66823140 65162176 62312344 58546188 54251836 49883516 45825640 
1388.542 42325372 39487548 37289932 35640984 34421336 33521720 32850764 
1391.917 32336414 31929322 31593836 31307004 31058690 30848044 30680528 
1395.293 30562594 30497294 30482082 30510624 30574184 30665736 30780996 
1398.668 30918736 31080828 31270434 31490900 31744524 32031362 32349762 
1402.043 32696300 33067424 33459444 33871020 34303276 34759232 35241892 
1405.418 35752108 36287704 36844376 37418052 38007784 38616644 39251160 
1408.794 39918680 40624556 41370720 42155884 42977624 43833212 44718800 
1412.169 45625380 46532376 47407048 48206176 48883832 49408260 49771396 
1415.544 49995960 50128700 50235516 50388796 50651172 51072032 51675200 
1418.919 52453248 53369200 54365756 55382104 56363220 57270828 58087608 
1422.295 58817752 59492120 60165364 60910980 61797136 62867380 64127892 
1425.670 65548556 67078776 68663848 70264112 71853608 73417624 74948904 
1429.045 76440472 77887472 79291904 80670480 82056088 83490112 85016272 
1432.420 86667064 88459992 90401184 92497352 94768672 97253504 100004592 
1435.796 103068944 106461752 110139184 114009888 117968824 121926104 
1438.689 125814232 129567040 133106528 136309776 139011280 141039024 
1441.582 142220048 142422832 141581456 139692672 136820496 133081544 
1444.475 128648936 123726440 118520968 113248456 108101016 103246512 
1447.368 98837640 94985472 91747272 89111000 87003792 85316080 83937568 
1450.743 82797744 81877736 81208752 80843912 80830264 81177432 81854408 
1454.118 82790768 83897976 85094016 86303992 87481112 88613808 89733568 
1457.494 90898960 92170144 93604168 95236824 97088848 99169944 101473936 
1460.869 103974560 106615008 109316472 111961192 114390712 116434992 
1463.762 117923224 118741768 118881248 118453808 117657744 116698032 
1466.655 115751216 114928736 114281808 113827480 113556568 113440168 
1469.548 113420600 113406704 113270728 112848904 111990560 110607624 
1472.441 108727856 106497192 104127016 101817032 99693512 97820664 96226368 
1475.816 94930344 93963024 93356792 93125376 93252216 93686016 94357960 
1479.192 95193584 96136528 97159832 98264696 99476192 100829640 102362472 
1482.567 104106336 106092208 108358680 110954168 113933768 117342848 
1485.460 121193560 125434040 129919080 134421008 138611968 142094432 
1488.353 144467968 145350016 144470928 141755216 137359648 131658568 
1491.246 125130952 118263560 111422808 104817056 98544856 92614832 87009176 
1494.621 81739176 76857752 72467144 68694744 65645052 63364504 61828652 
1497.997 60969808 60699600 60936104 61615604 62682688 64083836 65764388 
1501.372 67658376 69693208 71797152 73880400 75838200 77541696 78802520 
1504.747 79379528 78995664 77406440 74540424 70602552 66042700 61343204 
1508.122 56837312 52654888 48784872 45171044 41772648 38579704 35619980 
1511.498 32936256 30558898 28499534 26743930 25261404 24016204 22974792 
1514.873 22108246 21387326 20783640 20272474 19836990 19474708 19194312 
1518.248 19007170 18916796 18913092 18971204 19062560 19165256 19279272 
1521.623 19427338 19644302 19954372 20358200 20836442 21361292 21912038 
1524.999 22480722 23077408 23722992 24440758 25242544 26125334 27074698 
1528.374 28074106 29113304 30191400 31316690 32502212 33760024 35099396 
1531.749 36524572 38033028 39615048 41252144 42918188 44582012 46216640 
1535.124 47800548 49319016 50756104 52093280 53312292 54388808 55300280 
1538.500 56027516 56556832 56877988 56983760 56878596 56580876 56125124 
1541.875 55552648 54894968 54163092 53343948 52413808 51355032 50177044 
1545.250 48921324 47650988 46423996 45266132 44166808 43085624 41976032 
1548.625 40808328 39590692 38368564 37210364 36172448 35276424 34506636 
1552.000 33824704 33192728 32590564 32024976 31522180 31110620 30799278 
1555.376 30569810 30376458 30159432 29847672 29366604 28653860 27682676 
1558.751 26500182 25229868 24021876 22978706 22127246 21439956 20866722 
1562.126 20355630 19861268 19350840 18808482 18240472 17672028 17138140 
1565.501 16670803 16282804 15965685 15693728 15437940 15174788 14895954 
1568.877 14610958 14341903 14112889 13938221 13819650 13749569 13718482 
1572.252 13718345 13743208 13786711 13837813 13881805 13903392 13893506 
1575.627 13858508 13821429 13814417 13860835 13966313 14119460 14302247 
1579.002 14498746 14700783 14909876 15133616 15381604 15659548 15967678 
1582.378 16300900 16651729 17011800 17373032 17725662 18055122 18342802 
1585.753 18569632 18719706 18788138 18783536 18730016 18661526 18615834 
1589.128 18630396 18733718 18945902 19278612 19733996 20302542 20958858 
1592.503 21661828 22351040 22954358 23404696 23644996 23645032 23406304 
1595.879 22961832 22367052 21684710 20979514 20303930 19697138 19189638 
1599.254 18801632 18546118 18428598 18447058 18593530 18856994 19227526 
1602.629 19697172 20259040 20903470 21613732 22362134 23113924 23825712 
1606.004 24451904 24951804 25289324 25439068 25389148 25139804 24703448 
1609.380 24101692 23366020 22534672 21651378 20764976 19917910 19141814 
1612.755 18453282 17851518 17323374 16848362 16406043 15979711 15561625 
1616.130 15156946 14782056 14459864 14210724 14046045 13965628 13959401 
1619.505 14010250 14098033 14204083 14312452 14416669 14520056 14636248 
1622.881 14781885 14969890 15203612 15476361 15776630 16094713 16426448 
1626.256 16772455 17134384 17511068 17895298 18275234 18639872 18983078 
1629.631 19306946 19619100 19928630 20240154 20551588 20853304 21131712 
1633.006 21373230 21565920 21702614 21781444 21806564 21787124 21736610 
1636.382 21670324 21600846 21535068 21473200 21409254 21332264 21228916 
1639.757 21089274 20909240 20694774 20458982 20219222 19989030 19772728 
1643.132 19564608 19350146 19111482 18832082 18503412 18129182 17727560 
1646.507 17327064 16959772 16653072 16421871 16269011 16187219 16162697 
1649.883 16175972 16200185 16202729 16141789 15976617 15688231 15307289 
1653.258 14917214 14607292 14423760 14354780 14358889 14391838 14422698 
1656.633 14435577 14425815 14396495 14353102 14300090 14237841 14163379 
1660.008 14071576 13958306 13821155 13660658 13480465 13286750 13088203 
1663.384 12894731 12716015 12559133 12426139 12313160 12210127 12103098 
1666.759 11975319 11812030 11604594 11353447 11069713 10771490 10479853 
1670.134 10210834 9973374 9768882 9593378 9439346 9295862 9150091 8987049 
1673.991 8794279 8567798 8317894 8069417 7850838 7684000 7573697 7509472 
1677.849 7472255 7443266 7411550 7375352 7342730 7324567 7328847 7354053 
1681.706 7387788 7409055 7396046 7334845 7231437 7113233 7020115 6981829 
1685.564 7004558 7076017 7176492 7290534 7407505 7522754 7634932 7743125 
1689.421 7846958 7946733 8045350 8147973 8260751 8388286 8529883 8678827 
1693.279 8821802 8943279 9029943 9077985 9098421 9116083 9159329 9242110 
1697.136 9359710 9489566 9602727 9667670 9660691 9574816 9430305 9270542 
1700.993 9138924 9059174 9026458 9019997 9013570 8985695 8921666 8814802 
1704.851 8667942 8492241 8304486 8120323 7950108 7797197 7658908 7529025 
1708.708 7400393 7267791 7129300 6986779 6844742 6708843 6583785 6471475 
1712.566 6370827 6279179 6193297 6110826 6030890 5953489 5876840 5797385 
1716.423 5710255 5612033 5505343 5400256 5312334 5254511 5233216 5245557 
1720.281 5282248 5330950 5380362 5423975 5459574 5490041 5519839 5553734 
1724.138 5593707 5639154 5687762 5737181 5786471 5834726 5881274 5923426 
1727.995 5957285 5979288 5987720 5984764 5975357 5964742 5954161 5937836 
1731.853 5901627 5825693 5692261 5495511 5253002 5002853 4790468 4644292 
1735.710 4567137 4541523 4542460 4547583 4539714 4510619 4460335 4395999 
1739.568 4328158 4266954 4219508 4187992 4171867 4169224 4177521 4194114 
1743.425 4215627 4239115 4261867 4282982 4302993 4323473 4345862 4369558 
1747.282 4392016 4408718 4414777 4406007 4380101 4337362 4280238 4213553 
1751.140 4143265 4076902 4020916 3979885 3955007 3943337 3937921 3928793 
1754.997 3906358 3863131 3797813 3716999 3632725 3558522 3502537 3465462 
1758.855 3440413 3416534 3382973 3332686 3265278 3186599 3106332 3034355 
1762.712 2977302 2936902 2911450 2897507 2891036 2888034 2884132 2874693 
1766.570 2855981 2826599 2789048 2749666 2716190 2693751 2682415 2676048 
1770.427 2665079 2639510 2594675 2534881 2473195 2425945 2404654 2411818 
1774.284 2441072 2481926 2524249 2562877 2597008 2629309 2662646 2697952 
1778.142 2732561 2762037 2782011 2791282 2792582 2791315 2792983 2800152 
1781.999 2811658 2822797 2829434 2828733 2821696 2811958 2804555 2802921 
1785.857 2807756 2817761 2831101 2846709 2865520 2888268 2914953 2942440 
1789.714 2964658 2973599 2962590 2929197 2877795 2818395 2762371 2718657 
1793.572 2690417 2674748 2666213 2659845 2652744 2644377 2635576 2626376 
1797.429 2615609 2601175 2580776 2553912 2522849 2491490 2464898 2446104 
1801.286 2435841 2432443 2433076 2435708 2439640 2445504 2454268 2466297 
1805.144 2481226 2497088 2512718 2527715 2542580 2558244 2575509 2593309 
1809.001 2609675 2622409 2630576 2634943 2638643 2645110 2657045 2674514 
1812.859 2695251 2716023 2734294 2749199 2762437 2777309 2797084 2823731 
1816.716 2856982 2895173 2935801 2976935 3017805 3058546 3099491 3140773 
1820.573 3181759 3221547 3259636 3295692 3329146 3359197 3384108 3402241 
1824.431 3412994 3417870 3421276 3428189 3443051 3466731 3496157 3524816 
1828.288 3545160 3552509 3547131 3535807 3528925 3536942 3565338 3612745 
1832.146 3672220 3735146 3794471 3846951 3893085 3937018 3983396 4035932 
1836.003 4096268 4164809 4241156 4326017 4421271 4528799 4649952 4784304 
1839.861 4929891 5084074 5244383 5409146 5577160 5747421 5918723 6088984 
1843.718 6257295 6423653 6589537 6757201 6926747 7095215 7256301 7401068 
1847.575 7520023 7606640 7657661 7674219 7660359 7620499 7557480 7471783 
1851.433 7362681 7230325 7077364 6910049 6736269 6563668 6396819 6236622 
1855.290 6081659 5929338 5778782 5631467 5490343 5357383 5232914 5114214 
1859.148 4997490 4880061 4761725 4645297 4535897 4437371 4351116 4275285 
1863.005 4205992 4140288 4077705 4020549 3972495 3936081 3910938 3892484 
1866.863 3874397 3851130 3821212 3787953 3758207 3739090 3733809 3741028 
1870.720 3755633 3771743 3785814 3796944 3806638 3815897 3824788 3829736 
1874.577 3826794 3811551 3782739 3742064 3693640 3641747 3588957 3535339 
1878.435 3479022 3418237 3353488 3286744 3221447 3160431 3103562 3048435 
1882.292 2991014 2928129 2860217 2791215 2727026 2673547 2633643 2606042 
1886.150 2586142 2568643 2549912 2528848 2507419 2488424 2474728 2467897 
1890.007 2468530 2476927 2494522 2522383 2561044 2608708 2660479 2709454 
1893.865 2749899 2778343 2795717 2807056 2817994 2832935 2851746 2870523 
1897.722 2884232 2890069 2888101 2883031 2881197 2887601 2903378 2926228 
1901.579 2950713 2971831 2987744 2999388 3009831 3021642 3035456 3049737 
1905.437 3062049 3070892 3077166 3084641 3096587 3115209 3138503 3161866 
1909.294 3180190 3189903 3191672 3188668 3186065 3187567 3192674 3199049 
1913.152 3203255 3203255 3199783 3195544 3192740 3191071 3186565 3173414 
1917.009 3146614 3106465 3058713 3014268 2982173 2967093 2965125 2967360 
1920.866 2961956 2941172 2904012 2856582 2809090 2771307 2748132 2738029 
1924.724 2735662 2735428 2734595 2734395 2738496 2748832 2764871 2782045 
1928.581 2794850 2799786 2797585 2792783 2791716 2798585 2812658 2829067 
1932.439 2841106 2844442 2839239 2831134 2826499 2830401 2842807 2858783 
1936.296 2871124 2875026 2870190 2861785 2856782 2860017 2870990 2884999 
1940.154 2893872 2891337 2876994 2855881 2837038 2828300 2832769 2847877 
1944.011 2868022 2888068 2906513 2926928 2954149 2991314 3036991 3085074 
1947.868 3127290 3157761 3175584 3185197 3194075 3208896 3232028 3261672 
1951.726 3292053 3318161 3338095 3352786 3364440 3373823 3379333 3376094 
1955.583 3359565 3328879 3287412 3243712 3207494 3184696 3176686 3178922 
1959.441 3184229 3186765 3184863 3179589 3173682 3167473 3158061 3141641 
1963.298 3115709 3083272 3053307 3036657 3043063 3074363 3123952 3178121 
1967.156 3223149 3251591 3264109 3268349 3273490 3284274 3297595 3306242 
1971.013 3302436 3283139 3254962 3229759 3220379 3234132 3269618 3318061 
1974.870 3370083 3420308 3471340 3532533 3612678 3713457 3825791 3932003 
1978.728 4014060 4058808 4064260 4037002 3988378 3929160 3864167 3794237 
1982.585 3718704 3638004 3557153 3484867 3427421 3388817 3366477 3353387 
1986.443 3341567 3328579 3316158 3311918 3323270 3353354 3398568 3451367 
1990.300 3501434 3542220 3573522 3599147 3624739 3653642 3684517 3712387 
1994.157 3733041 3744771 3750286 3755900 3767331 3786716 3810783 3831908 
1998.015 3843307 3841837 3829802 3813991 3800889 3793869 3790326 3782839 
2001.872 3763721 3728462 3679171 3624071 3571551 3530395 3503606 3489777 
2005.730 3484500 3485034 3490479 3501935 3520474 3544158 3567876 3586151 
2009.587 3595639 3598178 3600116 3610172 3634062 3672554 3718236 3761382 
2013.445 3794438 3814125 3824454 3832978 3847152 3869081 3896529 3923276 
2017.302 3943939 3959587 3975839 4001453 4042989 4101051 4168388 4234063 
2021.159 4287366 4323406 4343720 4356337 4367817 4383147 4400585 4415413 
2025.017 4422342 4420367 4412434 4405204 4404501 4411530 4423413 4434493 
2028.874 4438711 4435363 4427965 4422844 4425924 4440853 4466227 4498734 
2032.732 4536835 4581435 4636288 4705047 4787487 4877815 4966990 5045154 
2036.589 5106671 5153509 5192774 5232947 5281074 5338027 5397673 5452125 
2040.447 5493061 5516618 5524034 5519839 5508832 5494840 5478934 5461251 
2044.304 5444005 5430182 5425753 5434644 5459976 5499873 5549808 5603944 
2048.161 5657516 5707502 5751585 5786068 5806686 5808130 5787915 5748462 
2052.019 5698974 5652447 5623680 5622002 5648486 5693905 5743896 5782744 
2055.876 5801347 5798627 5782408 5763471 5751115 5749234 5755916 5766694 
2059.734 5776834 5785766 5796243 5812328 5836036 5865791 5895850 5919026 
2063.591 5931017 5931118 5923224 5913080 5905523 5901560 5898738 5893096 
2067.448 5881643 5864582 5845405 5827640 5813839 5802656 5790333 5772335 
2071.306 5746683 5714686 5681786 5654058 5635260 5625694 5622471 5620256 
2075.163 5615859 5609213 5602567 5599916 5603071 5610958 5619182 5623411 
2079.021 5620827 5612670 5602903 5597130 5598707 5608038 5621263 5632911 
2082.878 5639489 5639758 5635529 5631199 5629856 5632306 5637442 5642377 
2086.736 5644894 5644961 5643786 5643081 5643551 5642947 5637207 5623076 
2090.593 5599144 5567662 5534101 5506047 5489168 5486753 5498464 5521282 
2094.450 5552325 5588672 5628345 5669432 5709348 5744433 5771093 5787311 
2098.308 5794262 5796444 5799298 5808432 5825760 5849973 5877109 5903038 
2102.165 5925878 5947409 5971360 6002502 6042213 6089153 6139894 6190104 
2106.023 6237900 6284625 6333675 6388581 6450926 6518629 6586611 6650532 
2109.880 6707497 6758480 6806775 6856759 6910183 6965735 7018297 7062344 
2113.738 7093867 7112627 7122193 7128458 7137451 7152844 7176053 7207012 
2117.595 7244475 7288377 7339125 7396855 7460120 7526092 7590523 7649635 
2121.452 7702482 7749601 7794734 7841358 7891056 7942447 7992090 8035832 
2125.310 8071375 8099359 8122991 8147467 8176503 8211381 8250518 8291349 
2129.167 8330425 8365925 8398050 8427947 8457069 8486632 8517076 8548468 
2133.025 8582905 8621737 8667097 8719291 8776291 8833130 8885750 8929885 
2136.882 8965130 8993612 9020674 9049227 9081368 9114865 9146436 9172595 
2140.740 9192189 9205185 9213917 9218588 9217335 9206336 9181529 9140413 
2144.597 9086072 9025308 8966111 8915849 8876348 8844222 8812199 8772403 
2148.454 8720710 8657329 8586690 8512920 8438690 8363729 8284222 8196862 
2152.312 8100810 7997794 7891224 7784176 7676985 7566381 7450749 7331677 
2156.169 7219342 7131893 7092116 7118656 7219376 7384014 7587994 7800672 
2160.027 7992225 8143145 8245656 8300669 8314077 8293509 8248020 8186091 
2163.884 8117521 8052843 7999178 7959557 7931446 7905329 7870575 7818518 
2167.741 7745654 7655941 7558491 7463019 7377071 7304181 7241915 7186193 
2171.599 7132702 7079318 7026109 6975937 6931023 6893587 6865949 6848681 
2175.456 6841175 6841780 6844911 6842151 6824951 6785235 6721058 6638622 
2179.314 6550549 6473223 6420358 6397828 6400753 6417230 6431186 6431959 
2183.171 6417096 6393591 6372139 6363464 6371533 6392583 6417937 6438416 
2187.029 6447799 6447126 6441645 6437777 6439896 6448101 6458426 6466060 
2190.886 6468111 6464479 6458661 6454357 6453247 6455197 6457316 6456778 
2194.743 6451734 6444066 6435121 6427756 6422913 6419954 6417735 6416054 
2198.601 6416322 6421232 6433238 6452070 6473661 6492226 6500970 6495791 
2202.458 6476957 6448976 6418340 6390598 6368339 6350687 6335221 6319958 
2206.316 6304728 6292256 6286272 6288995 6300190 6316327 6332767 6345509 
2210.173 6353243 6356907 6359766 6365011 6373517 6384882 6397761 6411110 
2214.031 6425200 6441645 6461217 6482237 6501408 6514559 6518326 6513583 
2217.888 6504839 6499423 6504704 6523943 6554687 6590714 6622944 6643197 
2221.745 6648816 6641179 6625299 6606526 6588864 6572684 6556604 6538407 
2225.603 6517149 6494210 6472080 6453045 6439492 6431220 6428126 6429740 
2229.460 6436264 6447732 6463605 6481026 6495286 6501879 6497742 6482472 
2233.318 6461587 6442922 6434112 6441039 6464715 6501576 6545437 6589302 
2237.175 6628495 6660289 6684481 6700801 6709651 6710627 6704031 6691581 
2241.032 6677247 6665202 6659919 6663990 6677247 6697436 6721933 6748855 
2244.890 6778033 6810713 6847974 6889244 6932639 6973513 7008161 7034292 
2248.747 7052376 7064836 7075276 7086256 7098683 7111920 7125056 7137249 
2252.605 7149341 7162411 7177131 7192930 7207450 7217489 7220387 7215400 
2256.462 7203306 7186159 7165611 7141190 7110977 7072650 7025133 6971088 
2260.320 6916681 6869483 6836765 6822595 6826129 6842286 6864434 6886652 
2264.177 6905571 6921293 6935601 6950348 6966408 6982671 6996914 7007824 
2268.034 7015165 7020485 7026109 7033416 7042340 7051534 7058640 7062243 
2271.892 7062748 7061772 7061805 7064971 7071942 7082248 7094271 7106699 
2275.749 7118521 7129771 7140179 7149274 7156112 7159716 7159649 7157156 
2279.607 7155236 7157257 7166655 7185115 7211594 7243464 7276450 7307146 
2283.464 7333059 7353110 7367096 7375790 7379599 7379194 7375521 7370567 
2287.322 7365377 7361906 7360659 7361097 7361400 7360052 7355873 7349437 
2291.179 7342394 7337204 7335822 7339125 7346370 7356042 7366691 7378150 
2295.036 7390923 7406258 7424627 7445323 7466019 7483480 7494571 7498414 
2298.894 7494976 7486784 7476031 7465109 7454794 7444581 7433525 7420650 
2302.751 7406291 7390822 7375352 7360490 7346235 7331981 7317153 7301822 
2306.609 7286524 7272305 7260546 7251584 7245520 7241746 7239927 7240062 
2310.466 7242993 7249394 7259333 7272204 7286221 7298890 7308460 7313683 
2314.323 7314525 7311695 7306034 7297475 7285480 7269104 7248047 7223048 
2318.181 7196232 7170327 7148735 7133746 7126740 7127818 7136103 7149341 
2322.038 7164297 7176222 7179355 7167632 7136036 7082214 7008161 6919812 
2325.896 6825893 6735999 6658809 6598586 6555797 6527071 6507596 6492999 
2329.753 6480555 6470096 6462899 6460141 6462058 6467607 6475040 6482371 
2333.611 6488963 6495085 6501542 6508673 6516712 6524649 6531679 6537835 
2337.468 6544495 6553611 6567940 6588595 6615610 6647538 6681789 6715876 
2341.325 6748586 6779042 6807852 6835890 6864131 6893957 6927959 6969607 
2345.183 7023112 7092486 7179927 7284637 7402483 7526699 7649061 7761575 
2349.040 7857316 7931176 7980042 8003464 8002451 7980751 7943629 7897062 
2352.898 7846958 7798783 7755672 7719076 7689362 7665721 7647308 7634527 
2356.755 7627648 7627850 7636078 7652670 7677390 7709733 7749128 7795038 
2360.613 7847498 7905835 7968905 8035089 8102094 8168062 8232486 8295502 
2364.470 8357920 8421224 8485449 8550429 8614673 8677542 8738459 8798336 
2368.327 8858526 8919806 8982651 9045979 9107861 9166808 9222073 9274740 
2372.185 9327210 9382597 9443579 9511987 9588941 9674548 9769153 9873404 
2376.042 9987988 10113589 10249914 10395749 10548933 10707061 10867998 
2379.417 11030491 11194370 11359502 11526125 11693357 11859836 12023313 
2382.793 12181707 12332862 12474591 12605689 12724647 12830157 12921423 
2386.168 12998199 13061057 13111561 13151552 13182939 13207019 13224849 
2389.543 13236259 13241417 13240358 13233663 13221775 13205414 13184715 
2392.918 13159510 13129797 13095989 13059451 13022917 12988946 12960475 
2396.294 12939719 12927328 12923267 12927465 12939822 12960850 12991917 
2399.669 13033844 13087247 13151416 13225226 13306428 13393489 13485387 
2403.044 13581783 13683500 13790747 13904043 14023801 14149789 14282215 
2406.419 14421122 14566961 14719669 14879392 15045657 15218333 15397772 
2409.795 15584326 15778692 15981086 16190382 16404048 16618093 16827766 
2413.170 17028202 17215562 17386828 17540046 17674134 17788516 17882348 
2416.545 17955726 18009738 18046108 18067558 18077298 18078092 18072046 
2419.920 18060786 18045000 18025694 18004350 17982108 17960664 17941084 
2423.296 17923922 17909248 17897542 17889774 17888634 17897542 17920090 
2426.671 17959386 18017406 18093878 18188054 18298598 18424378 18565136 
2430.046 18721300 18892882 19079628 19280138 19492936 19716206 19948960 
2433.421 20190550 20441304 20701342 20970854 21249304 21536706 21832660 
2436.797 22137778 22452914 22779380 23118048 23469042 23832082 24206568 
2440.172 24592210 24989286 25397790 25817720 26248266 26687200 27132326 
2443.547 27581372 28033424 28488390 28948190 29414326 29888028 30368678 
2446.922 30854308 31341550 31827196 32308250 32782834 33250530 33711248 
2450.298 34164928 34612120 35052520 35485416 35910144 36324768 36726632 
2453.673 37112624 37478440 37819768 38133180 38416056 38666876 38885548 
2457.048 39071636 39224612 39343292 39425248 39467120 39465812 39418028 
2460.423 39320800 39172608 38972816 38722368 38424488 38084276 37708556 
2463.799 37305168 36883364 36451128 36016616 35587256 35169848 34771328 
2467.174 34398384 34057152 33753400 33491298 33273388 33099964 32970216 
2470.549 32882142 32833576 32822534 32847046 32905194 32994344 33110976 
2473.924 33250886 33409416 33582072 33763780 33950908 34138760 34323072 
2477.300 34499680 34664440 34813792 34945456 35057908 35150268 35222124 
2480.675 35273152 35302840 35310928 35297484 35263236 35209840 35139056 
2484.050 35052768 34953248 34841904 34720392 34590700 34455124 34316152 
2487.425 34176184 34036796 33898208 33759484 33618660 33473008 33320074 
2490.801 33157642 32984264 32799162 32602246 32393814 32174494 31945370 
2494.176 31706956 31459730 31203354 30936738 30657842 30364592 30055594 
2497.551 29730602 29391388 29040782 28682742 28321108 27958326 27596236 
2500.926 27235222 26875318 26516102 26158730 25804148 25454002 25109754 
2504.302 24772618 24443318 24122812 23811850 23512028 23225378 22953764 
2507.677 22698134 22459090 22235484 22025696 21827992 21640408 21461852 
2511.052 21291408 21128756 20973498 20825736 20685356 20552594 20427688 
2514.427 20310908 20201970 20100450 20006066 19918154 19837406 19765202 
2517.802 19703864 19655464 19621942 19603536 19599236 19607002 19624472 
2521.178 19649328 19680218 19716276 19756638 19800852 19847950 19896752 
2524.553 19947398 19999786 20054782 20113080 20174686 20237792 20300110 
2527.928 20357714 20407164 20446026 20473012 20488018 20491042 20482286 
2531.303 20460822 20426440 20379312 20320734 20253728 20182218 20110340 
2534.679 20040972 19975570 19914304 19856238 19801164 19748974 19701056 
2538.054 19658966 19624020 19596568 19575942 19561004 19550502 19543952 
2541.429 19540798 19541144 19544680 19549982 19555354 19559098 19559792 
2544.804 19557192 19552478 19546830 19541942 19538476 19536256 19534038 
2548.180 19530920 19525964 19518894 19509606 19498654 19486004 19471900 
2551.555 19456480 19440368 19424740 19411262 19401144 19395392 19393834 
2554.930 19395706 19399932 19405094 19410188 19414658 19417706 19417880 
2558.305 19413688 19403258 19384306 19356348 19319348 19274456 19223230 
2561.681 19167438 19107432 19043726 18976432 18905686 18832946 18760286 
2565.056 18689888 18624100 18564444 18511298 18464552 18423792 18388602 
2568.431 18359530 18336994 18321476 18313182 18312076 18317364 18328284 
2571.806 18344288 18365130 18390364 18419712 18452692 18488338 18526132 
2575.182 18565792 18607466 18651874 18699574 18751016 18805750 18863258 
2578.557 18922194 18981590 19041062 19099986 19158884 19218140 19278266 
2581.932 19339858 19403466 19469996 19539966 19614004 19692110 19773386 
2585.307 19856934 19941328 20025636 20110236 20195792 20283862 20375804 
2588.683 20472422 20573578 20678162 20784406 20890536 20995372 21097796 
2592.058 21197254 21293566 21386246 21474524 21558572 21637866 21712854 
2595.433 21784370 21853286 21920576 21987284 22054452 22123202 22194648 
2598.808 22269978 22349716 22434176 22522842 22614458 22708432 22804174 
2602.184 22902276 23004278 23112212 23227336 23350812 23482052 23619596 
2605.559 23761662 23906610 24053638 24202888 24355064 24510728 24670446 
2608.934 24833696 24999358 25165998 25332068 25496304 25658072 25816842 
2612.309 25971870 26122448 26267272 26404784 26533430 26651754 26759224 
2615.685 26855546 26941840 27019442 27090252 27156100 27218464 27278018 
2619.060 27334754 27387970 27436638 27479912 27517612 27550126 27578582 
2622.435 27604498 27629462 27654780 27681652 27710330 27741056 27773410 
2625.810 27807074 27841798 27877446 27913910 27951542 27990696 28031940 
2629.186 28076086 28123630 28174750 28229624 28287652 28348376 28410630 
2632.561 28473600 28536510 28598366 28658814 28717256 28773368 28827502 
2635.936 28880156 28932038 28984388 29037876 29093676 29151996 29213266 
2639.311 29277312 29344554 29414610 29487728 29563728 29642084 29721766 
2642.687 29802068 29881674 29960016 30037486 30114826 30193494 30274986 
2646.062 30360788 30451586 30547556 30648348 30753182 30861208 30971680 
2649.437 31083816 31197372 31311918 31427134 31543344 31660658 31779316 
2652.812 31900148 32023906 32151300 32283194 32420412 32563600 32713376 
2656.188 32870066 33033386 33202600 33376604 33553828 33732696 33912288 
2659.563 34091592 34270436 34449100 34627728 34806828 34986576 35166864 
2662.938 35347804 35528888 35710084 35891356 36072672 36254168 36435992 
2666.313 36618000 36800160 36982464 37164992 37347704 37531180 37716144 
2669.688 37903532 38094404 38289704 38489764 38694292 38902688 39113980 
2673.064 39326568 39540024 39753512 39966992 40180148 40392964 40604548 
2676.439 40814044 41020512 41223180 41422260 41618912 41814712 42011652 
2679.814 42211860 42416988 42628312 42847380 43074940 43312248 43560564 
2683.189 43820640 44092828 44377444 44673816 44981744 45301144 45631748 
2686.565 45973652 46326776 46690516 47063572 47444744 47832728 48226392 
2689.940 48625820 49031476 49443936 49864112 50292432 50728808 51173304 
2693.315 51625712 52086332 52555552 53033968 53521344 54017628 54521812 
2696.690 55033052 55550540 56073660 56602428 57136568 57675792 58219172 
2700.066 58765740 59314244 59863712 60413496 60963324 61512784 62060800 
2703.441 62605716 63145108 63676164 64196148 64702408 65192856 65665476 
2706.816 66118436 66549504 66956492 67337152 67690008 68013776 68308424 
2710.191 68574016 68811472 69021704 69205584 69364112 69498280 69608848 
2713.567 69695968 69759504 69798568 69811680 69797360 69754176 69681264 
2716.942 69578624 69446760 69286760 69100560 68890520 68659816 68412248 
2720.317 68152560 67885720 67616752 67350776 67091808 66844048 66611224 
2723.692 66396780 66204600 66037840 65898992 65789872 65710732 65661272 
2727.068 65640660 65647632 65681740 65742420 65829352 65942072 66079816 
2730.443 66240720 66423112 66625124 66844472 67079284 67327448 67586904 
2733.818 67854728 68128608 68405960 68684536 68963056 69240520 69515432 
2737.193 69787168 70053976 70314448 70567080 70811432 71047464 71276160 
2740.569 71498528 71715696 71928560 72137848 72344456 72550344 72758088 
2743.944 72970552 73190816 73420800 73661592 73912680 74172728 74440120 
2747.319 74713384 74990560 75269808 75548096 75821432 76085464 76335000 
2750.694 76565984 76775808 76963520 77129616 77275664 77403832 77515864 
2754.070 77613152 77696992 77768328 77827696 77875144 77909920 77930328 
2757.445 77933904 77917760 77878680 77813824 77720928 77597624 77442080 
2760.820 77253064 77029864 76773008 76484136 76166120 75822808 75457728 
2764.195 75074648 74676824 74267064 73848896 73426176 73003832 72587696 
2767.571 72183112 71794696 71426032 71079304 70755824 70457056 70184192 
2770.946 69938904 69723048 69537360 69381840 69255048 69154136 69075584 
2774.321 69015416 68969744 68934744 68906400 68880384 68851688 68815120 
2777.696 68764960 68695832 68603040 68482920 68332696 68151288 67938992 
2781.072 67697672 67430800 67143088 66839836 66526368 66207720 65888160 
2784.447 65570868 65258272 64951988 64652996 64361192 64075544 63793920 
2787.822 63513592 63231296 62943980 62649504 62346540 62035268 61716652 
2791.197 61391896 61063004 60732256 60401920 60075216 59755796 59447244 
2794.573 59153268 58877244 58621152 58386780 58174772 57985396 57818664 
2797.948 57674432 57552152 57450668 57368828 57304928 57257332 57224748 
2801.323 57206492 57201692 57209780 57229320 57258204 57293928 57333968 
2804.698 57375752 57418028 57460232 57502636 57545644 57589600 57634244 
2808.073 57678328 57720296 57757988 57788760 57809804 57817792 57809880 
2811.449 57782972 57735168 57665652 57574580 57463336 57334004 57188956 
2814.824 57030156 56859972 56681100 56496600 56311012 56130328 55960872 
2818.199 55810208 55685480 55592904 55537848 55524144 55554076 55628340 
2821.574 55746540 55906640 56105176 56338360 56601068 56888072 57193604 
2824.950 57511676 57835544 58158068 58471652 58768772 59042788 59288188 
2828.325 59500932 59678616 59820436 59926888 59999124 60039224 60050332 
2831.700 60036180 60001216 59950392 59888508 59819788 59747960 59675916 
2835.075 59606544 59542316 59486040 59440596 59408532 59392536 59395232 
2838.451 59419772 59470232 59552500 59673180 59840780 60064408 60352840 
2841.826 60714956 61159952 61697136 62338392 63098744 63994640 65045120 
2845.201 66267736 67673896 69264848 71026120 72924624 74902288 76881800 
2848.576 78769704 80458200 81845528 82842256 83380616 83427984 82985984 
2851.952 82090560 80802000 79200880 77378368 75420640 73412800 71428576 
2855.327 69524912 67746744 66122448 64665332 63376388 62246452 61259712 
2858.702 60395788 59633724 58953860 58337624 57769344 57235824 56725424 
2862.077 56229124 55739984 55253464 54767304 54282208 53800764 53327128 
2865.453 52867328 52428908 52019880 51649076 51325124 51055112 50844340 
2868.828 50695220 50606532 50573620 50588808 50642532 50722996 50818416 
2872.203 50917392 51009648 51087832 51147096 51186200 51207188 51214160 
2875.578 51212704 51208084 51204580 51204916 51210620 51222324 51240408 
2878.954 51265948 51299652 51343060 51396876 51461364 51536128 51620452 
2882.329 51713420 51813716 51921212 52035380 52156116 52283464 52417660 
2885.704 52558992 52707748 52864672 53029812 53203180 53384072 53571604 
2889.079 53765064 53964128 54169664 54383140 54607208 54844624 55098532 
2892.455 55371788 55667100 55986844 56333908 56710696 57120128 57564064 
2895.830 58043260 58556236 59098328 59661700 60233988 60800476 61344116 
2899.205 61847180 62295020 62677176 62989220 63234136 63421480 63565792 
2902.580 63683608 63793236 63910992 64051120 64226604 64447968 64724216 
2905.956 65063820 65473652 65959424 66527024 67181416 67928288 68774624 
2909.331 69727408 70793688 71979008 73284752 74707288 76235624 77852592 
2912.706 79532456 81241952 82943312 84591408 86139112 87542192 88759704 
2916.081 89761680 90532376 91070600 91389784 91512408 91467576 91281920 
2919.457 90975728 90560424 90036776 89396504 88626280 87712992 86647928 
2922.832 85431544 84075032 82601696 81044648 79440784 77830160 76249440 
2926.207 74727824 73287888 71943656 70700920 69559880 68516248 67563288 
2929.582 66692576 65895752 65165564 64495788 63882472 63323484 62818944 
2932.958 62369988 61978432 61646036 61373276 61159116 61000348 60891652 
2936.333 60825172 60790756 60777304 60772464 60764268 60743348 60702688 
2939.708 60638984 60553152 60448832 60332280 60210236 60089564 59975612 
2943.083 59871128 59776552 59689188 59603052 59509444 59398576 59260656 
2946.458 59088648 58880012 58638296 58373440 58099504 57833956 57594144 
2949.834 57393636 57242212 57143408 57095716 57092884 57125760 57184152 
2953.209 57256652 57332456 57402032 57456564 57489284 57495412 57472036 
2956.584 57418028 57334384 57223424 57088348 56933556 56763940 56584124 
2959.959 56398796 56212116 56027252 55847060 55673460 55508064 55352252 
2963.335 55207296 55074160 54953924 54847408 54755084 54677436 54614876 
2966.710 54567572 54535112 54516740 54510732 54514336 54524744 54539132 
2970.085 54555136 54572304 54590600 54611492 54636440 54666768 54703184 
2973.460 54745728 54793688 54845940 54901512 54958436 55013980 55064080 
2976.836 55102636 55122008 55114184 55070248 54983444 54848760 54664628 
2980.211 54432528 54157424 53847572 53512644 53164532 52815272 52474896 
2983.586 52151860 51850792 51572988 51315872 51074528 50843112 50615840 
2986.961 50388724 50159864 49928672 49695340 49458568 49214356 48956000 
2990.337 48673188 48354036 47987608 47566544 47088684 46558820 45988608 
2993.712 45394564 44793992 44203784 43636688 43098724 42590592 42107948 
2997.087 41643856 41190680 40742164 40294796 39847528 39401192 38957740 
3000.462 38519340 38087500 37663452 37247764 36840880 36443128 36055212 
3003.838 35677460 35310100 34953432 34606988 34270652 33944532 33628864 
3007.213 33324260 33031564 32751284 32483682 32228020 31983104 31746842 
3010.588 31517300 31292438 31070576 30851246 30634268 30420240 30209978 
3013.963 30004180 29803488 29608206 29418368 29234496 29057362 28887594 
3017.339 28726176 28573524 28428778 28290660 28156862 28025154 27893558 
3020.714 27761084 27628224 27496008 27365982 27239490 27117336 26999696 
3024.089 26886846 26779662 26679906 26590704 26515574 26457992 26420244 
3027.464 26402566 26402460 26414608 26431898 26445772 26447286 26429116 
3030.840 26385244 26312436 26210216 26080858 25928394 25757526 25573614 
3034.215 25381420 25184676 24986794 24790720 24598802 24413524 24236662 
3037.590 24069434 23912318 23764742 23625334 23492300 23364378 23240096 
3040.965 23118956 23000786 22885756 22773900 22665214 22559834 22457520 
3044.341 22358506 22262758 22170308 22081296 21995544 21912770 21833392 
3047.716 21757616 21685824 21618710 21556832 21499590 21446536 21396514 
3051.091 21347996 21299622 21250278 21199062 21145520 21089344 21030146 
3054.466 20968420 20904930 20840648 20777072 20715868 20657800 20603318 
3057.842 20552388 20504448 20459330 20417686 20380252 20348478 20323374 
3061.217 20305042 20292786 20285528 20282056 20281988 20285876 20294730 
3064.592 20310074 20332298 20361014 20394314 20429530 20463914 20494896 
3067.967 20521156 20541654 20555790 20562844 20561628 20551204 20530952 
3071.343 20501080 20463358 20420048 20374626 20330040 20288618 20251750 
3074.718 20219812 20192284 20168162 20146434 20125610 20104752 20082612 
3078.093 20058598 20032296 20004052 19974390 19944032 19913784 19884230 
3081.468 19855754 19828666 19802968 19778450 19755008 19732088 19708856 
3084.844 19684760 19659522 19633486 19608424 19586482 19570188 19561664 
3088.219 19561386 19568318 19580032 19593344 19605650 19615286 19622116 
3091.594 19627280 19632584 19639206 19648150 19659658 19673180 19688366 
3094.969 19705388 19724562 19746548 19771930 19800504 19831718 19864772 
3098.344 19898764 19932966 19967244 20001554 20036044 20070744 20105376 
3101.720 20139736 20173888 20207698 20242168 20278134 20316462 20358130 
3105.095 20403066 20450854 20500454 20550372 20598976 20644736 20686746 
3108.470 20724730 20759102 20790976 20821564 20852574 20885112 20920088 
3111.845 20957782 20998432 21041832 21088056 21137000 21188206 21240988 
3115.221 21294194 21346360 21396166 21442392 21484620 21522952 21557666 
3118.596 21589494 21618398 21644830 21668654 21690178 21710520 21730966 
3121.971 21753124 21778450 21807088 21838550 21871338 21903570 21933820 
3125.346 21961664 21987492 22012694 22038872 22067630 22099634 22134952 
3128.722 22172994 22212888 22253410 22293766 22333284 22372040 22409998 
3132.097 22447888 22486584 22527170 22570550 22617042 22666680 22718628 
3135.472 22771664 22824884 22877164 22928300 22978252 23027374 23076010 
3138.847 23124512 23172880 23221080 23268724 23316024 23362946 23409626 
3142.223 23456592 23503912 23551972 23601404 23652728 23706404 23762958 
3145.598 23822178 23883890 23947468 24012002 24077208 24143056 24209650 
3148.973 24277412 24346478 24416748 24487694 24558654 24628750 24697626 
3152.348 24765042 24831274 24896572 24961526 25026384 25091534 25157464 
3155.724 25224214 25292554 25362276 25433518 25505580 25577972 25649918 
3159.099 25721278 25792192 25863400 25935990 26010706 26088706 26169956 
3162.474 26254776 26342570 26432884 26525014 26617900 26710490 26801724 
3165.849 26890830 26977270 27061404 27143578 27224780 27305220 27385252 
3169.225 27464168 27541336 27615620 27686738 27754726 27819932 27882922 
3172.600 27943944 28003278 28060674 28115464 28167396 28216646 28263182 
3175.975 28307244 28349120 28389088 28427328 28464864 28502968 28542950 
3179.350 28586652 28634394 28686248 28740832 28796096 28850270 28902042 
3182.726 28951306 28999124 29047194 29097112 29150580 29208128 29269866 
3186.101 29335550 29404328 29475386 29547662 29619948 29691042 29760018 
3189.476 29826838 29892004 29956822 30023106 30091920 30163908 30238608 
3192.851 30314846 30391384 30467580 30542898 30618160 30694254 30771464 
3196.227 30850214 30930156 31010610 31091256 31172024 31252808 31333710 
3199.602 31414670 31494570 31572706 31648430 31721748 31793650 31865634 
3202.977 31939272 32015666 32095000 32176420 32258820 32341090 32422624 
3206.352 32502856 32581996 32659504 32735098 32808024 32878104 32946016 
3209.728 33012722 33080046 33149314 33221594 33296246 33372238 33448170 
3213.103 33522938 33596784 33670788 33746520 33825172 33906876 33990644 
3216.478 34074748 34157256 34236948 34313464 34387624 34460688 34533652 
3219.853 34607348 34681884 34757436 34833720 34911412 34990456 35071232 
3223.229 35153604 35236896 35320124 35402516 35483548 35563232 35641888 
3226.604 35719836 35797404 35874268 35950100 36024428 36097156 36168452 
3229.979 36238464 36308092 36377656 36447272 36516896 36586676 36656288 
3233.354 36725908 36795472 36864392 36931920 36997404 37060332 37120888 
3236.729 37179936 37238560 37298164 37359660 37423216 37488408 37554556 
3240.105 37620996 37687592 37754340 37821216 37887772 37953396 38016644 
3243.480 38076648 38133112 38186400 38238392 38291260 38346488 38405268 
3246.855 38467460 38532232 38598856 38666620 38736092 38807860 38882580 
3250.230 38960748 39041544 39123948 39206224 39286956 39365708 39442516 
3253.606 39518320 39593996 39669860 39746068 39821744 39896452 39969356 
3256.981 40040348 40109824 40178292 40246552 40314940 40383476 40452064 
3260.356 40520152 40587192 40652936 40717380 40780704 40843564 40906800 
3263.731 40971240 41037372 41105988 41177128 41250796 41326552 41404544 
3267.107 41484484 41566332 41650312 41736172 41823612 41912164 42000848 
3270.482 42088784 42175640 42261124 42345568 42429408 42513664 42598960 
3273.857 42686360 42776440 42869800 42967088 43068464 43174068 43284132 
3277.232 43398176 43516064 43637348 43761524 43888048 44016332 44145644 
3280.608 44275252 44404896 44534616 44664708 44796120 44929596 45065760 
3283.983 45205200 45347924 45493824 45643228 45796480 45954312 46117808 
3287.358 46287148 46462676 46643664 46829192 47017896 47208680 47400916 
3290.733 47594236 47788748 47984720 48182816 48383776 48588616 48798736 
3294.109 49015640 49239812 49471492 49709904 49953244 50199364 50446664 
3297.484 50694136 50942020 51191344 51443536 51700464 51963484 52233504 
3300.859 52511240 52797352 53092112 53395504 53707428 54026936 54353100 
3304.234 54684920 55021504 55362604 55708716 56060048 56416980 56779532 
3307.610 57147264 57519808 57897324 58280288 58669812 59066668 59471448 
3310.985 59883828 60302508 60726504 61155184 61588644 62028000 62474768 
3314.360 62929964 63393952 63865884 64344676 64828716 65317384 65810344 
3317.735 66307688 66809692 67315376 67823856 68333936 68844896 69356568 
3321.111 69869984 70386168 70905752 71428928 71953816 72478688 73001600 
3324.486 73521024 74036984 74549272 75058184 75562960 76062088 76553960 
3327.861 77036904 77510200 77973744 78427824 78872680 79306976 79728608 
3331.236 80135152 80524040 80893808 81244064 81574736 81885744 82175824 
3334.612 82442864 82684216 82897872 83083064 83241200 83374552 83485576 
3337.987 83575936 83645864 83693592 83716456 83712032 83678128 83613008 
3341.362 83516176 83386760 83224384 83028664 82799352 82537136 82242928 
3344.737 81917744 81562112 81175912 80758104 80307528 79823728 79307296 
3348.113 78760680 78186920 77589944 76972696 76337608 75685376 75017024 
3351.488 74333152 73634696 72923368 72201384 71470992 70734528 69994296 
3354.863 69252800 68512712 67777528 67050316 66334552 65632096 64944328 
3358.238 64271248 63612172 62966116 62332464 61710808 61101064 60503636 
3361.614 59918440 59345732 58785392 58237132 57701068 57177084 56664980 
3364.989 56164752 55676476 55200184 54736292 54285548 53848476 53426044 
3368.364 53018316 52624628 52243892 51874536 51514564 51162752 50818192 
3371.739 50480344 50148708 49822528 49500564 49181104 48862584 48543484 
3375.115 48223576 47903208 47583328 47264980 46949116 46635324 46323456 
3378.490 46012552 45701756 45390816 45080060 44769820 44460760 44152648 
3381.865 43844536 43534996 43222564 42905748 42583864 42257876 41928916 
3385.240 41599332 41271092 40945684 40623868 40305268 39989372 39675524 
3388.615 39363244 39052600 38744100 38438280 38135028 37834264 37535444 
3391.991 37237872 36941732 36647420 36355936 36068172 35784844 35505588 
3395.366 35229456 34955080 34681272 34408244 34136720 33869052 33607204 
3398.741 33353206 33107366 32868742 32634928 32402738 32169710 31933814 
3402.116 31694800 31453494 31211364 30970578 30733088 30499854 30271716 
3405.492 30048208 29828614 29611648 29395996 29180486 28964518 28748018 
3408.867 28531310 28315874 28102350 27891296 27683312 27478358 27276322 
3412.242 27077698 26883108 26693822 26510714 26334438 26164570 25999906 
3415.617 25838818 25679058 25519670 25360414 25201670 25044284 24889236 
3418.993 24736488 24585654 24435674 24285434 24134510 23983288 23832678 
3422.368 23684080 23539416 23399624 23265472 23137336 23014656 22896828 
3425.743 22782770 22671288 22560916 22450156 22337784 22223000 22105734 
3429.118 21986412 21866076 21746122 21627488 21511254 21397836 21287546 
3432.494 21179856 21074490 20970610 20867348 20764178 20660474 20556730 
3435.869 20453458 20351186 20251194 20153862 20059050 19966270 19874656 
3439.244 19783270 19691522 19599860 19508532 19418434 19330294 19243630 
3442.619 19158470 19073534 18987508 18899146 18807306 18711474 18611408 
3445.995 18507874 18402428 18297250 18194896 18097472 18006320 17921470 
3449.370 17840782 17762316 17682760 17600116 17513380 17423042 17330582 
3452.745 17237522 17144722 17052290 16959118 16864036 16766600 16667360 
3456.120 16567660 16469739 16375178 16284937 16198430 16114106 16029626 
3459.496 15943686 15855081 15764261 15672224 15580583 15490645 15403369 
3462.871 15318993 15237310 15157838 15079582 15001924 14924175 14845893 
3466.246 14766664 14686971 14607052 14527011 14447019 14366527 14284818 
3469.621 14200967 14114326 14025033 13933979 13842328 13751416 13662094 
3472.997 13574842 13489181 13404424 13320641 13237796 13157153 13079257 
3476.372 13004788 12933473 12864012 12794836 12723999 12650274 12573218 
3479.747 12493551 12412057 12330238 12249524 12171279 12096353 12025800 
3483.122 11960231 11899542 11842777 11788130 11733081 11675010 11612149 
3486.498 11544124 11471688 11397053 11322974 11251424 11183967 11120428 
3489.873 11060094 11002113 10945567 10890489 10837356 10786673 10738544 
3493.248 10692798 10648516 10604749 10560883 10516241 10471638 10428024 
3496.623 10386349 10347120 10310441 10275765 10241433 10206288 10168433 
3499.999 10127122 10081575 10032676 9981275 9929743 9880793 9837205 9801787 
3503.856 9776642 9762273 9757665 9761121 9769356 9778844 9786435 9790028 
3507.713 9788265 9782369 9773795 9764984 9757902 9753870 9752819 9753802 
3511.571 9755767 9757088 9758038 9759224 9761731 9767017 9775490 9786164 
3515.428 9797620 9807820 9815107 9818937 9820123 9819987 9820293 9821648 
3519.286 9823411 9823647 9820258 9810701 9794027 9770406 9741162 9708125 
3523.143 9673261 9637180 9599307 9557948 9511106 9456481 9393059 9320878 
3527.000 9241941 9158686 9074466 8992427 8914395 8840840 8770814 8702523 
3530.858 8633296 8561242 8485449 8405650 8322487 8236843 8149222 8059865 
3534.715 7968635 7875670 7781545 7687271 7594400 7504651 7419605 7339731 
3538.573 7265331 7195828 7130479 7068137 7007386 6946678 6884598 6819835 
3542.430 6751782 6680881 6608545 6536994 6467843 6402603 6340735 6280490 
3546.288 6219883 6156966 6091202 6023398 5955874 5890342 5828312 5769817 
3550.145 5713377 5656878 5598775 5538163 5475042 5410824 5346715 5283589 
3554.002 5222015 5162059 5103620 5047534 4994407 4945072 4899731 4857778 
3557.860 4817639 4777503 4735797 4691951 4646569 4600958 4556791 4515373 
3561.717 4477107 4441322 4407279 4373808 4339403 4302758 4261968 4214255 
3565.575 4157148 4089010 4009914 3922808 3833179 3747077 3669981 3605261 
3569.432 3552476 3509685 3472676 3437908 3402174 3363739 3321667 3276562 
3573.290 3229258 3180791 3132897 3087043 3044598 3006461 2972798 2942373 
3577.147 2912985 2881897 2847110 2807323 2763271 2716823 2671180 2629009 
3581.004 2592709 2563077 2540180 2522783 2509652 2498955 2488457 2475528 
3584.862 2456500 2427511 2385264 2328230 2257614 2177885 2096372 2021267 
3588.719 1958888 1912693 1882841 1866136 1858483 1855088 1852160 1846537 
3592.577 1836321 1820217 1797991 1770343 1738472 1704841 1672775 1644636 
3596.434 1623018 1608950 1600902 1595814 1589628 1578321 1558602 1529905 
3600.292 1494594 1457325 1423482 1398650 1385819 1385221 1394728 1409952 
3604.149 1426474 1439804 1445988 1442963 1429133 1404002 1368037 1323399 
3608.006 1273118 1221479 1173535 1132671 1100150 1074739 1052750 1030065 
3611.864 1003861 973408 941828 914201 895907 890661 898397 915164 933560 
3616.203 945149 942127 919448 875587 813871 741841 668994 604653 556212 
3620.543 526520 514777 516966 528378 543904 560592 577446 595030 615370 
3624.883 639825 667633 695144 715754 720135 698928 647457 568222 473776 
3629.222 382900 314622 279078 276094 296849 329609 363367 389864 405849 
3633.562 412084 412316 410857 410625 412416 413975 412018 403528 387078 
3637.901 363732 336540 308919 284349 264954 251096 242244 237569 236807 
3642.241 240487 249703 265418 287433 314124 342409 367280 383530 386448 
3646.581 372022 339226 289257 226298 155890 85328 21637 -28560 -59570 -68681 
3651.402 -55065 -22265 24453 77772 129175 170541 195402 199678 183336 151448 
3656.224 113134 79330 59015 57060 73331 103291 140013 176441 206242 225635 
3661.046 233492 231735 224375 216153 211744 214330 225303 245261 273242 
3665.385 308653 350401 397359 447639 499584 552098 607473 674403 768063 
3669.725 910449 1124699 1425875 1819019 2297151 2847777 3454574 4099145 
3673.583 4758509 5392171 5939347 6326110 6479714 6362186 5985940 5404449 
3677.440 4687932 3903082 3109435 2353947 1676534 1108753 665343 345294 
3681.297 130402 -5168 -89088 -142618 -178224 -200348 -209985 -208429 -199851 
3685.637 -190743 -189452 -202600 -233267 -279627 -335650 -393189 -444960 
3689.494 -486797 -517212 -536903 -546533 -546764 -538260 -522673 -502584 
3693.352 -481667 -463430 -450190 -442180 -438340 -436487 -434037 -429436 
3697.209 -422319 -413349 -404676 -398353 -396797 -402392 -416460 -439366 
3701.067 -470083 -505397 -540278 -570160 -590676 -599941 -598121 -586837 
3704.924 -568770 -546003 -520257 -492225 -462172 -430462 -398618 -368757 
3708.781 -343795 -327009 -320817 -326413 -343729 -370843 -403517 -436520 
3712.639 -464026 -480707 -482958 -471076 -447178 -415798 -382695 -353263 
3716.496 -331379 -318533 -313566 -314030 -316579 -319692 -322738 -327439 
3720.354 -335783 -348397 -364520 -381966 -397327 -408449 -415070 -419108 
3724.211 -423842 -432382 -446351 -464754 -484050 -499407 -505529 -499274 
3728.069 -479880 -449992 -413415 -375908 -342735 -318334 -305123 -302905 
3731.926 -309295 -320453 -333068 -346675 -363394 -386502 -418645 -459028 
3735.783 -501988 -538988 -560729 -562384 -544084 -510990 -469619 -426292 
3739.641 -384913 -346476 -310984 -280256 -258368 -254063 -278336 -339656 
3743.498 -437877 -557586 -670248 -742925 -756552 -712559 -629355 -530946 
3747.356 -439631 -372233 -337736 -336478 -361275 -401763 -446913 -489279 
3751.213 -525486 -553383 -570524 -573006 -557784 -524460 -476802 -421988 
3755.071 -368658 -323598 -291779 -274197 -269428 -274197 -285687 -302772 
3758.928 -324691 -349787 -374816 -393818 -401034 -392626 -369817 -338034 
3762.785 -305620 -281746 -271547 -276283 -291216 -308600 -319990 -320089 
3766.643 -309229 -292011 -275223 -264825 -264229 -273269 -288468 -304362 
3770.500 -315917 -320089 -315917 -304660 -288468 -270124 -252043 -235850 
3774.358 -222603 -212403 -204355 -197102 -190578 -185312 -183291 -187166 
3778.215 -199023 -218695 -243367 -267375 -284495 -290223 -283468 -266647 
3782.073 -245056 -224690 -209985 -203064 -203196 -207932 -213960 -218530 
3785.930 -220384 -219258 -215582 -209224 -200315 -189485 -177893 -167923 
3789.787 -162028 -162227 -168553 -179284 -190677 -198957 -201772 -199156 
3793.645 -194188 -191240 -194254 -204554 -220119 -235452 -243566 -239393 
3797.502 -221742 -194088 -164048 -141094 -134834 -151462 -191472 -247805 
3801.360 -307044 -351641 -367996 -351840 -307838 -248136 -187531 -140896 
3805.217 -119266 -128110 -164446 -216973 -269594 -306216 -317904 -304328 
3809.074 -272077 -230021 -186040 -144738 -106844 -70967 -35717 -1093 29390 
3813.414 49637 53083 34295 -6361 -62121 -119166 -161597 -177992 -165108 
3817.754 -128806 -80508 -35352 -6726 -4771 -33298 -87796 -154310 -214224 
3822.093 -252043 -259660 -238797 -198195 -149607 -104061 -69211 -48671 
3825.951 -40852 -41018 -42674 -40786 -33762 -23027 -12425 -5997 -6328 -13882 
3830.772 -26407 -39560 -49300 -51619 -44562 -27997 -3611 25513 55503 81782 
3835.594 99347 104716 95933 73895 42943 10172 -17328 -34590 -39759 -34988 
3840.416 -24651 -13783 -7090 -7024 -14644 -29190 -48306 -68747 -87266 
3844.756 -100517 -106015 -103067 -91274 -72126 -47312 -18289 14015 49637 
3849.095 89040 131528 174187 211015 231801 225237 180518 93746 -26970 
3853.435 -159312 -274561 -349986 -376570 -359885 -313368 -251745 -185809 
3857.292 -122943 -66528 -17494 24089 58220 84533 102661 112140 113532 107566 
3862.114 94740 75552 49803 18389 -15672 -46749 -67256 -70304 -52911 -17560 
3866.936 27402 69520 96298 98154 72238 24685 -29554 -72690 -92467 -85941 
3871.758 -59902 -26672 795 13585 9343 -7256 -26870 -39460 -38003 -21006 7620 
3877.062 40326 68758 86223 88112 74160 47980 17031 -10669 -26605 -26042 
3881.883 -8283 23028 60540 95900 120193 127452 115918 90365 61004 39530 
3886.705 36283 54210 90133 134975 177535 207402 216485 202164 167723 121486 
3891.527 74160 35786 12723 6295 14579 33698 59943 90233 122314 154432 184628 
3896.831 210783 230508 242144 245261 241382 232994 223745 215723 209722 
3901.170 204219 196065 181943 160066 130733 97590 65643 40657 27203 27137 
3905.992 39365 61136 88410 117210 144190 167558 186087 199579 208860 214960 
3910.814 219369 223646 229082 236873 246918 258356 269164 277122 279807 
3915.154 275696 264888 249040 230641 213336 199512 191126 188639 191921 
3919.493 200639 214198 232464 254212 277652 299767 316810 325365 323110 
3923.833 310179 289058 264390 241647 225469 217844 219038 226629 237934 
3928.172 250001 260876 269894 276691 281332 283885 284051 281830 277785 
3932.512 273508 270656 271054 275696 283952 294363 304542 312135 315849 
3936.852 315119 310676 304376 297910 292440 288892 287002 285444 283123 
3941.191 278912 272380 263926 255041 247813 243868 244929 250764 260113 
3945.531 270292 278547 282261 280603 273906 264390 255041 248178 245559 
3949.870 247150 252123 259417 267971 277652 288660 300861 313627 325034 
3954.210 332992 335379 330869 320557 306432 291743 279409 271717 268999 
3958.550 270259 273939 277851 280835 282228 282062 281200 280835 281896 
3962.889 285344 292440 303348 318137 335877 355076 373548 389134 400742 
3967.229 407839 411222 412515 413444 414936 417590 420641 423626 425583 
3971.568 425782 424322 421404 417623 413875 411056 410061 412084 417988 
3975.908 428103 442001 458552 475733 491722 505123 515009 522042 526852 
3980.248 530468 533586 536307 538297 538861 537634 534217 529373 523535 
3984.587 517331 511592 506716 502669 499418 496897 494508 491921 489201 
3988.927 485751 482202 479449 478387 479714 483495 488504 493347 496100 
3993.266 495139 490096 481837 471886 462200 454041 447705 442631 438020 
3997.606 432813 427341 421769 417291 414373 413146 412913 
##END=
