
##TITLE=Z240_1_c
##JCAMP-DX=5.01  $$ Nicolet v. 1
##DATATYPE=INFRARED SPECTRUM
##ORIGIN=UniL
##OWNER=Nicolet
##LONGDATE=2011/09/09
##TIME=11:17:09
##SPECTROMETER/DATA SYSTEM=Nicolet iS5
##DATA PROCESSING=
Ratio against background
%Transmittance->Absorbance
Truncated
ElementMultiply or ElementDivide
##COMMENTS=
Number of sample scans: 32
Collection length: 51.20 sec
Sample gain: 2.0
Background collected on: Ven Sep 09 11:02:15 2011 (GMT+02:00);
Number of background scans: 32
Background gain: 2.0
Sample spacing:  1.000
Number of scan points: 12415
Resolution points: 8192
Number of FFT points: 65536
Apodization: N-B fort;
Phase correction: Mertz;
Laser frequency: 15798.0 cm-1
Number of rejected sample scans: 0
Number of rejected background scans: 0
Bench serial number: ASB1000141;
##RESOLUTION=4.000
##XUNITS=1/CM
##YUNITS=ABSORBANCE
##FIRSTX=649.893372
##LASTX=4000.122314
##FIRSTY=0.077831
##MAXX=4000.122314
##MINX=649.893372
##MAXY=0.285056
##MINY=-0.002271
##XFACTOR=1.000000
##YFACTOR=1.000000E-009
##NPOINTS=6950
##DELTAX=0.482117
##ZPD=6100
##XYDATA=(X++(Y..Y))
649.893 77830832 77592712 77425688 77364824 77421328 77578888 77800744 
653.268 78049560 78304712 78570616 78871088 79235744 79685616 80222744 
656.643 80835928 81512416 82249896 83061728 83970896 84994272 86134992 
660.018 87378312 88703008 90096056 91564568 93131488 94824104 96650944 
663.393 98589840 100584504 102565840 104471032 106247448 107860968 109280344 
666.767 110462280 111349624 111886160 112044904 111840976 111315200 
669.660 110499664 109404920 108019680 106334592 104362192 102153776 99797280 
673.035 97393296 95039984 92804128 90714280 88774016 86975704 85313016 
676.410 83785448 82394320 81134376 79990840 78941416 77961888 77033264 
679.785 76146776 75301928 74501872 73747184 73033512 72350960 71689744 
683.159 71043560 70411696 69799896 69216264 68667456 68155936 67679944 
686.534 67234752 66814484 66413848 66027156 65648788 65271212 64885496 
689.909 64482296 64053388 63593908 63103116 62584096 62042220 61483808 
693.284 60915056 60340844 59766632 59197084 58637800 58094808 57574508 
696.659 57083320 56628324 56216532 55854108 55546360 55295760 55101508 
700.034 54959720 54863872 54805564 54774820 54762076 54758584 54757828 
703.408 54757492 54760048 54772864 54805416 54866804 54962424 55090900 
706.783 55244772 55413156 55586124 55758972 55935548 56128744 56361032 
710.158 56663056 57069868 57622404 58358128 59305432 60471188 61829224 
713.533 63311180 64802288 66165628 67256728 67954296 68195320 67981880 
716.908 67386376 66529036 65569788 64680912 64018832 63730760 63933900 
720.282 64699368 66043632 67901600 70120800 72444864 74559616 76143976 
723.657 76912496 76706744 75521712 73517888 70967232 68199544 65531252 
727.032 63181972 61273032 59824388 58786604 58076548 57608100 57316120 
730.407 57150592 57075384 57061480 57080184 57107544 57128972 57141712 
733.782 57154748 57181848 57235336 57319564 57429528 57555212 57687636 
737.156 57822564 57961728 58109200 58267256 58432912 58598552 58755720 
740.531 58899744 59033264 59166400 59312004 59479768 59672952 59886152 
743.906 60108244 60325848 60527404 60705584 60855704 60975372 61062812 
747.281 61118152 61144656 61151180 61151792 61161520 61193064 61252732 
750.656 61338128 61441360 61553328 61668644 61787772 61916796 62062288 
754.031 62228636 62414512 62615172 62824032 63037024 63254336 63479192 
757.405 63714564 63961124 64215348 64472572 64729712 64988972 65257384 
760.780 65544316 65856880 66196188 66556612 66930124 67313016 67711808 
764.155 68147792 68654960 69280352 70078384 71102216 72402384 74011912 
767.530 75931168 78107944 80426384 82714560 84751792 86335520 87336448 
770.905 87751072 87725848 87532872 87508144 87918832 88886624 90310904 
774.279 91889312 93158552 93622296 92925384 90924776 87756096 83761976 
777.654 79421376 75202832 71449936 68369968 66004248 64276628 63042580 
781.029 62150904 61480984 60948452 60512740 60158556 59883376 59689224 
784.404 59579676 59561356 59643608 59839372 60161864 60622028 61229424 
787.779 61993376 62925288 64041564 65362640 66908552 68698936 70749424 
791.154 73074240 75692080 78629944 81923312 85614640 89737448 94302960 
794.528 99280704 104591968 110102592 115620688 120930928 125797976 129997256 
797.903 133365136 135817232 137385920 138215952 138565104 138755120 
800.796 139089632 139822848 141073376 142789200 144726080 146482992 
803.689 147588080 147555440 146045840 142942832 138394832 132777528 
806.581 126603304 120414888 114616680 109431728 104870800 100776768 96895808 
809.956 92972128 88843488 84462640 79905728 75319936 70884256 66751264 
813.331 63014036 59713136 56840068 54360084 52227972 50401860 48847232 
816.706 47532456 46430412 45515604 44764640 44159948 43690292 43349592 
820.081 43135388 43045192 43075088 43220700 43478520 43848792 44336892 
823.455 44953336 45711472 46623116 47696544 48931260 50315872 51822788 
826.830 53407644 55010600 56554152 57958552 59154596 60096068 60779096 
830.205 61248000 61599984 61963452 62491720 63342580 64640844 66468292 
833.580 68830456 71643984 74714448 77741336 80370480 82203128 82892456 
836.955 82225072 80154360 76830904 72553712 67732568 62777364 58032844 
840.329 53761092 50099136 47084992 44683764 42819992 41404068 40346860 
843.704 39575408 39026284 38646372 38394916 38239948 38160244 38145084 
847.079 38188676 38286956 38433212 38617656 38829388 39060940 39310716 
850.454 39584192 39890496 40239104 40635104 41079184 41568776 42102472 
853.829 42683252 43319716 44023260 44805600 45675108 46636028 47691112 
857.204 48845156 50108544 51499452 53043776 54770236 56713188 58909572 
860.578 61397928 64219884 67408824 70976096 74888784 79051032 83293424 
863.953 87358168 90945288 93740776 95456784 95906224 95022048 92879632 
867.328 89673936 85699432 81302632 76804120 72493800 68588840 65216884 
870.703 62440952 60263300 58647092 57529828 56837692 56496108 56425360 
874.078 56549136 56795168 57092580 57384636 57631712 57816468 57946508 
877.452 58051288 58175264 58362184 58647092 59043776 59539848 60095764 
880.827 60650872 61139892 61499272 61684840 61681592 61505492 61200240 
884.202 60823420 60439352 60100788 59842416 59681732 59621220 59657744 
887.577 59790356 60024536 60372560 60849456 61465064 62219572 63099936 
890.952 64083336 65139616 66237444 67350928 68458208 69542064 70589032 
894.327 71585696 72518584 73374704 74139824 74798520 75334600 75728840 
897.701 75962184 76020200 75896240 75597272 75144328 74572720 73923760 
901.076 73240704 72565024 71928680 71357768 70873224 70490760 70224968 
904.451 70089248 70094896 70251808 70568600 71052144 71710072 72550376 
907.826 73580880 74809224 76240208 77875976 79715584 81757008 83998232 
911.201 86438040 89075488 91907816 94928200 98126912 101492848 105019264 
914.575 108710328 112584784 116678264 121034680 125702992 130723328 
917.468 136115040 141864112 147908560 154132688 160340224 166263248 
920.361 171583200 175932368 178980736 180499488 180420224 178886080 
923.254 176253120 173078880 169995184 167664000 166689120 167484704 
926.146 170260544 174957184 181262928 188597776 196175328 203157136 
929.039 208668960 211982976 212634800 210423504 205435552 197970768 
931.932 188491200 177527824 165625280 153343008 141178560 129559904 
934.824 118850616 109295680 101048440 94180088 88687160 84525352 81627920 
938.199 79923168 79332232 79757872 81074872 83094264 85557216 88162560 
941.574 90556664 92402240 93436912 93490040 92528096 90644552 88044496 
944.949 84988232 81743528 78560576 75619192 73031048 70845720 69060432 
948.324 67641104 66539496 65708184 65103852 64689720 64436444 64316236 
951.698 64303636 64377376 64519272 64717136 64964228 65256968 65592288 
955.073 65966136 66371688 66800924 67247016 67705808 68176632 68661560 
958.448 69162840 69680960 70214104 70758592 71311224 71871320 72441304 
961.823 73025672 73629080 74253704 74898624 75560672 76235864 76921904 
965.198 77619016 78329400 79054976 79796768 80552920 81321336 82099840 
968.573 82889136 83692632 84515456 85361488 86231816 87123840 88032640 
971.947 88953392 89883640 90823968 91777672 92748416 93738272 94747240 
975.322 95774672 96820768 97888528 98983304 100111096 101276592 102480504 
978.697 103720656 104993232 106296416 107632552 109008120 110432024 
981.590 111911416 113450152 115046704 116696344 118392696 120129176 
984.482 121897936 123686000 125473368 127228496 128910976 130480112 
987.375 131897512 133137272 134189696 135059952 135766128 136333760 
990.268 136797120 137194704 137568176 137963696 138423264 138980880 
993.160 139658880 140463936 141390368 142425376 143556272 144774864 
996.053 146079360 147471728 148953520 150522720 152172928 153895424 
998.946 155682880 157531328 159439184 161403520 163415680 165457376 
1001.839 167502832 169525168 171500144 173415072 175268816 177070752 
1004.731 178835568 180580400 182324112 184087344 185895392 187779040 
1007.624 189767648 191886416 194148432 196552272 199082448 201715664 
1010.517 204428176 207197328 210002560 212822528 215627696 218381440 
1013.409 221045584 223585392 225980672 228228992 230342032 232335136 
1016.302 234216496 235979200 237601632 239053712 240306832 241345360 
1019.195 242170304 242801152 243271040 243628656 243937712 244270976 
1022.087 244717072 245368144 246304112 247589088 249254592 251300240 
1024.980 253696800 256397904 259351584 262499632 265781872 269127200 
1027.873 272440512 275610880 278511776 281010336 282993216 284365792 
1030.766 285056032 285015040 284207904 282616256 280245504 277132576 
1033.659 273351968 269003424 264208976 259088464 253740608 248248224 
1036.552 242671984 237059040 231456192 225910288 220469248 215184448 
1039.446 210104112 205275120 200745792 196556704 192735568 189281312 
1042.339 186149872 183239232 180386944 177401744 174073296 170220576 
1045.232 165738096 160604208 154895008 148757520 142395664 136025520 
1048.125 129839376 124004920 118636160 113795184 109502720 105742216 
1051.018 102473160 99640120 97185856 95056144 93202648 91588128 90181280 
1054.393 88954128 87880456 86930520 86071248 85270392 84495608 83719352 
1057.768 82922328 82091280 81221256 80314424 79381200 78439968 77516496 
1061.144 76644992 75862744 75205984 74709024 74396816 74285856 74383248 
1064.519 74687216 75186640 75859272 76672272 77577344 78511616 79407688 
1067.894 80194528 80810976 81217896 81398064 81359256 81127664 80742184 
1071.269 80244624 79671960 79056240 78420320 77779304 77143784 76521240 
1074.645 75918544 75345088 74812016 74333152 73923680 73595872 73357200 
1078.020 73207368 73138864 73136824 73182936 73259848 73351168 73443640 
1081.395 73526288 73587600 73616792 73606048 73553752 73469776 73377920 
1084.770 73318800 73343672 73509808 73878152 74500928 75419888 76662144 
1088.146 78234248 80118496 82267280 84606992 87033144 89419504 91643656 
1091.521 93590112 95174736 96357360 97138408 97555864 97668944 97551008 
1094.896 97272616 96893864 96469176 96043800 95658560 95356080 95175184 
1098.271 95148088 95290256 95590384 95999576 96424544 96742184 96801640 
1101.646 96448240 95561528 94065800 91953840 89285680 86183360 82807928 
1105.022 79325272 75902440 72676760 69745688 67174608 64991856 63198760 
1108.397 61777996 60700860 59933316 59436948 59174720 59108464 59198032 
1111.772 59403780 59682304 59986532 60271060 60490956 60607744 60596388 
1115.147 60445180 60157980 59750584 59248424 58680736 58075184 57458420 
1118.523 56852344 56273932 55737272 55252188 54825456 54460808 54159524 
1121.898 53920572 53740240 53611716 53523100 53454932 53382052 53272660 
1125.273 53093312 52817744 52430444 51933424 51345860 50702964 50048420 
1128.648 49423484 48864844 48395852 48025464 47749984 47556304 47425272 
1132.024 47333812 47259068 47180384 47080596 46950372 46788888 46604672 
1135.399 46413044 46234332 46089364 45993984 45958108 45983672 46064860 
1138.774 46189112 46338388 46491808 46625144 46714644 46739700 46683728 
1142.149 46537428 46298688 45972324 45567600 45096640 44573496 44011968 
1145.525 43426296 42831144 42240124 41665556 41116808 40598396 40110552 
1148.900 39649384 39210000 38787572 38380256 37988980 37617380 37269640 
1152.275 36949456 36659856 36402880 36180192 35994516 35848460 35744228 
1155.650 35682496 35661636 35678144 35727676 35806328 35912268 36045168 
1159.026 36205908 36395132 36612268 36856064 37124496 37415920 37729368 
1162.401 38063696 38416272 38781884 39151364 39512732 39853084 40159320 
1165.776 40421220 40631180 40784528 40878728 40913604 40891144 40816008 
1169.151 40695872 40541644 40365260 40179344 39995692 39823668 39671964 
1172.527 39549244 39463888 39426120 39446652 39534688 39698648 39944436 
1175.902 40276436 40699220 41218480 41841708 42578788 43439444 44433192 
1179.277 45568704 46853988 48297856 49911576 51707632 53700192 55903360 
1182.652 58328072 60982464 63870648 66990936 70332640 73869664 77558920 
1186.028 81327528 85074352 88680856 92005152 94905608 97257480 98952968 
1189.403 99922208 100135800 99606992 98389392 96570312 94266232 91600520 
1192.778 88699024 85682640 82649304 79680120 76835136 74149416 71640552 
1196.153 69310000 67147840 65137996 63262344 61505532 59855420 58304848 
1199.529 56850344 55491236 54227208 53057364 51978944 50988184 50080768 
1202.904 49253764 48506208 47839756 47257516 46762096 46353356 46027284 
1206.279 45776304 45589864 45456480 45366868 45313316 45290036 45292316 
1209.654 45314860 45351864 45398580 45452436 45514832 45591960 45694356 
1213.030 45835068 46027508 46284312 46615736 47029636 47531940 48125472 
1216.405 48810488 49583756 50439144 51368380 52362932 53416372 54525456 
1219.780 55689848 56911684 58193788 59539240 60951812 62437084 64003780 
1223.155 65663048 67428712 69312880 71322736 73458392 75710656 78061184 
1226.531 80481368 82935408 85378992 87758368 90017896 92099024 93946448 
1229.906 95518296 96785568 97737952 98383704 98751984 98893464 98876240 
1233.281 98793912 98757352 98882736 99296080 100113600 101431416 103329528 
1236.656 105861176 109055904 112923072 117453296 122617744 128362272 
1239.549 134610912 141257952 148166016 155187536 162157392 168905088 
1242.442 175272288 181100048 186237456 190555008 193939536 196309888 
1245.335 197623008 197870592 197077024 195290512 192584016 189048112 
1248.229 184788096 179924784 174573040 168830544 162767440 156415024 
1251.122 149774784 142832560 135581920 128042672 120275616 112377912 
1254.015 104483968 96748840 89317792 82328584 75887128 70054912 64856684 
1257.390 60277460 56274084 52782384 49730116 47046768 44662540 42518816 
1260.765 40568272 38772468 37105804 35551760 34099836 32743674 31477540 
1264.140 30295128 29189842 28155800 27189256 26288744 25454528 24686718 
1267.516 23983532 23340918 22753230 22215432 21725080 21283196 20893700 
1270.891 20561870 20292542 20088234 19950834 19881870 19884230 19962940 
1274.266 20122938 20367298 20694216 21095708 21556448 22053826 22561790 
1277.641 23048826 23480758 23825572 24053570 24144738 24092550 23906610 
1281.017 23610848 23237612 22822124 22393112 21967556 21551190 21141242 
1284.392 20732514 20323060 19917322 19525756 19162488 18839382 18565310 
1287.767 18344460 18177412 18064276 18005212 18000586 18049802 18149324 
1291.142 18293552 18474958 18686776 18924582 19185550 19467120 19764682 
1294.518 20069564 20369866 20654360 20914768 21150496 21368810 21584446 
1297.893 21814472 22076658 22387320 22759374 23204092 23729256 24336734 
1301.268 25017820 25748664 26491272 27191724 27789448 28230402 28469780 
1304.643 28483544 28269262 27845084 27243902 26507578 25685456 24825766 
1308.019 23973518 23170188 22445550 21818026 21294018 20868946 20531682 
1311.394 20269594 20073138 19936160 19856030 19830226 19854540 19922214 
1314.769 20025564 20158616 20318270 20504762 20718474 20957642 21215868 
1318.144 21482530 21746294 21998960 22237960 22467358 22694504 22926796 
1321.520 23167184 23413892 23660952 23902304 24133984 24356712 24575274 
1324.895 24797982 25035720 25300352 25606474 25969936 26405172 26922450 
1328.270 27521282 28188328 28894852 29603524 30276760 30882552 31404696 
1331.645 31842812 32210570 32528498 32818210 33098534 33381686 33676764 
1335.021 33990504 34328380 34695556 35095660 35530688 36001716 36510916 
1338.396 37063288 37667428 38333096 39067320 39871936 40740816 41662200 
1341.771 42620672 43600968 44588844 45568740 46524040 47435176 48280152 
1345.146 49040792 49704592 50267992 50734580 51109080 51390836 51567320 
1348.521 51611088 51483076 51144192 50561004 49719380 48629340 47326936 
1351.897 45869424 44325076 42771980 41283480 39923184 38745040 37783732 
1355.272 37054628 36552040 36252152 36117928 36106624 36181596 36313820 
1358.647 36485180 36686968 36915360 37169868 37453084 37774080 38150836 
1362.022 38608384 39176964 39880248 40725640 41699620 42768360 43884860 
1365.398 44991556 46030636 46944832 47674988 48170004 48387520 48301336 
1368.773 47907868 47226260 46296104 45165532 43888708 42518416 41100196 
1372.148 39681116 38311128 37042616 35934224 35039048 34391464 34000496 
1375.523 33847808 33898352 34112880 34464592 34946280 35571608 36371496 
1378.899 37388728 38676584 40290908 42290964 44728832 47628432 50959308 
1382.274 54604808 58366620 61951188 65012404 67223000 68283528 67994208 
1385.649 66292748 63290364 59280672 54683788 49992540 45623980 41847036 
1389.024 38776848 36391384 34593388 33255610 32260996 31511494 30929906 
1392.400 30463778 30075550 29742168 29454288 29212452 29023246 28893224 
1395.775 28824742 28814224 28854306 28936076 29052118 29198028 29371250 
1399.150 29571246 29798130 30052256 30333536 30641414 30974350 31330008 
1402.525 31706240 32100602 32512818 32944906 33400472 33882664 34392248 
1405.901 34926208 35479520 36047360 36629000 37228344 37853608 38514128 
1409.276 39216272 39962236 40749512 41573952 42431048 43316496 44222272 
1412.651 45130312 46011004 46823544 47522848 48076648 48474828 48737828 
1416.026 48911424 49061524 49262820 49580744 50067492 50747836 51612316 
1419.402 52618308 53700832 54791844 55830328 56774660 57606892 58333192 
1422.777 58989308 59637640 60361788 61239796 62322328 63618920 65098308 
1426.152 66707024 68387416 70098952 71816816 73529152 75230176 76912928 
1429.527 78569584 80197560 81808528 83432288 85108208 86879928 88779664 
1432.903 90824912 93021920 95379224 97921368 100694920 103763664 107185584 
1436.278 110983168 115111088 119467880 123934608 128408672 132813336 
1439.171 137074976 141107120 144773152 147887088 150253840 151675072 
1442.064 151997984 151143552 149104544 145951184 141814896 136892752 
1444.957 131416928 125623960 119760360 114044616 108665936 103793448 
1447.850 99546984 95984032 93083864 90759448 88884752 87335480 86033400 
1451.225 84958896 84149192 83665672 83563240 83854928 84507240 85442720 
1454.601 86563312 87778120 89005816 90198368 91348240 92495752 93708216 
1457.976 95051448 96585048 98344560 100350040 102610192 105117552 107843808 
1461.351 110728400 113688488 116600376 119298208 121602616 123330696 
1464.244 124356056 124659048 124346568 123618520 122686304 121735080 
1467.137 120884880 120193368 119682392 119345520 119154056 119048312 
1470.030 118932440 118672656 118100448 117065008 115486880 113411128 
1472.923 111004048 108494048 106088824 103914152 102028616 100453912 
1475.816 99205048 98310440 97801488 97690728 97958728 98549632 99388872 
1479.192 100395792 101509472 102701392 103974304 105358208 106894928 
1482.085 108629336 110599888 112843232 115404800 118340528 121715392 
1484.978 125584928 129969720 134818896 139975488 145186864 150081440 
1487.871 154203440 157089344 158293792 157500848 154619280 149824944 
1490.764 143543456 136318896 128702376 121107016 113766768 106791400 
1493.657 100189752 93941392 88058656 82600568 77682096 73447288 70014968 
1497.032 67439744 65696888 64711600 64385520 64626536 65362752 66532472 
1500.407 68077216 69937192 72040368 74306112 76653216 78979016 81163008 
1503.783 83058032 84451296 85074184 84622776 82835232 79646208 75296408 
1507.158 70289392 65154432 60249328 55706232 51505684 47581440 43886836 
1510.533 40410964 37184376 34254552 31654812 29397450 27466144 25826616 
1513.908 24439040 23266942 22280056 21449042 20746522 20149246 19641146 
1517.284 19219696 18892328 18667612 18545528 18512092 18538822 18594738 
1520.659 18657892 18731122 18841770 19028806 19318412 19709412 20179026 
1524.034 20695400 21235038 21788726 22366806 22991738 23688104 24468486 
1527.409 25329082 26254284 27226756 28235988 29282096 30374292 31526278 
1530.785 32750066 34054356 35442668 36913412 38459532 40066468 41712096 
1534.160 43366908 45001696 46590576 48114920 49555896 50895076 52116888 
1537.535 53202056 54134604 54900756 55490108 55890736 56089416 56081648 
1540.910 55878264 55508744 55012628 54421520 53747628 52980508 52099332 
1544.286 51089400 49962428 48759884 47542920 46366184 45251828 44186872 
1547.661 43130448 42037752 40882552 39677192 38470100 37331060 36315620 
1551.036 35443208 34696096 34034864 33421870 32837972 32291296 31808194 
1554.411 31415738 31120906 30902440 30712676 30491072 30167034 29669578 
1557.787 28941884 27966066 26797990 25565180 24414470 23439840 22659838 
1561.162 22040404 21528106 21070006 20620342 20146678 19634422 19091124 
1564.537 18543212 18026628 17573272 17195050 16882602 16609589 16347619 
1567.912 16074942 15786974 15496688 15229588 15011081 14853916 14756964 
1571.288 14708633 14696396 14709867 14741881 14785382 14829470 14860465 
1574.663 14865471 14839516 14794295 14756723 14760563 14826967 14956720 
1578.038 15133410 15335194 15544455 15752854 15962934 16183779 16426414 
1581.413 16697831 16999258 17326376 17672890 18031842 18395964 18755652 
1584.789 19095070 19393106 19627350 19778830 19840632 19821592 19747864 
1588.164 19656020 19587070 19580656 19666454 19864944 20188014 20638446 
1591.539 21208038 21872766 22592050 23304486 23934480 24410334 24668972 
1594.914 24674900 24426668 23956398 23321758 22589256 21828410 21096474 
1598.290 20436442 19881838 19455198 19170730 19034898 19046566 19197740 
1601.665 19477756 19876842 20386988 21000204 21705330 22482292 23299244 
1605.040 24116682 24886464 25558152 26088036 26437532 26580418 26504832 
1608.415 26212540 25718220 25046146 24231198 23314870 22344656 21372602 
1611.791 20443352 19589876 18828242 18156440 17559644 17015866 16504500 
1615.166 16010305 15528348 15067371 14646598 14290023 14016477 13834530 
1618.541 13740608 13721970 13759623 13832238 13920260 14007717 14088484 
1621.916 14167315 14259856 14385125 14557539 14780926 15047681 15344633 
1625.292 15660098 15989129 16331827 16690256 17063490 17444460 17820862 
1628.667 18180832 18517002 18830836 19129834 19423044 19715064 20004088 
1632.042 20279834 20527654 20732896 20882748 20970402 20995476 20965604 
1635.417 20894152 20799074 20697762 20602346 20518168 20442866 20368618 
1638.792 20283064 20172084 20024906 19836608 19612168 19363760 19107950 
1642.168 18857756 18616976 18379786 18131600 17855006 17535080 17166060 
1645.543 16755441 16326152 15910344 15541020 15242972 15026242 14888067 
1648.918 14816202 14794123 14801083 14810545 14791210 14704451 14515122 
1652.293 14211512 13831314 13460574 13184374 13041184 13012538 13053852 
1655.669 13120303 13181539 13222356 13238103 13231067 13205688 13165145 
1659.044 13109204 13035311 12939992 12821591 12681114 12522742 12352361 
1662.419 12176970 12003931 11839679 11690293 11559539 11447772 11350863 
1665.794 11259790 11161902 11041877 10886175 10686616 10443943 10168942 
1669.170 9879641 9596935 9336960 9108403 8912196 8743767 8594869 8454231 
1673.027 8309181 8145610 7953010 7729464 7487188 7251652 7050221 6902070 
1676.885 6809333 6759456 6731894 6707464 6674824 6632936 6590109 6557849 
1680.742 6544831 6549440 6559766 6555158 6514895 6427218 6301165 6167015 
1684.599 6065396 6024776 6048328 6120504 6219850 6329438 6438820 6543721 
1688.457 6643837 6739836 6833063 6925198 7020014 7122833 7238781 7370803 
1692.314 7516518 7667913 7811332 7932223 8019597 8072691 8105030 8141930 
1696.172 8208546 8314889 8451764 8594564 8714321 8782309 8779064 8703368 
1700.029 8579559 8451190 8358088 8317861 8320630 8343564 8360216 8349880 
1703.886 8299893 8205237 8070362 7907691 7733984 7564493 7408280 7267521 
1707.744 7138697 7015839 6892846 6766388 6636367 6506083 6379805 6262270 
1711.601 6155555 6058912 5968807 5881240 5793086 5703641 5614348 5527524 
1715.459 5443670 5360402 5273528 5179696 5081627 4988441 4914810 4872421 
1719.316 4866021 4891521 4938637 4994876 5049345 5095875 5133257 5164775 
1723.174 5195657 5230667 5272086 5319378 5370566 5423874 5478599 5534236 
1727.031 5589444 5640933 5683666 5712437 5724725 5721502 5706965 5686050 
1730.888 5659664 5622102 5560212 5455581 5293785 5073347 4816332 4563085 
1734.746 4357710 4224293 4160493 4145105 4151294 4156780 4145640 4112056 
1738.603 4058105 3992859 3927957 3873093 3834382 3812855 3807139 3815028 
1742.461 3834148 3862195 3895827 3931936 3967044 3998912 4026936 4051952 
1746.318 4074762 4095298 4112357 4123328 4125469 4116605 4095398 4061952 
1750.176 4017371 3964235 3906425 3849759 3800086 3762384 3738555 3726390 
1754.033 3719138 3707074 3680708 3632758 3562832 3478053 3391521 3316993 
1757.890 3262106 3226487 3201853 3176619 3139405 3083773 3010131 2925794 
1761.748 2841873 2768673 2712789 2675514 2654378 2644810 2642410 2642543 
1765.605 2640377 2631109 2610842 2578476 2536780 2492689 2454368 2427078 
1769.463 2410485 2398024 2380000 2346652 2294252 2228904 2165264 2120245 
1773.320 2104663 2119180 2155307 2201029 2245257 2283294 2315738 2346718 
1777.177 2380899 2420148 2461932 2501287 2532681 2553645 2565210 2571876 
1781.035 2578443 2587176 2597242 2604575 2605908 2599542 2587609 2574809 
1784.892 2566710 2566777 2574976 2589042 2606042 2623942 2642577 2662512 
1788.750 2683582 2702586 2713989 2710355 2686049 2639743 2577409 2510519 
1792.607 2451302 2409219 2386696 2379933 2382299 2387329 2391394 2392793 
1796.465 2391294 2386930 2378234 2363409 2340988 2311041 2276366 2241027 
1800.322 2210254 2187275 2173322 2167328 2167295 2171990 2180715 2193769 
1804.179 2210887 2230669 2250786 2268239 2280929 2288457 2292354 2294719 
1808.037 2297250 2300282 2303113 2304279 2303879 2303280 2306178 2316137 
1811.894 2335092 2362009 2393127 2423913 2450436 2470996 2487224 2502221 
1815.752 2519783 2542580 2571276 2605075 2642577 2682415 2724058 2767306 
1819.609 2811825 2856715 2900443 2941539 2979170 3013234 3043797 3070292 
1823.467 3091748 3106966 3115643 3119647 3123218 3131361 3147548 3171645 
1827.324 3199316 3222915 3234599 3229959 3211065 3187099 3170711 3174115 
1831.181 3202987 3255229 3322902 3396430 3468534 3536007 3600249 3665303 
1835.039 3735179 3812086 3895359 3982927 4073256 4166648 4265615 4373942 
1838.896 4494583 4628786 4775125 4930695 5092020 5256591 5422063 5587329 
1842.754 5751383 5913584 6074435 6235950 6400922 6572044 6749158 6928330 
1846.611 7101681 7259098 7389710 7485907 7544196 7565943 7555592 7519046 
1850.469 7460154 7380239 7278775 7155034 7010148 6848378 6675497 6497405 
1854.326 6318378 6139928 5961753 5783718 5606864 5434208 5269771 5116292 
1858.183 4974062 4840422 4711814 4585253 4460737 4340809 4229378 4129082 
1862.041 4040213 3959822 3884059 3810816 3740694 3677633 3625809 3588222 
1865.898 3563133 3544859 3525050 3497292 3459650 3416434 3375660 3346308 
1869.756 3333453 3336425 3350416 3369215 3387948 3404812 3419673 3432497 
1873.613 3442550 3446257 3440647 3422812 3393258 3354322 3310416 3264243 
1877.470 3216473 3164903 3106399 3039226 2964825 2887501 2813125 2746132 
1881.328 2687716 2634976 2583276 2528349 2469729 2409952 2354381 2307743 
1885.185 2272036 2245490 2223609 2201795 2178051 2152943 2129701 2111888 
1889.043 2101699 2099003 2102732 2111488 2125473 2145917 2174055 2208922 
1892.900 2247156 2283294 2312340 2332027 2343820 2352548 2363375 2379367 
1896.758 2399457 2419148 2433509 2440306 2441072 2441506 2447470 2462831 
1900.615 2486658 2514218 2538880 2555611 2564277 2568643 2574143 2584776 
1904.472 2600942 2619609 2635910 2646677 2652645 2657745 2667180 2684183 
1908.330 2707421 2731060 2748632 2754134 2746999 2730527 2711055 2693851 
1912.187 2680815 2670914 2661279 2649678 2636643 2624475 2615442 2609708 
1916.045 2603409 2590709 2566110 2528715 2483259 2439040 2404388 2383398 
1919.902 2372604 2363342 2345219 2311740 2263309 2207257 2154841 2115550 
1923.760 2093709 2086384 2086584 2086883 2083388 2076796 2070703 2068273 
1927.617 2070304 2074232 2077095 2077328 2076895 2080891 2094241 2118314 
1931.474 2149447 2179084 2197766 2200296 2186909 2164565 2141921 2126538 
1935.332 2120312 2120112 2119912 2115417 2106294 2096639 2091711 2094375 
1939.189 2102132 2108825 2106560 2090712 2062680 2029988 2002725 1987913 
1943.047 1987180 1995702 2006354 2014509 2020301 2029389 2048431 2081457 
1946.904 2125806 2173689 2215782 2245823 2264142 2277065 2292987 2317736 
1950.761 2350749 2385197 2411551 2423613 2420381 2408219 2395659 2389229 
1954.619 2389728 2391561 2386097 2366340 2330995 2285326 2238696 2198631 
1958.476 2169193 2147649 2127970 2103864 2072800 2036447 1998232 1960053 
1962.334 1921412 1880445 1835722 1791037 1754940 1738106 1748419 1785547 
1966.191 1840214 1895321 1935557 1952065 1947039 1932029 1919449 1918018 
1970.049 1926205 1935857 1935524 1918251 1886768 1851095 1825441 1819718 
1973.906 1836953 1872758 1920747 1976263 2041873 2124307 2228904 2353947 
1977.763 2486691 2606508 2694484 2737295 2734595 2695751 2635410 2566977 
1981.621 2497855 2429044 2358445 2284027 2208256 2136760 2075830 2029855 
1985.478 1998598 1978759 1965878 1958556 1958189 1968441 1991608 2024795 
1989.336 2060183 2088015 2100967 2097871 2085418 2075164 2078627 2101233 
1993.193 2140689 2188141 2234699 2273568 2303879 2328962 2352581 2376402 
1997.051 2396758 2407686 2405654 2390261 2368106 2348451 2338790 2340255 
2000.908 2347218 2347584 2330162 2289123 2227805 2156539 2087916 2032685 
2004.765 1994637 1971503 1956891 1945941 1937887 1934991 1940250 1953962 
2008.623 1971869 1987180 1994404 1991940 1983419 1975664 1974632 1981722 
2012.480 1992939 2001627 2003324 1997766 1991774 1993904 2012645 2049929 
2016.338 2101466 2158138 2210754 2255915 2294719 2332460 2373203 2416949 
2020.195 2459433 2494089 2516584 2528315 2534981 2545612 2565210 2592742 
2024.052 2620442 2639243 2641910 2629642 2609842 2594842 2594009 2610708 
2027.910 2639610 2671114 2695951 2710655 2718657 2727626 2745698 2776643 
2031.767 2819428 2869456 2923192 2980938 3047001 3125521 3218409 3320432 
2035.625 3422044 3512724 3585082 3639541 3682312 3722413 3765493 3812788 
2039.482 3858150 3893921 3913580 3916355 3907261 3894891 3887101 3887836 
2043.340 3896629 3910805 3927321 3946012 3970589 4004363 4050982 4109714 
2047.197 4177053 4247413 4316044 4379398 4434626 4478547 4507238 4516646 
2051.054 4505731 4478881 4446744 4424015 4426091 4461541 4529302 4616429 
2054.912 4704110 4773349 4811709 4818342 4802328 4778073 4758643 4751642 
2058.769 4758174 4773852 4793986 4815796 4839283 4866423 4896949 4927712 
2062.627 4952277 4963638 4958444 4937866 4908376 4877983 4853623 4837775 
2066.484 4828494 4821223 4812848 4802696 4793484 4789295 4792344 4800854 
2070.342 4810101 4813484 4806248 4787386 4760217 4729768 4701162 4676779 
2074.199 4656483 4638632 4622256 4609229 4602498 4605646 4619644 4642416 
2078.056 4668540 4692052 4708799 4718446 4723102 4727188 4733888 4743669 
2081.914 4754857 4764505 4770870 4774421 4777436 4782930 4792344 4804706 
2085.771 4817404 4827087 4831744 4831711 4828394 4823837 4817873 4808526 
2089.629 4792746 4767822 4734189 4695770 4658425 4628954 4611741 4608024 
2093.486 4616295 4633676 4658090 4688300 4723638 4762328 4800887 4833754 
2097.344 4855835 4864881 4863307 4858314 4857979 4869338 4894101 4928651 
2101.201 4965817 4998194 5022361 5040194 5057658 5081929 5117399 5164238 
2105.058 5218997 5276647 5333835 5390325 5448635 5511316 5579073 5648721 
2108.916 5714250 5771227 5817331 5855279 5891114 5932159 5982345 6041407 
2112.773 6103602 6161638 6209060 6243513 6267010 6284591 6302005 6323017 
2116.631 6349040 6379267 6412556 6448572 6488190 6532823 6582943 6637343 
2120.488 6693701 6749259 6802804 6854639 6906884 6961021 7017455 7073626 
2124.345 7125932 7171034 7207753 7237670 7265230 7295015 7329757 7369050 
2128.203 7409224 7445457 7473503 7491301 7499594 7500976 7498819 7496054 
2132.060 7495212 7499055 7510483 7532834 7568168 7615846 7671926 7729768 
2135.918 7782253 7824590 7856776 7882519 7908704 7940119 7978017 8018955 
2139.775 8056827 8085485 8101485 8105740 8101925 8093417 8081738 8065231 
2143.633 8040388 8004105 7957026 7902427 7845271 7789742 7735400 7678739 
2147.490 7612912 7532902 7438177 7333665 7227394 7126403 7034561 6949439 
2151.347 6864434 6772413 6669172 6555360 6434717 6311654 6188121 6062339 
2155.205 5932730 5799936 5673360 5569373 5510443 5516752 5596727 5743157 
2159.062 5934309 6141104 6334818 6497103 6618503 6698244 6739600 6746533 
2162.920 6724625 6680881 6624020 6565115 6513281 6473022 6442721 6413330 
2166.777 6373753 6314579 6232757 6132434 6023499 5917313 5822469 5743056 
2170.635 5676986 5619887 5566991 5516181 5466955 5420452 5378215 5340543 
2174.492 5307537 5280000 5258703 5244283 5235664 5227749 5213698 5185229 
2178.349 5137482 5072643 4999333 4931432 4881568 4857711 4858984 4876073 
2182.207 4895776 4908108 4908175 4899060 4887600 4879893 4878519 4880061 
2186.064 4878955 4870544 4854562 4836468 4824842 4826852 4845246 4876374 
2189.922 4913001 4946278 4970342 4983782 4988809 4989044 4986295 4980866 
2193.779 4970778 4954657 4933242 4909549 4887935 4872353 4863977 4861765 
2197.636 4863776 4868400 4876844 4891688 4915581 4948322 4985625 5020785 
2201.494 5045758 5055445 5049580 5032350 5010897 4991390 4977347 4968432 
2205.351 4962097 4955964 4949395 4944368 4943296 4947820 4957103 4967862 
2209.209 4976441 4981067 4982843 4985424 4993267 5008786 5031277 5056384 
2213.066 5079247 5096043 5106469 5112672 5118304 5125412 5133659 5140835 
2216.924 5143685 5141539 5137046 5134833 5139862 5154514 5176343 5199748 
2220.781 5217957 5226006 5223323 5213732 5203102 5196395 5195557 5198541 
2224.638 5201190 5199514 5191432 5177952 5161958 5146367 5132452 5119947 
2228.496 5108045 5096646 5087829 5084443 5089572 5103620 5123635 5144322 
2232.353 5159611 5165814 5163098 5155788 5149552 5149720 5158672 5175605 
2236.211 5197200 5219500 5240694 5260548 5280940 5303881 5330279 5359899 
2240.068 5391634 5423740 5455782 5486987 5516651 5543465 5565447 5581154 
2243.926 5590853 5597902 5607703 5626197 5657247 5700855 5753095 5806417 
2247.783 5853634 5889637 5913484 5927793 5936560 5943445 5949929 5955404 
2251.640 5958797 5959603 5959435 5961349 5967866 5980094 5995951 6011505 
2255.498 6022054 6024474 6018359 6005156 5987451 5966758 5942774 5914088 
2259.355 5879494 5839730 5797955 5759979 5731574 5716164 5714284 5722610 
2263.213 5736711 5752592 5768507 5785162 5805343 5830730 5861425 5895380 
2267.070 5928599 5957453 5979859 5995548 6006231 6013924 6020106 6025582 
2270.927 6030252 6033948 6037207 6040869 6046413 6054342 6064624 6076418 
2274.785 6088447 6099905 6110725 6120739 6130014 6138281 6144532 6148161 
2278.642 6149539 6150346 6153538 6162142 6178408 6202674 6233060 6266707 
2282.500 6300123 6331052 6358488 6382932 6404755 6424393 6441443 6455197 
2286.357 6465488 6473089 6479109 6485331 6492293 6499490 6505175 6507294 
2290.215 6504872 6498482 6490309 6483347 6480253 6482270 6488930 6498347 
2294.072 6508874 6519570 6531040 6544562 6561112 6580925 6602355 6622675 
2297.929 6639429 6651037 6656857 6658304 6656420 6652214 6645620 6635627 
2301.787 6621161 6601951 6578806 6553476 6528114 6504569 6483851 6466027 
2305.644 6450792 6437777 6427083 6418576 6412119 6407210 6403074 6398702 
2309.502 6394331 6390868 6390094 6394062 6403578 6418273 6436230 6454424 
2313.359 6470365 6482405 6490140 6494244 6495791 6495085 6492091 6486273 
2317.217 6476957 6464748 6450590 6436600 6424662 6416188 6412321 6413364 
2321.074 6419517 6430412 6444436 6458426 6467338 6464748 6444268 6401998 
2324.931 6337743 6255984 6164763 6073729 5992356 5926348 5877378 5843189 
2328.789 5819346 5801145 5785397 5771093 5759005 5750241 5745541 5744870 
2332.646 5747253 5752088 5759408 5769447 5782811 5799265 5817936 5837379 
2336.504 5856320 5874422 5892726 5912913 5937265 5966523 6000217 6036468 
2340.361 6072486 6106054 6135694 6161268 6183214 6202338 6219715 6236959 
2344.219 6256724 6283415 6322412 6378662 6455466 6552871 6666884 6790082 
2348.076 6914156 7029948 7129636 7207147 7258760 7283323 7281369 7256099 
2351.933 7212739 7157325 7096461 7036380 6981560 6934928 6898030 6871470 
2355.791 6855076 6848816 6852586 6866387 6889749 6921764 6961392 7007083 
2359.648 7058471 7114918 7176660 7243363 7314290 7388193 7463457 7538903 
2363.506 7613890 7688654 7764071 7840042 7916262 7991719 8064522 8134333 
2367.363 8201218 8266492 8332113 8398928 8466799 8533971 8597809 8656653 
2371.220 8710096 8760367 8811016 8866608 8931002 9006229 9092771 9190091 
2375.078 9296674 9411952 9535288 9666485 9805346 9950626 10101142 10255274 
2378.935 10411938 10570593 10731615 10894907 11060162 11225786 11389773 
2382.311 11549194 11701662 11845160 11978385 12101259 12213467 12315239 
2385.686 12406568 12487140 12557086 12616401 12665352 12703835 12731812 
2389.061 12748975 12755321 12751158 12737681 12716800 12690324 12660439 
2392.436 12628339 12594604 12559507 12523322 12486595 12450654 12416660 
2395.812 12386316 12360850 12341214 12328431 12324102 12330135 12348612 
2399.187 12381611 12429787 12492221 12566295 12648943 12736282 12825857 
2402.562 12916781 13009705 13106438 13209000 13319309 13438906 13568347 
2405.937 13708223 13858269 14018429 14187856 14365876 14551371 14743663 
2409.313 14942660 15148643 15362140 15582918 15809618 16039357 16268048 
2412.688 16490631 16702652 16900170 17080376 17240900 17380550 17498236 
2416.063 17593664 17667300 17721486 17759210 17784270 17800390 17809954 
2419.438 17813818 17811748 17802876 17787066 17765112 17738846 17710888 
2422.813 17683692 17658742 17637002 17619438 17607086 17602738 17609640 
2426.189 17631378 17670822 17729630 17807710 17903894 18016852 18145282 
2429.564 18288850 18448060 18622822 18812878 19017416 19235214 19465282 
2432.939 19707262 19961588 20228872 20509520 20803384 21109902 21428016 
2436.314 21757130 22096984 22447784 22810006 23183470 23567716 23961648 
2439.690 24364386 24776022 25197140 25628792 26072098 26527406 26993630 
2443.065 27469570 27953166 28443636 28940292 29443684 29954052 30470956 
2446.440 30992782 31517622 32042954 32566886 33088342 33606952 34122236 
2449.815 34633472 35139056 35637212 36126212 36604700 37071804 37526952 
2453.191 37968656 38394916 38802140 39186028 39542600 39868448 40161172 
2456.566 40419296 40641184 40825036 40967932 41066656 41117388 41117244 
2459.941 41063628 40955076 40790748 40570892 40296940 39971824 39600348 
2463.316 39189472 38747432 38284676 37810548 37334632 36865620 36411060 
2466.692 35977632 35571864 35199452 34865560 34574552 34328988 34130232 
2470.067 33978068 33871556 33809304 33789892 33811344 33871340 33966600 
2473.442 34092992 34245232 34417932 34605804 34803452 35006832 35211380 
2476.817 35412976 35607572 35791176 35960212 36112024 36244408 36355500 
2480.193 36443884 36508100 36546884 36559640 36546704 36509328 36449576 
2483.568 36370308 36274376 36164672 36043940 35914824 35780100 35642320 
2486.943 35503216 35363688 35223240 35080176 34932024 34776172 34610864 
2490.318 34435400 34249676 34054536 33850172 33636520 33413210 33179388 
2493.694 32934326 32677580 32408558 32126754 31831120 31520042 31192210 
2497.069 30847156 30485636 30110032 29723684 29330304 28932926 28533362 
2500.444 28132540 27730532 27327978 26926292 26527512 26134378 25749472 
2503.819 25374218 25009220 24654770 24311014 23978840 23659832 23355916 
2507.195 23068322 22797436 22542070 22300042 22069304 21848164 21635846 
2510.570 21433098 21240362 21058144 20885808 20722576 20566768 20417618 
2513.945 20274626 20138382 20009534 19889120 19777964 19676924 19587138 
2517.320 19510404 19448338 19402356 19373010 19359362 19358842 19368404 
2520.696 19385068 19406618 19432432 19462614 19497718 19538198 19583500 
2524.071 19632828 19684934 19739336 19795546 19853152 19911216 19967972 
2527.446 20020810 20066822 20103572 20129776 20145324 20150912 20146816 
2530.821 20133038 20108674 20072792 20024872 19965784 19897862 19824504 
2534.197 19749286 19674636 19602356 19533138 19466946 19404644 19347028 
2537.572 19295446 19250798 19213324 19181846 19154834 19131080 19110408 
2540.947 19093408 19081324 19075438 19075300 19079386 19084752 19088456 
2544.322 19088770 19084682 19077274 19067684 19057504 19046772 19035558 
2547.698 19023058 19009144 18994396 18979996 18966914 18955940 18946630 
2551.073 18937872 18928390 18917628 18905928 18894578 18885164 18878934 
2554.448 18875890 18875752 18877136 18878866 18880354 18881358 18881496 
2557.823 18880318 18876444 18868346 18854122 18832426 18802774 18764958 
2561.198 18719084 18665364 18603454 18533428 18455976 18372492 18286018 
2564.574 18199836 18117438 18041272 17972784 17912010 17858458 17811816 
2567.949 17771946 17739570 17715202 17698810 17689906 17687386 17690182 
2571.324 17697394 17708922 17725282 17747060 17774398 17807086 17844234 
2574.699 17884940 17928998 17976342 18027422 18082410 18141204 18202704 
2578.075 18265560 18328424 18390710 18452450 18514410 18577656 18642604 
2581.450 18709814 18779142 18850560 18924444 19001494 19082468 19167716 
2584.825 19256722 19348380 19441338 19534420 19627732 19721894 19818608 
2588.200 19919056 20023794 20132308 20242964 20354068 20463950 20571808 
2591.576 20677398 20780478 20880974 20978366 21071778 21160968 21246032 
2594.951 21327948 21408036 21487754 21568182 21649464 21731490 21813740 
2598.326 21895938 21978466 22061914 22147088 22234858 22325540 22419732 
2601.701 22517992 22621196 22730812 22848000 22973360 23106864 23247716 
2605.077 23394520 23546096 23701716 23861522 24025904 24195182 24369292 
2608.452 24547470 24728596 24911134 25093956 25276154 25457162 25636138 
2611.827 25811954 25982986 26147328 26303284 26449612 26585948 26712074 
2615.202 26828228 26934330 27030584 27117126 27194582 27264046 27327380 
2618.578 27386486 27442780 27497030 27549030 27597824 27642454 27682394 
2621.953 27717852 27749852 27780050 27809970 27841128 27874196 27909600 
2625.328 27947124 27986774 28028406 28071526 28116028 28161634 28208232 
2628.703 28256108 28305830 28358174 28413992 28473848 28537360 28604134 
2632.079 28672832 28741966 28810612 28877606 28942594 29005322 29065828 
2635.454 29124252 29181160 29237046 29293262 29351114 29411774 29476202 
2638.829 29544896 29617466 29693278 29771302 29850796 29931298 30012490 
2642.204 30094052 30176054 30258324 30340820 30423970 30508526 30595692 
2645.580 30686716 30782774 30884652 30992426 31105494 31222792 31343258 
2648.955 31465788 31589526 31713978 31838786 31964022 32089542 32215708 
2652.330 32342694 32471470 32602924 32738064 32878462 33025234 33179354 
2655.705 33341288 33510912 33687828 33870696 34058156 34248528 34440528 
2659.081 34633220 34826356 35019976 35214688 35410780 35608724 35808160 
2662.456 36008880 36210012 36410772 36610540 36809068 37006244 37202460 
2665.831 37398512 37594836 37792404 37991508 38192444 38395096 38599224 
2669.206 38804784 39011640 39220224 39431124 39644992 39862416 40083656 
2672.582 40308576 40536772 40767528 41000116 41233852 41467748 41700900 
2675.957 41932348 42160924 42385680 42606236 42823100 43037732 43252216 
2679.332 43469216 43690876 43919428 44156024 44401776 44657216 44922948 
2682.707 45199540 45487792 45787976 46100488 46425288 46762504 47112208 
2686.083 47474500 47849564 48237200 48636792 49047244 49466924 49894552 
2689.458 50328816 50769436 51216956 51672064 52135908 52609368 53092936 
2692.833 53586636 54090280 54603864 55127348 55660620 56203444 56755516 
2696.208 57316312 57885060 58461116 59043812 59632660 60227288 60826848 
2699.583 61430828 62038552 62649576 63263572 63880624 64500244 65121712 
2702.959 65742992 66361844 66975160 67579896 68173264 68752848 69316648 
2706.334 69862072 70386640 70886944 71359720 71802008 72211792 72588216 
2709.709 72931248 73241528 73520280 73768072 73985480 74173232 74331504 
2713.084 74460920 74561856 74634208 74677256 74689896 74670616 74618040 
2716.460 74531848 74412232 74260424 74077736 73866256 73628176 73366272 
2719.835 73083576 72784696 72474304 72158344 71842976 71534120 71237704 
2723.210 70959080 70703024 70474040 70275496 70109936 69978768 69881888 
2726.585 69818960 69788760 69790160 69822384 69884336 69975920 70096032 
2729.961 70243744 70417344 70615104 70835304 71076184 71335744 71611832 
2733.336 71901704 72201856 72508832 72819088 73129720 73439168 73746472 
2736.711 74050856 74351992 74648968 74940160 75224144 75499760 75766472 
2740.086 76024392 76274448 76517528 76754776 76987456 77217472 77447072 
2743.462 77679880 77919352 78168712 78430160 78704840 78991696 79289280 
2746.837 79595536 79908232 80225368 80544264 80861632 81172720 81472000 
2750.212 81753688 82012632 82245776 82452280 82633112 82790768 82928712 
2753.587 83049848 83156488 83250480 83332720 83403464 83462120 83507256 
2756.963 83536288 83545896 83532720 83493200 83424096 83323048 83188272 
2760.338 83018200 82812256 82570040 82292464 81981208 81639040 81269472 
2763.713 80875960 80461952 80031240 79586704 79132568 78673144 78213576 
2767.088 77759800 77316880 76889432 76480736 76093632 75729904 75391984 
2770.464 75082328 74803480 74557848 74346528 74169144 74023664 73906632 
2773.839 73813504 73739840 73681184 73633280 73591720 73552424 73510240 
2777.214 73460160 73397024 73315504 73210936 73078952 72916000 72719224 
2780.589 72487808 72222360 71926056 71603896 71262648 70908912 70549424 
2783.965 70189760 69833704 69484008 69142208 68808872 68483816 68165664 
2787.340 67851816 67538744 67222224 66898352 66564216 66218720 65862440 
2790.715 65497308 65126180 64751708 64376600 64003052 63633688 63271544 
2794.090 62920348 62584280 62267908 61974572 61707144 61466748 61253496 
2797.466 61066512 60904460 60765868 60649152 60552888 60475988 60416920 
2800.841 60374884 60348992 60338296 60341836 60358128 60385164 60420424 
2804.216 60461288 60505200 60550220 60595324 60640084 60684284 60727992 
2807.591 60770940 60812140 60850256 60883572 60909948 60926760 60931260 
2810.967 60920204 60890012 60837980 60761752 60660244 60533424 60382956 
2814.342 60211300 60021760 59818232 59605444 59388052 59171832 58963008 
2817.717 58767980 58593696 58446936 58333948 58260548 58231224 58249636 
2821.092 58316972 58433364 58596772 58803068 59047384 59323892 59626084 
2824.468 59947960 60283016 60624580 60965804 61299168 61616828 61911328 
2827.843 62176364 62406784 62599176 62751860 62865048 62939808 62978604 
2831.218 62985040 62962904 62917284 62853096 62775292 62688656 62597224 
2834.593 62504732 62414744 62330516 62255328 62192424 62144824 62115272 
2837.969 62106820 62122652 62167228 62246684 62368188 62540508 62773764 
2841.344 63077560 63462048 63938124 64516424 65210296 66035448 67008720 
2844.719 68148920 69472424 70989400 72698664 74582432 76603416 78697808 
2848.094 80781408 82753888 84500072 85912152 86897616 87388152 87354000 
2851.469 86802712 85778224 84349000 82603776 80640800 78551240 76423368 
2854.845 74332920 72336976 70479616 68787672 67272432 65932272 64755672 
2858.220 63724852 62817908 62013136 61290580 60631668 60020888 59444772 
2861.595 58890944 58349564 57813024 57276348 56737584 56197936 55661184 
2864.970 55132616 54619384 54129200 53670196 53250896 52879488 52563032 
2868.346 52306900 52114124 51984436 51914268 51897088 51923864 51983576 
2871.721 52064104 52153692 52240864 52316692 52374664 52411860 52428684 
2875.096 52428760 52417660 52401172 52384684 52372348 52366220 52367640 
2878.471 52376760 52393992 52419488 52453920 52497668 52550768 52613072 
2881.847 52684140 52763488 52850676 52945848 53049128 53160936 53281612 
2885.222 53411392 53550576 53699292 53857816 54026032 54203444 54389148 
2888.597 54581960 54780648 54984272 55193000 55407924 55631280 55865904 
2891.972 56115472 56383592 56673700 56989052 57332872 57707848 58116776 
2895.348 58561772 59043700 59561548 60111324 60686036 61273796 61860324 
2898.723 62428208 62959300 63438164 63853680 64201020 64483024 64709440 
2902.098 64895464 65058008 65215880 65385596 65581000 65814508 66096060 
2905.473 66434040 66836164 67309264 67859408 68493080 69216656 70037504 
2908.849 70964936 72008688 73178616 74482832 75924936 77502360 79203624 
2912.224 81009864 82891536 84809632 86720496 88571992 90309600 91883248 
2915.599 93246024 94363856 95217928 95805776 96140240 96244904 96150872 
2918.974 95888000 95480440 94944488 94285336 93499616 92578000 91511096 
2922.350 90293120 88927128 87426600 85816864 84132904 82412624 80696776 
2925.725 79022056 77416504 75901096 74487824 73180464 71977360 70872864 
2929.100 69859624 68929272 68073768 67286512 66561976 65896832 65289236 
2932.475 64739360 64248308 63817828 63449704 63144728 62902576 62720544 
2935.851 62594080 62515900 62475916 62463100 62464440 62467808 62463444 
2939.226 62444160 62406824 62352508 62285192 62210856 62135684 62065728 
2942.601 62004996 61955200 61914960 61880112 61843132 61793428 61719672 
2945.976 61610600 61458388 61260212 61020104 60749408 60463912 60183176 
2949.352 59926772 59709980 59544100 59434176 59379356 59374108 59409516 
2952.727 59474940 59557936 59646532 59729636 59797048 59841160 59856752 
2956.102 59840628 59792032 59711808 59602444 59467384 59311016 59138876 
2959.477 58956440 58769684 58583724 58402660 58229136 58064468 57909252 
2962.853 57763704 57628420 57504488 57392880 57295024 57211708 57143372 
2966.228 57089744 57050332 57024376 57011040 57009260 57017384 57033708 
2969.603 57056076 57082376 57111284 57142012 57175044 57211144 57251816 
2972.978 57298048 57350680 57409936 57475096 57545188 57617940 57689984 
2976.354 57756288 57809804 57842284 57844216 57805868 57719196 57578368 
2979.729 57381084 57129048 56828136 56488260 56121352 55741640 55363056 
2983.104 54997020 54652188 54332668 54038156 53764312 53504700 53252284 
2986.479 53001060 52747476 52490412 52230628 51968712 51703864 51431412 
2989.854 51143444 50828136 50472080 50062992 49593152 49060820 48472088 
2993.230 47840388 47184856 46525040 45879700 45262788 44680644 44133136 
2996.605 43614300 43115480 42626960 42141060 41653560 41163176 40671492 
2999.980 40181348 39696108 39218048 38748844 38289344 37839904 37400644 
3003.355 36972256 36555244 36150264 35757576 35377348 35009272 34652956 
3006.731 34308228 33974808 33652884 33342436 33043612 32755926 32478790 
3010.106 32210960 31950970 31697508 31449008 31204564 30963566 30725834 
3013.481 30491500 30260810 30034112 29811934 29594658 29383304 29179032 
3016.856 28983148 28796912 28621052 28454958 28297342 28145654 27997094 
3020.232 27849324 27700582 27550796 27400426 27250956 27103794 26960348 
3023.607 26821496 26688468 26563122 26447816 26345986 26261008 26195786 
3026.982 26151726 26127832 26120654 26123996 26130648 26131844 26119212 
3030.357 26085750 26026044 25937186 25818916 25673470 25504702 25317456 
3033.733 25116740 24907204 24692330 24475250 24258316 24043552 23833272 
3037.108 23629112 23432740 23245024 23066192 22895676 22732418 22575540 
3040.483 22424372 22278660 22138718 22004606 21876564 21754168 21637066 
3043.858 21524380 21415730 21310514 21208420 21109274 21013036 20919706 
3047.234 20829352 20742420 20659190 20580284 20505802 20435330 20367922 
3050.609 20302298 20237168 20171008 20103122 20032956 19960684 19886346 
3053.984 19809972 19732226 19653628 19575076 19497892 19423320 19352260 
3057.359 19284986 19221638 19161758 19105214 19052312 19003776 18960820 
3060.735 18924480 18894924 18871842 18854332 18841286 18832254 18827480 
3064.110 18827826 18834262 18846856 18864884 18886446 18908732 18929188 
3067.485 18945384 18956254 18961166 18959990 18952410 18938082 18916068 
3070.860 18886340 18849106 18805854 18758384 18709572 18661282 18615454 
3074.236 18572640 18532942 18496014 18461302 18428078 18395964 18364406 
3077.611 18332812 18300118 18265594 18228758 18189022 18146216 18100440 
3080.986 18052184 18002346 17952134 17903068 17856386 17813336 17774122 
3084.361 17738362 17704710 17672132 17639624 17607498 17577136 17550398 
3087.737 17529456 17515382 17508240 17506446 17507688 17509758 17510862 
3091.112 17510136 17507930 17504928 17501824 17499340 17497926 17498098 
3094.487 17500374 17505756 17515208 17529250 17547948 17570444 17595492 
3097.862 17621648 17648044 17674272 17700432 17727144 17754758 17783200 
3101.238 17812334 17841678 17870818 17899752 17928860 17958868 17990466 
3104.613 18024312 18060338 18098370 18137614 18176928 18215004 18250354 
3107.988 18281836 18309070 18332468 18353344 18373668 18395896 18421890 
3111.363 18452798 18488544 18528344 18570980 18615248 18660314 18705558 
3114.739 18750496 18794678 18836892 18876030 18910946 18941058 18966776 
3118.114 18989066 19009524 19029324 19049474 19069898 19090396 19110512 
3121.489 19129972 19148740 19167508 19186416 19205810 19225238 19244288 
3124.864 19262646 19280276 19297560 19315294 19334592 19356554 19381672 
3128.240 19410430 19443208 19479942 19520106 19562772 19606342 19648738 
3131.615 19687916 19722206 19751228 19775986 19798668 19822216 19849476 
3134.990 19882496 19921900 19967348 20017030 20068800 20120614 20170556 
3138.365 20217728 20261886 20303306 20342958 20381814 20421438 20462768 
3141.740 20505942 20550858 20596752 20642616 20687894 20732758 20778080 
3145.116 20825144 20875344 20929408 20987060 21047502 21109204 21171092 
3148.491 21232464 21293252 21353808 21414720 21476230 21538100 21599732 
3151.866 21660504 21720100 21778590 21836354 21894196 21952848 22012694 
3155.241 22073974 22136732 22200960 22266628 22333702 22402042 22471266 
3158.617 22540780 22610374 22679598 22748480 22817620 22887362 22958760 
3161.992 23032018 23107632 23185880 23266486 23349694 23435224 23522626 
3165.367 23611306 23700212 23788436 23874894 23958846 24040156 24118854 
3168.742 24195356 24270052 24343148 24414786 24484786 24553150 24619596 
3172.118 24683914 24745750 24805138 24861658 24915132 24965420 25012800 
3175.493 25057484 25099854 25140438 25179656 25218034 25256452 25295856 
3178.868 25337020 25380718 25426702 25474766 25523186 25570522 25615648 
3182.243 25657966 25698110 25737696 25779114 25824648 25875956 25933880 
3185.619 25998076 26067312 26139516 26212540 26284416 26353238 26417918 
3188.994 26478452 26535648 26591196 26647422 26706720 26770746 26840354 
3192.369 26915434 26994760 27077062 27161180 27246018 27331330 27416662 
3195.744 27501692 27585926 27668410 27748756 27826680 27902850 27977904 
3199.120 28053040 28129004 28205970 28283726 28362030 28440454 28519136 
3202.495 28598438 28678566 28759666 28841346 28923114 29004366 29084712 
3205.870 29164540 29243888 29323144 29401846 29479038 29553620 29624668 
3209.245 29692212 29757320 29821978 29887956 29957106 30029496 30104598 
3212.621 30180742 30256830 30332220 30407554 30484214 30563730 30646820 
3215.996 30733052 30821082 30908488 30993350 31073994 31150274 31222650 
3219.371 31292296 31360708 31428990 31498384 31569428 31643086 31719822 
3222.746 31800066 31883926 31971224 32061040 32152266 32243614 32333556 
3226.122 32421090 32505248 32585674 32662574 32736312 32807990 32878320 
3229.497 32948374 33018336 33088342 33157930 33226564 33294100 33360720 
3232.872 33426844 33493336 33560700 33629220 33698288 33767220 33835416 
3236.247 33902328 33968320 34033752 34099728 34166432 34234332 34302632 
3239.623 34370804 34438124 34504376 34569316 34633184 34695808 34757148 
3242.998 34816484 34873820 34929296 34983664 35038436 35095012 35154684 
3246.373 35217960 35284620 35353696 35424296 35495700 35568012 35641632 
3249.748 35717068 35795064 35875236 35957152 36039548 36121316 36201872 
3253.124 36280968 36359104 36437000 36515240 36594320 36674204 36754252 
3256.499 36833884 36912440 36989680 37065672 37140884 37215816 37291052 
3259.874 37366484 37441852 37516620 37590176 37662476 37733816 37805308 
3263.249 37878152 37953432 38031688 38112780 38195840 38279680 38363536 
3266.625 38447188 38531324 38616928 38704944 38796232 38890840 38988220 
3270.000 39087152 39186532 39285760 39384428 39482468 39579800 39676976 
3273.375 39774172 39872404 39972444 40075592 40183344 40296432 40414928 
3276.750 40538336 40665416 40795152 40926712 41059876 41195200 41333368 
3280.125 41474892 41619864 41767576 41917676 42069216 42222160 42376468 
3283.501 42532740 42691404 42852684 43016696 43183696 43353764 43527708 
3286.876 43706120 43889880 44079112 44273452 44472284 44674368 44879076 
3290.251 45085720 45294744 45506480 45721780 45941644 46166520 46397376 
3293.626 46634732 46879460 47131708 47391456 47657756 47929360 48204768 
3297.002 48482312 48761332 49042160 49324956 49610832 49900796 50195492 
3300.377 50495564 50801804 51115116 51436712 51767392 52107812 52457436 
3303.752 52815272 53179848 53549828 53924660 54304772 54691004 55084240 
3307.127 55485136 55893600 56308936 56730520 57157960 57591456 58031332 
3310.503 58478364 58932684 59393864 59861472 60334792 60813816 61299132 
3313.878 61791404 62291504 62799760 63315816 63839360 64369804 64907200 
3317.253 65451928 66004552 66565604 67134112 67709256 68289112 68872152 
3320.628 69457376 70044752 70634400 71226576 71821080 72416600 73012032 
3324.004 73606000 74197680 74786904 75373656 75957720 76538472 77114224 
3327.379 77683600 78245040 78798144 79342928 79879600 80407560 80925384 
3330.754 81430112 81918672 82388144 82836680 83263520 83668240 84050704 
3334.129 84409560 84742696 85047952 85323544 85569608 85787432 85979632 
3337.505 86148288 86294776 86418312 86516720 86587008 86626128 86631912 
3340.880 86603064 86539088 86439368 86303424 86130552 85920184 85672184 
3344.255 85386904 85065040 84706608 84311704 83879328 83408720 82899640 
3347.630 82353016 81771616 81158664 80518496 79854512 79169264 78464336 
3351.006 77740184 76997544 76237048 75460184 74668720 73865544 73053232 
3354.381 72235032 71414312 70594216 69778216 68969744 68171632 67386104 
3357.756 66614776 65858312 65116860 64390324 63678308 62980256 62295708 
3361.131 61624268 60965308 60318308 59683104 59059756 58448452 57850004 
3364.507 57265196 56695520 56141900 55605256 55086496 54586092 54103564 
3367.882 53638628 53190072 52756456 52336204 51927632 51529040 51138712 
3371.257 50755100 50376964 50003132 49632932 49266236 48903188 48544520 
3374.632 48190440 47841424 47497044 47156600 46819152 46483844 46149716 
3378.008 45816768 45485176 45154944 44826248 44498604 44171280 43843584 
3381.383 43514336 43182784 42848296 42510632 42169800 41826056 41480400 
3384.758 41133964 40788528 40445660 40106480 39771628 39440304 39111476 
3388.133 38783808 38455804 38127612 37799528 37472660 37148316 36826704 
3391.509 36507960 36191320 35876100 35562080 35249976 34940284 34634548 
3394.884 34333184 34036296 33743192 33453218 33166230 32882466 32603316 
3398.259 32329846 32063038 31802810 31548120 31297102 31047942 30799420 
3401.634 30550898 30302908 30056198 29811188 29568304 29327822 29089458 
3405.010 28853564 28620380 28390080 28162764 27937902 27714532 27491524 
3408.385 27268244 27044548 26821566 26600568 26382884 26169498 25960474 
3411.760 25754994 25552528 25352370 25154832 24960894 24771600 24588002 
3415.135 24410334 24238064 24070030 23904824 23741190 23578384 23415922 
3418.510 23253656 23091386 22929102 22767404 22606326 22447470 22291812 
3421.886 22140670 21994290 21852904 21715674 21581484 21449424 21318658 
3425.261 21188972 21060196 20932154 20804740 20677432 20549886 20422166 
3428.636 20294972 20169030 20045654 19925786 19809418 19696272 19585580 
3432.011 19476338 19368160 19260948 19155042 19050754 18948222 18847098 
3435.387 18746726 18646446 18545218 18442806 18338966 18233802 18127420 
3438.762 18020514 17913736 17808020 17704814 17605326 17510862 17421524 
3442.137 17336928 17255656 17175504 17094024 17009216 16919222 16823426 
3445.512 16722212 16616888 16509490 16402740 16299421 16201938 16111184 
3448.888 16027117 15947914 15871061 15793674 15713688 15629698 15542016 
3452.263 15451468 15359359 15266241 15172112 15076495 14978841 14879255 
3455.638 14778800 14679019 14582380 14490010 14402181 14317931 14235067 
3459.013 14151363 14065074 13975346 13882934 13789481 13697075 13607355 
3462.389 13521653 13439726 13361198 13284870 13209240 13132974 13055149 
3465.764 12975632 12894424 12812478 12730686 12649728 12569842 12490823 
3469.139 12411784 12331737 12249831 12165997 12080579 11994700 11909179 
3472.514 11824799 11741626 11659422 11577472 11495673 11414163 11333653 
3475.890 11255029 11178833 11104995 11032768 10960926 10887975 10812489 
3479.265 10733687 10651505 10566791 10480702 10395512 10313630 10237260 
3482.640 10168060 10106535 10051835 10001244 9951405 9898996 9840865 9776100 
3486.498 9705414 9630912 9555576 9482183 9412291 9346675 9284421 9224714 
3490.355 9166943 9110670 9056264 9004165 8954305 8906346 8859269 8812064 
3494.212 8764052 8715402 8666961 8620047 8576145 8536067 8499607 8466191 
3498.070 8434534 8403150 8371127 8337484 8302257 8265141 8226982 8187610 
3501.927 8147703 8108271 8070362 8035832 8006637 7984429 7970188 7964012 
3505.785 7964349 7968804 7974474 7978084 7977477 7972009 7962021 7949535 
3509.642 7936846 7926014 7918117 7913157 7910593 7909378 7909547 7911538 
3513.500 7916329 7925102 7938196 7954528 7972449 7989356 8002823 8011969 
3517.357 8016762 8018348 8018450 8018045 8017504 8015175 8009539 7998030 
3521.214 7979603 7953989 7922403 7887210 7850804 7814537 7779015 7743023 
3525.072 7704370 7660257 7608528 7548107 7479739 7405583 7328779 7252696 
3528.929 7179490 7109798 7042947 6977217 6910688 6842117 6771739 6700296 
3532.787 6628764 6557681 6486273 6412926 6335591 6252791 6164293 6071444 
3536.644 5977138 5884263 5795840 5713142 5636502 5565078 5497591 5432497 
3540.501 5368553 5304418 5239152 5172185 5103318 5033355 4963840 4896715 
3544.359 4833553 4774857 4719384 4665056 4609263 4550161 4487921 4424015 
3548.216 4361525 4302357 4247613 4196223 4145807 4093459 4037437 3977611 
3552.074 3915853 3855175 3798415 3746843 3700424 3657451 3615752 3573756 
3555.931 3530261 3485401 3439210 3392089 3343671 3293855 3242811 3191005 
3559.789 3140172 3091849 3047601 3007996 2972631 2939971 2908515 2876260 
3563.646 2841407 2802153 2756235 2700919 2634243 2555578 2466930 2373703 
3567.503 2283427 2203627 2139790 2093309 2061514 2039143 2019735 1997998 
3571.361 1970272 1935357 1893823 1847535 1798789 1749218 1700550 1654215 
3575.218 1611245 1572535 1538617 1508858 1481362 1453933 1424180 1390141 
3579.076 1351650 1310105 1267933 1228490 1194798 1168684 1151109 1141375 
3582.933 1137522 1136691 1134698 1126891 1108255 1074008 1021530 950628 
3586.791 865328 772776 682733 604453 544037 503697 481605 472781 471421 
3591.130 471421 468337 458585 440707 414505 381308 343603 304641 268104 
3595.470 237370 214463 200109 193579 192120 192286 190661 184131 170905 
3599.809 151316 127054 101368 77805 59115 46920 41253 40922 43705 47284 
3604.631 49306 47284 39133 23128 -2286 -37274 -80342 -128110 -175939 -218066 
3609.453 -251182 -274263 -289759 -302507 -317904 -340120 -370379 -405603 
3613.310 -440558 -469355 -487558 -494707 -493979 -492026 -495700 -511255 
3617.168 -541602 -586341 -641134 -698930 -752054 -793828 -820319 -830703 
3621.025 -826536 -811125 -787941 -760224 -730984 -701411 -673093 -647089 
3624.883 -624756 -608709 -602919 -612382 -642854 -698268 -777853 -873693 
3628.740 -970405 -1049642 -1096279 -1105170 -1080778 -1034404 -979000 
3632.115 -924912 -880207 -848164 -828091 -817276 -811952 -809008 -807057 
3635.973 -806726 -809571 -816879 -829017 -845221 -863773 -883216 -902262 
3639.830 -920679 -939063 -957511 -975463 -991430 -1002901 -1007596 -1004554 
3643.688 -994901 -981711 -970305 -967099 -977744 -1006835 -1055890 -1123082 
3647.545 -1203515 -1289119 -1371305 -1440232 -1488213 -1509478 -1501323 
3650.920 -1465197 -1405456 -1330610 -1250036 -1173379 -1109698 -1065773 
3654.295 -1045048 -1047725 -1069574 -1102327 -1135574 -1159632 -1168984 
3657.671 -1162573 -1143638 -1117662 -1090958 -1068152 -1052320 -1044684 
3661.046 -1044321 -1048618 -1054402 -1058336 -1057542 -1050370 -1036024 
3664.421 -1014009 -984984 -949345 -908016 -862913 -816350 -770444 -725096 
3668.279 -675342 -607981 -502584 -332472 -72822 288892 751467 1300833 
3672.136 1918883 2586275 3284441 3991822 4669712 5257329 5678395 5854238 
3675.993 5741042 5347185 4726887 3954271 3102160 2237463 1413277 674635 
3679.851 56198 -426391 -776232 -1014306 -1169876 -1272964 -1346267 -1401856 
3683.708 -1443732 -1471901 -1487586 -1495544 -1503139 -1519846 -1553028 
3687.083 -1605157 -1673420 -1749626 -1823112 -1884611 -1928354 -1952797 
3690.459 -1958767 -1948311 -1923373 -1886459 -1841754 -1793647 -1747712 
3693.834 -1708637 -1679229 -1660085 -1649589 -1644835 -1642558 -1640049 
3697.209 -1635923 -1630443 -1624667 -1620705 -1621299 -1628892 -1645496 
3700.584 -1671341 -1705105 -1742662 -1778038 -1806020 -1822485 -1826742 
3703.960 -1820836 -1808594 -1794702 -1782196 -1772561 -1765136 -1757975 
3707.335 -1748867 -1736821 -1722663 -1708637 -1698504 -1695369 -1701343 
3710.710 -1716426 -1737778 -1760714 -1779127 -1787377 -1781899 -1761737 
3714.085 -1729627 -1690583 -1650513 -1615589 -1590665 -1578252 -1577723 
3717.461 -1586241 -1599479 -1613773 -1626944 -1638597 -1650414 -1664211 
3720.836 -1680582 -1698735 -1716723 -1732300 -1744577 -1754213 -1763717 
3724.211 -1775597 -1791700 -1812026 -1833770 -1853005 -1865476 -1867654 
3727.586 -1858416 -1838917 -1812719 -1784077 -1758041 -1738999 -1730386 
3730.962 -1733950 -1748966 -1772528 -1800411 -1828919 -1856304 -1883423 
3734.337 -1912586 -1945046 -1979317 -2009990 -2029514 -2030933 -2011606 
3737.712 -1973907 -1924528 -1870887 -1820011 -1776026 -1740649 -1714214 
3741.087 -1698669 -1698207 -1720452 -1774013 -1863826 -1983901 -2113110 
3744.463 -2219336 -2270660 -2253355 -2176051 -2064010 -1945112 -1843371 
3747.838 -1775563 -1748999 -1761374 -1801335 -1854292 -1904603 -1941813 
3751.213 -1961076 -1961175 -1942077 -1903778 -1847363 -1776652 -1697382 
3754.588 -1618065 -1547184 -1490591 -1452054 -1431513 -1426824 -1434155 
3757.964 -1450040 -1472627 -1500035 -1529091 -1555141 -1571946 -1573696 
3761.339 -1558113 -1528035 -1490294 -1454168 -1428772 -1418567 -1423521 
3764.714 -1438217 -1454465 -1464603 -1464735 -1456645 -1445714 -1439109 
3768.089 -1441520 -1454564 -1475732 -1499407 -1519087 -1529818 -1529818 
3771.465 -1520374 -1504823 -1487124 -1470844 -1458593 -1451394 -1449214 
3774.840 -1451031 -1454795 -1458494 -1461136 -1463084 -1466254 -1472892 
3778.215 -1485011 -1502808 -1524172 -1544543 -1558740 -1563659 -1558179 
3781.590 -1544807 -1527804 -1511526 -1499275 -1492143 -1489369 -1489006 
3784.966 -1488841 -1487355 -1483888 -1477911 -1469424 -1457569 -1441982 
3788.341 -1423455 -1403970 -1387456 -1378009 -1378241 -1388777 -1407305 
3791.716 -1429036 -1448917 -1463348 -1471769 -1476986 -1483425 -1495280 
3795.091 -1513870 -1537246 -1559367 -1573200 -1573795 -1560952 -1539558 
3798.467 -1518360 -1507761 -1517073 -1550321 -1604200 -1667017 -1721277 
3801.842 -1748372 -1737514 -1689329 -1614928 -1531138 -1455456 -1402417 
3805.217 -1381246 -1393731 -1432735 -1484350 -1531303 -1558806 -1561117 
3808.592 -1540647 -1505978 -1465924 -1427451 -1393467 -1363344 -1334805 
3811.968 -1306463 -1279043 -1257205 -1247459 -1256743 -1289218 -1342964 
3815.343 -1409155 -1472231 -1515785 -1528992 -1510205 -1467212 -1413415 
3818.718 -1364434 -1333550 -1330148 -1355912 -1404267 -1459782 -1503997 
3822.093 -1523049 -1511889 -1475269 -1423785 -1370248 -1324995 -1294372 
3825.469 -1279836 -1278085 -1283073 -1288491 -1290143 -1287566 -1282974 
3828.844 -1280232 -1282446 -1290672 -1303589 -1318124 -1330247 -1337283 
3832.219 -1337745 -1332229 -1322616 -1311682 -1302135 -1296519 -1297081 
3835.594 -1306066 -1324169 -1350594 -1382501 -1414538 -1440199 -1453904 
3838.969 -1452880 -1437821 -1412259 -1381709 -1352147 -1328958 -1315547 
3842.345 -1314160 -1324829 -1345541 -1372527 -1400502 -1423884 -1437557 
3845.720 -1438878 -1427319 -1404927 -1375829 -1344550 -1315018 -1289912 
3849.095 -1270553 -1258097 -1254430 -1263483 -1291663 -1346168 -1431348 
3852.470 -1544972 -1672826 -1790314 -1871052 -1898269 -1870623 -1799487 
3855.846 -1701475 -1592678 -1484515 -1384351 -1296849 -1223571 -1165581 
3859.221 -1123082 -1096279 -1084315 -1085604 -1097998 -1119216 -1147471 
3862.596 -1181541 -1220994 -1264804 -1309865 -1350297 -1378868 -1389206 
3865.971 -1379199 -1351618 -1315349 -1282314 -1264242 -1269595 -1299922 
3869.347 -1348480 -1400138 -1437491 -1449016 -1431777 -1392641 -1343460 
3872.722 -1296982 -1262888 -1244981 -1241380 -1245642 -1250036 -1248186 
3876.097 -1238109 -1222282 -1206125 -1196510 -1198889 -1216798 -1249739 
3879.472 -1293149 -1338505 -1376853 -1399940 -1403243 -1387588 -1358555 
3882.848 -1324829 -1295429 -1278217 -1277623 -1292423 -1315811 -1336490 
3886.223 -1343889 -1330874 -1297841 -1251192 -1201268 -1158806 -1132468 
3889.598 -1127280 -1142647 -1173478 -1210718 -1245344 -1270189 -1282248 
3892.973 -1282347 -1273030 -1257205 -1236985 -1213560 -1188183 -1162441 
3896.349 -1139408 -1123148 -1117398 -1124801 -1145191 -1174965 -1208009 
3899.724 -1237349 -1257635 -1266786 -1266291 -1260939 -1256280 -1256644 
3903.099 -1263582 -1274781 -1285915 -1291035 -1285254 -1266985 -1236886 
3906.474 -1198360 -1156030 -1114523 -1077539 -1047163 -1024289 -1008488 
3909.850 -998604 -992819 -989281 -986637 -983496 -979265 -974173 -969347 
3913.707 -966735 -968619 -977645 -995166 -1020818 -1052188 -1084976 -1113994 
3917.564 -1134550 -1143440 -1140267 -1126387 -1104178 -1077275 -1048188 
3920.940 -1019959 -994604 -974405 -961577 -958007 -964388 -979595 -1000951 
3924.797 -1023926 -1043560 -1056154 -1060385 -1057245 -1049708 -1041379 
3928.172 -1035231 -1033082 -1035032 -1039990 -1047064 -1055129 -1063955 
3931.548 -1073242 -1082497 -1090033 -1093900 -1091784 -1082530 -1066235 
3934.923 -1044949 -1021975 -1000753 -983893 -972950 -967826 -967462 -970570 
3938.780 -975727 -982571 -990835 -1001050 -1013083 -1026339 -1039693 
3942.156 -1051857 -1061476 -1067557 -1070400 -1070367 -1068615 -1066235 
3945.531 -1064351 -1063426 -1063492 -1063855 -1063426 -1061211 -1056418 
3948.906 -1049014 -1039792 -1029512 -1019496 -1009976 -1001083 -992125 
3952.281 -982075 -971231 -960486 -951758 -947064 -948188 -956122 -969380 
3956.139 -985546 -1001612 -1014670 -1023165 -1026967 -1027132 -1025479 
3959.514 -1023727 -1023000 -1023463 -1025016 -1026967 -1028520 -1028785 
3962.889 -1027231 -1022901 -1015496 -1004720 -991298 -976422 -961875 -949246 
3966.747 -939426 -932450 -927391 -922465 -916381 -908280 -898460 -888176 
3970.604 -878885 -872007 -868634 -868535 -871444 -876140 -881464 -886159 
3974.461 -889367 -890028 -887846 -882588 -874685 -864831 -854018 -842972 
3978.319 -831960 -821344 -810728 -800013 -789694 -780863 -775009 -773653 
3982.176 -777489 -786386 -799186 -813804 -828388 -840790 -850082 -855770 
3986.034 -858085 -857490 -854745 -850644 -846147 -841980 -838938 -837218 
3989.891 -836458 -836028 -835366 -834374 -833713 -834374 -837747 -844461 
3993.749 -854414 -866352 -878091 -887846 -894591 -898261 -900014 -901502 
3997.606 -903883 -907454 -911719 -915191 -917307 -917472 -916216 
##END=
