
##TITLE=Z244_1_e
##JCAMP-DX=5.01  $$ Nicolet v. 1
##DATATYPE=INFRARED SPECTRUM
##ORIGIN=UniL
##OWNER=Nicolet
##LONGDATE=2011/09/20
##TIME=13:24:06
##SPECTROMETER/DATA SYSTEM=Nicolet iS5
##DATA PROCESSING=
Ratio against background
%Transmittance->Absorbance
Truncated
ElementMultiply or ElementDivide
##COMMENTS=
Number of sample scans: 32
Collection length: 51.17 sec
Sample gain: 2.0
Background collected on: Mar Sep 20 13:13:55 2011 (GMT+02:00);
Number of background scans: 32
Background gain: 2.0
Sample spacing:  1.000
Number of scan points: 12415
Resolution points: 8192
Number of FFT points: 65536
Apodization: N-B fort;
Phase correction: Mertz;
Laser frequency: 15798.0 cm-1
Number of rejected sample scans: 0
Number of rejected background scans: 0
Bench serial number: ASB1000141;
##RESOLUTION=4.000
##XUNITS=1/CM
##YUNITS=ABSORBANCE
##FIRSTX=649.893372
##LASTX=4000.122314
##FIRSTY=0.058220
##MAXX=4000.122314
##MINX=649.893372
##MAXY=0.325372
##MINY=0.001334
##XFACTOR=1.000000
##YFACTOR=1.000000E-009
##NPOINTS=6950
##DELTAX=0.482117
##ZPD=6100
##XYDATA=(X++(Y..Y))
649.893 58219552 58568104 58946232 59393564 59942520 60609036 61387204 
653.268 62255516 63188800 64171216 65201208 66292056 67464584 68738640 
656.643 70133920 71670912 73372472 75265952 77382720 79746520 82373488 
660.018 85269704 88430424 91837888 95449312 99183728 102895944 106391224 
663.393 109460000 111899320 113565520 114369200 114239224 113101488 
666.285 110872128 107523800 103192344 98279736 93397760 89101160 85684216 
669.660 83137144 81278224 79883856 78771136 77826112 76991016 76253952 
673.035 75625504 75122664 74755136 74520672 74406776 74396936 74477128 
676.410 74638584 74882560 75218592 75660288 76220256 76906520 77720376 
679.785 78659408 79723112 80918992 82263952 83785688 85514816 87477952 
683.159 89698944 92200296 95009880 98173096 101752784 105823248 110469072 
686.534 115769768 121796304 128615128 136281344 144823696 154198240 
689.427 164230976 174536880 184427808 192993296 199140304 201789872 
692.320 200214160 194172688 184046784 170724992 155474144 139679136 
695.212 124536760 111041488 99823008 91133944 84959536 81064048 79110424 
698.587 78729344 79621840 81602920 84594960 88595400 93586872 99421576 
701.962 105754640 111989488 117300520 120854024 121937952 120185760 
704.855 115693424 108993296 100926608 92372936 84151888 76839368 70709688 
708.229 65809652 62011224 59116096 56913456 55234536 53959584 52997168 
711.604 52277448 51740404 51333476 51023248 50796292 50656532 50614088 
714.979 50672168 50819012 51030444 51276384 51533852 51795012 52066120 
718.354 52361024 52690088 53053620 53441028 53838236 54233852 54628176 
721.729 55032296 55464352 55940748 56470788 57054680 57685668 58354188 
725.104 59048940 59757812 60464028 61143552 61769172 62314568 62764840 
728.478 63125724 63428388 63725160 64073084 64524888 65111896 65839840 
731.853 66693464 67647800 68682864 69789968 70975976 72256008 73646160 
735.228 75153624 76776016 78505512 80338824 82285656 84373944 86642912 
738.603 89136312 91891352 94928568 98256016 101875096 105791712 110026264 
741.978 114617752 119618936 125103640 131167992 137937696 145591056 
744.870 154341696 164393216 175859632 188629552 202237712 215696832 
747.763 227598688 236259648 240070592 238126080 230533344 218528464 
750.656 204027504 189255760 176234032 166321376 160275136 158161056 
753.548 159503728 163412160 168796864 174623056 179943248 184081968 
756.441 186650112 187467136 186511712 183830800 179489680 173557312 
759.334 166130208 157378624 147569536 137085936 126422672 116092144 
762.227 106610136 98426680 91836744 86988488 83847696 82224952 81800488 
765.601 82187960 83019680 83951320 84720064 85155288 85154000 84685672 
768.976 83777008 82507888 80998760 79395200 77857704 76519624 75474176 
772.351 74763136 74377944 74279136 74417824 74757976 75279272 75974344 
775.726 76838016 77856552 79006480 80262600 81606128 83032840 84551320 
779.101 86174832 87907880 89739440 91640664 93575768 95514000 97436536 
782.475 99338808 101223336 103087344 104913992 106670400 108311992 109796840 
785.850 111091640 112176072 113040744 113678168 114075416 114213360 
788.743 114068784 113622848 112869312 111816376 110484240 108895960 
791.636 107073128 105031496 102782872 100343312 97736792 94995776 92158912 
795.010 89259232 86319552 83352712 80366088 77373056 74402960 71498416 
798.385 68713952 66102580 63700484 61526260 59580624 57854056 56335908 
801.760 55017596 53891912 52945436 52155448 51490240 50912400 50390544 
805.135 49905852 49452516 49034740 48658172 48323704 48026204 47758976 
808.510 47522404 47330040 47211560 47208348 47361412 47704868 48256160 
811.885 49012336 49946852 51007412 52118760 53173180 54042808 54598792 
815.259 54720172 54330872 53416112 52029776 50282688 48318408 46291644 
818.634 44326472 42509900 40889504 39478692 38273168 37260220 36424752 
822.009 35747032 35201500 34759876 34392504 34076756 33802284 33569828 
825.384 33385548 33253606 33170018 33121526 33092134 33068534 33048368 
828.759 33039178 33055518 33108652 33201814 33327912 33474154 33628972 
832.133 33787420 33953596 34136216 34342472 34572904 34820400 35074396 
835.508 35328072 35582396 35847492 36137484 36465216 36835972 37246936 
838.883 37691244 38163860 38666260 39207640 39800172 40453480 41170936 
842.258 41948808 42780644 43663580 44601584 45605908 46690036 47861472 
845.633 49116988 50439368 51801472 53167192 54495556 55744432 56862428 
849.008 57793188 58479388 58865744 58916404 58626652 58030840 57199424 
852.382 56227240 55222420 54278040 53464264 52823728 52369396 52094176 
855.757 51975960 51986676 52092572 52258428 52454520 52656944 52853888 
859.132 53047372 53250336 53481952 53760376 54099212 54505624 54982128 
862.507 55530204 56151252 56843620 57596220 58382084 59153000 59838040 
865.882 60357484 60631400 60593188 60207840 59474488 58429688 57137856 
869.256 55688376 54183024 52719004 51391580 50278816 49434248 48891064 
872.631 48659140 48733788 49104004 49762180 50709928 51961020 53538168 
876.006 55469284 57782436 60495296 63606224 67077076 70823720 74694696 
879.381 78462832 81860016 84580256 86338672 86940800 86308200 84517584 
882.756 81778528 78420440 74820120 71327304 68256120 65827696 64171484 
886.131 63347868 63354844 64149052 65650912 67754520 70318888 73153680 
889.505 76036552 78700152 80847944 82212456 82568192 81783808 79852272 
892.880 76893272 73139768 68877776 64429024 60082404 56048588 52468092 
896.255 49395672 46823800 44706760 42984832 41599404 40494652 39622996 
899.630 38940488 38403460 37975888 37628944 37343408 37110168 36924128 
903.005 36779676 36668076 36576692 36493184 36410448 36328772 36255432 
906.379 36199856 36169388 36165572 36183648 36216060 36257228 36305892 
909.754 36365588 36440460 36532720 36639020 36752592 36866200 36976152 
913.129 37085052 37200764 37332792 37487076 37664028 37858704 38064492 
916.504 38276784 38496240 38727764 38977568 39249200 39540748 39845604 
919.879 40156084 40467880 40782088 41104968 41445368 41811356 42207444 
923.254 42636424 43102272 43613132 44181332 44820476 45536688 46320948 
926.628 47142712 47954488 48693052 49294484 49710240 49913544 49907972 
930.003 49724100 49416948 49053216 48699016 48418744 48263196 48266788 
933.378 48450380 48818760 49364152 50067940 50903236 51835412 52819540 
936.753 53806692 54742608 55574940 56266388 56800568 57190916 57478464 
940.128 57729416 58021940 58426012 58999520 59775068 60760004 61940292 
943.502 63285232 64753324 66288500 67825096 69287080 70586104 71637504 
946.877 72366104 72716360 72664976 72221688 71429048 70349856 69063344 
950.252 67655392 66204324 64786016 63465468 62290240 61293980 60491144 
953.627 59879264 59443976 59164768 59022556 59000772 59088304 59276796 
957.002 59557936 59921980 60359500 60862108 61426172 62053040 62747956 
960.377 63516928 64364152 65291084 66297612 67386184 68565712 69852624 
963.751 71271632 72851104 74616192 76586136 78769504 81163448 83756712 
967.126 86533712 89481672 92595392 95882624 99365592 103077768 107051160 
970.501 111301584 115806056 120489088 125206904 129743592 133852064 
973.394 137263728 139741744 141139232 141419872 140684368 139144144 
976.286 137112368 134940944 132954392 131442592 130598752 130504016 
979.179 131122920 132303032 133796288 135265296 136357040 136737648 
982.072 136133088 134395456 131508920 127595496 122873176 117628984 
984.964 112170832 106764704 101639336 96960048 92819472 89259552 86272464 
988.339 83819080 81838928 80265824 79038432 78099888 77403912 76912928 
991.714 76592384 76413368 76350792 76383464 76496584 76680368 76928392 
995.089 77235920 77596952 78003648 78447864 78922032 79421456 79944712 
998.464 80492496 81065888 81664344 82285376 82924784 83579392 84247608 
1001.839 84930648 85631704 86353664 87098008 87864192 88650864 89458064 
1005.213 90288384 91148248 92045856 92989128 93983304 95029840 96126112 
1008.588 97268088 98451824 99674888 100936184 102235152 103570448 104939256 
1011.963 106338440 107766344 109224432 110718312 112257968 113855768 
1014.856 115524096 117274560 119116656 121058016 123105840 125266496 
1017.748 127546072 129950064 132481920 135142896 137931088 140840096 
1020.641 143856112 146952800 150089728 153202208 156202000 158987664 
1023.534 161442256 163457488 164954928 165895696 166297376 166229680 
1026.427 165812112 165185200 164490096 163857008 163375728 163091808 
1029.320 162999776 163043040 163114672 163060656 162708320 161866080 
1032.213 160350816 158024592 154799680 150664448 145685472 140007184 
1035.106 133834304 127398448 120956008 114742360 108944840 103705264 
1037.999 99094808 95124456 91758976 88935096 86578880 84616016 82984824 
1041.374 81632432 80512952 79589176 78827584 78200608 77688672 77277768 
1044.750 76958576 76724296 76567048 76477816 76448656 76473624 76551472 
1048.125 76685080 76878552 77132856 77442040 77790712 78155104 78506416 
1051.500 78812728 79045432 79181232 79203736 79107248 78897240 78592968 
1054.875 78224808 77833840 77466640 77164480 76962056 76880696 76928392 
1058.250 77103976 77400064 77806888 78309912 78887616 79508472 80124584 
1061.626 80678344 81107696 81351664 81366368 81129584 80643752 79934080 
1065.001 79043800 78028744 76944960 75849640 74794856 73820504 72956528 
1068.376 72218920 71611288 71128208 70760736 70500736 70343704 70288696 
1071.751 70335560 70482464 70723064 71047968 71445368 71906232 72424152 
1075.127 72996000 73619824 74291760 75005376 75753496 76530496 77337264 
1078.502 78182200 79082160 80059600 81136496 82334320 83672016 85166456 
1081.877 86837280 88707720 90803880 93155432 95790576 98732304 101997192 
1085.252 105590616 109504288 113708336 118151112 122752720 127402800 
1088.146 131979760 136354224 140406752 144050880 147231728 149926816 
1091.039 152132576 153845280 155044928 155693632 155742064 155157600 
1093.932 153953232 152215168 150108960 147858704 145740848 144022544 
1096.825 142926944 142618816 143164976 144532672 146578912 149073824 
1099.718 151702416 154082608 155838624 156609968 156109488 154180992 
1102.611 150801536 146092304 140277808 133666816 126596168 119375352 
1105.504 112293576 105577232 99380664 93803768 88884024 84612384 80947976 
1108.879 77832536 75201728 72988592 71132264 69574576 68258480 67133728 
1112.254 66154352 65281264 64486868 63751980 63064916 62419600 61812148 
1115.630 61240444 60704248 60206012 59750584 59344368 58993596 58701520 
1119.005 58467408 58288056 58158672 58075832 58038336 58047048 58103216 
1122.380 58206292 58353428 58539892 58760880 59014244 59301104 59625816 
1125.755 59993608 60409572 60876556 61395792 61968228 62595992 63282816 
1129.131 64033612 64852224 65738984 66689604 67694728 68741592 69813432 
1132.506 70891944 71956792 72984712 73952400 74837640 75623456 76303752 
1135.881 76886352 77395704 77867776 78348968 78889208 79532384 80318288 
1139.256 81278024 82433208 83798672 85381056 87178592 89180048 91365208 
1142.632 93706280 96165632 98700536 101261952 103789576 106216560 108464528 
1146.007 110441472 112054720 113210704 113824248 113835528 113210736 
1148.900 111948152 110075872 107648264 104738528 101427816 97808376 93974384 
1152.275 90013904 86014128 82049688 78180296 74456760 70917024 67590544 
1155.650 64502248 61669448 59101936 56801588 54761588 52968792 51405976 
1159.026 50055816 48900332 47920148 47094740 46399180 45806016 45289264 
1162.401 44825584 44397956 43997484 43620236 43265792 42934168 42624580 
1165.776 42336472 42070272 41829524 41619716 41447372 41317624 41232396 
1169.151 41190680 41189880 41228424 41307200 41429584 41599440 41819196 
1172.527 42088236 42403320 42760316 43157164 43595364 44080616 44620496 
1175.902 45221528 45887840 46620200 47417656 48279304 49206300 50200588 
1179.277 51263300 52391152 53574152 54794552 56030264 57257824 58456452 
1182.652 59612664 60720788 61783496 62810136 63817108 64826220 65862284 
1186.028 66952272 68120392 69381688 70738632 72176696 73665200 75155712 
1189.403 76591192 77912096 79057872 79978568 80635928 81003712 81070520 
1192.778 80836168 80310080 79507072 78445288 77144616 75624760 73910240 
1196.153 72034184 70039616 67986376 65945924 63988572 62180036 60564276 
1199.529 59156644 57945560 56898120 55973576 55130660 54340632 53588848 
1202.904 52873388 52201028 51583136 51032232 50559440 50174220 49883588 
1206.279 49689916 49590960 49579036 49643740 49773776 49960980 50201968 
1209.654 50498060 50853428 51271612 51754700 52302676 52914784 53591996 
1213.030 54338568 55161060 56067476 57064240 58154732 59340000 60620236 
1216.405 61997848 63479192 65074676 66797832 68663464 70684968 72874888 
1219.780 75246048 77812392 80590696 83600040 86858480 90380944 94173992 
1223.155 98233080 102537728 107049976 111713512 116442616 121127600 
1226.048 125630336 129774584 133369728 136211776 138099968 138878624 
1228.941 138448976 136793296 133979928 130158680 125545424 120378824 
1231.834 114922568 109431008 104117752 99168744 94717568 90842224 87580496 
1235.210 84931288 82868360 81348544 80320680 79730840 79520048 79632832 
1238.585 80016456 80621008 81407008 82339680 83386760 84517264 85693376 
1241.960 86868400 87992432 89011064 89874680 90547808 91010288 91261192 
1245.335 91316552 91207720 90975840 90667624 90336760 90036616 89815552 
1248.711 89714552 89757120 89948320 90273128 90702728 91199304 91723040 
1252.086 92241184 92729712 93175184 93575480 93939128 94285000 94640272 
1255.461 95041384 95528912 96139296 96902056 97831120 98921680 100148232 
1258.836 101467072 102821376 104137632 105336032 106332600 107037600 
1261.729 107369800 107259128 106653000 105526864 103884136 101756504 
1264.623 99195216 96268024 93052912 89628152 86079936 82496544 78959944 
1267.998 75550064 72332832 69354320 66646488 64225912 62099024 60267752 
1271.373 58729628 57477144 56496220 55766208 55261932 54956032 54825604 
1274.748 54853084 55026320 55337800 55780032 56344392 57021616 57802576 
1278.124 58681416 59657672 60735004 61920500 63221372 64644604 66196336 
1281.499 67883896 69717952 71712184 73880712 76234592 78774784 81488352 
1284.874 84342400 87288000 90260440 93180760 95969400 98545848 100834024 
1288.249 102773472 104315376 105426328 106089800 106300176 106060064 
1291.142 105373200 104240392 102657576 100620056 98131272 95213512 91915392 
1294.518 88320648 84538512 80694864 76930136 73374776 70148680 67359752 
1297.893 65088192 63391380 62297812 61803628 61874992 62450896 63457488 
1301.268 64807752 66411220 68184424 70040968 71896144 73669872 75278712 
1304.643 76646144 77708768 78415640 78735504 78655000 78176920 77320048 
1308.019 76122096 74651448 73004544 71312472 69734800 68421936 67499456 
1311.394 67031644 66998816 67289952 67714168 68054464 68090624 67661432 
1314.769 66699608 65231784 63368844 61263532 59090280 56998232 55090976 
1318.144 53428436 52024700 50865200 49921832 49167676 48582128 48150756 
1321.520 47863508 47710192 47678500 47756424 47932396 48197660 48546336 
1324.895 48972576 49468592 50022724 50619488 51241116 51871736 52497852 
1328.270 53109820 53702144 54270496 54811620 55323124 55804220 56257336 
1331.645 56688348 57106940 57522988 57945296 58379768 58828752 59292520 
1335.021 59771760 60268512 60787556 61334616 61914504 62530404 63182936 
1338.396 63871756 64597316 65362448 66171600 67030868 67944256 68912576 
1341.771 69933728 71003880 72120240 73282752 74495696 75766872 77106424 
1345.146 78523368 80024624 81613480 83290416 85053672 86901624 88833208 
1348.521 90847736 92943856 95118176 97363232 99668336 102021872 104413512 
1351.897 106839288 109303992 111822672 114417496 117114904 119943704 
1354.790 122930344 126098648 129469440 133054496 136850656 140827952 
1357.683 144927584 149052144 153072896 156860032 160291760 163285936 
1360.576 165815392 167907696 169632176 171072352 172316736 173434896 
1363.469 174472704 175459792 176410832 177329808 178213456 179053840 
1366.362 179843808 180586160 181302752 182040704 182871616 183872320 
1369.255 185115152 186652560 188510272 190695776 193208000 196048768 
1372.148 199223824 202737392 206582704 210729616 215127056 219718880 
1375.041 224465504 229361088 234430544 239709024 245204608 250866144 
1377.934 256553712 262056704 267107664 271404256 274664704 276619264 
1380.827 277018656 275675072 272485280 267495216 260913136 253093872 
1383.720 244442352 235279648 225805648 216058416 205971552 195464512 
1386.614 184539600 173330080 162081152 151075792 140554048 130682856 
1389.507 121549176 113197280 105664192 98970360 93125168 88113040 83883912 
1392.882 80364296 77470592 75133104 73291216 71891096 70876616 70171808 
1396.257 69689864 69354008 69109960 68948840 68908416 69069640 69526592 
1399.632 70357960 71613152 73303928 75418712 77934296 80822680 84037520 
1403.008 87488488 91036152 94470464 97523216 99928632 101448280 101925536 
1406.383 101314168 99668384 97128000 93877064 90138176 86141344 82097920 
1409.758 78213024 74650232 71519040 68880152 66742764 65084876 63872412 
1413.133 63076832 62678784 62661328 63003316 63669600 64611308 65782392 
1416.509 67146216 68688536 70420544 72366416 74542824 76935072 79494224 
1419.884 82151320 84845720 87548032 90259296 92995320 95758896 98521616 
1423.259 101214176 103721040 105914200 107679040 108931560 109627608 
1426.152 109741968 109249872 108123840 106343768 103924080 100929784 
1429.045 97488384 93770552 89946608 86174392 82578616 79247880 76252648 
1432.420 73639600 71427712 69610008 68151552 67003340 66117512 65469304 
1435.796 65068208 64951716 65158784 65697588 66529840 67583648 68776800 
1439.171 70035872 71310168 72562440 73765672 74900312 75947664 76891248 
1442.546 77720288 78429648 79021064 79500072 79872752 80141200 80303104 
1445.921 80354368 80296800 80146504 79941008 79732152 79574248 79508432 
1449.297 79548104 79682704 79888992 80148696 80458600 80832768 81293528 
1452.672 81858056 82525360 83274840 84066984 84856032 85603464 86282208 
1456.047 86885512 87421864 87908408 88351672 88742920 89065848 89309776 
1459.422 89478176 89590032 89673528 89758424 89869464 90021368 90221568 
1462.798 90474880 90788688 91177272 91659520 92253512 92974016 93832024 
1466.173 94837744 96008464 97367088 98935784 100728800 102745552 104972384 
1469.548 107377784 109925952 112575424 115265696 117914528 120406008 
1472.441 122597496 124351072 125560192 126162216 126135992 125483976 
1475.334 124228832 122418728 120134768 117487128 114588760 111539816 
1478.227 108403032 105200584 101935040 98606768 95231048 91850128 88522552 
1481.603 85308336 82256784 79393568 76723392 74238016 71922736 69762584 
1484.978 67745304 65860852 64105004 62480240 60995656 59665616 58504632 
1488.353 57522188 56720252 56095188 55643180 55362716 55254292 55314956 
1491.728 55531068 55876868 56317460 56812424 57327316 57839256 58338988 
1495.104 58831980 59331492 59847248 60374048 60887876 61350300 61724064 
1498.479 61981912 62115768 62136600 62072152 61960472 61841068 61752212 
1501.854 61723412 61770432 61894824 62081096 62299268 62503888 62645256 
1505.229 62684448 62614172 62476264 62355068 62342256 62484104 62770164 
1508.604 63151472 63572200 63986652 64365960 64700788 64993740 65256460 
1511.980 65503588 65749356 66003592 66270092 66545600 66822216 67090996 
1515.355 67345712 67590968 67843768 68133800 68490328 68930160 69448624 
1518.730 70019712 70603104 71155336 71649696 72089072 72513968 72982008 
1522.105 73544184 74214392 74966424 75749312 76509904 77212248 77840776 
1525.481 78404488 78927832 79440992 79965864 80512312 81084336 81686576 
1528.856 82330512 83032992 83808392 84661232 85580904 86548832 87546776 
1532.231 88570816 89640904 90801672 92105248 93581032 95226968 97009512 
1535.606 98887344 100820656 102784760 104777536 106807928 108902088 
1538.500 111097672 113442584 115979176 118728096 121692808 124847696 
1541.393 128157664 131599616 135161072 138841552 142640224 146542320 
1544.286 150503568 154447232 158282928 161918048 165274960 168297536 
1547.179 170923856 173075728 174665856 175605120 175854464 175454672 
1550.072 174530784 173237248 171689376 169927264 167913472 165583872 
1552.965 162917424 159988592 156975072 154111440 151576752 149435360 
1555.858 147607856 145907648 144080208 141869984 139113920 135831280 
1558.751 132293064 128926176 126092760 123911256 122282144 121004560 
1561.644 119882864 118763192 117521312 116066296 114343720 112350312 
1564.537 110141360 107817896 105495184 103245792 101076456 98922296 96677056 
1567.912 94229768 91515880 88556840 85468016 82423752 79583992 77045616 
1571.288 74822256 72869680 71119776 69507072 67977384 66489296 65012792 
1574.663 63536836 62088244 60745596 59633648 58891624 58615464 58836720 
1578.038 59534148 60663596 62189020 64096896 66398792 69120368 72287864 
1581.413 75912776 79976976 84423120 89155912 94024080 98826032 103330656 
1584.789 107271552 110399256 112516864 113489264 113273568 111919824 
1587.682 109581424 106496896 102975320 99377128 96032600 93226840 91173872 
1591.057 89994016 89740704 90409304 91957816 94314080 97385992 101073656 
1594.432 105256944 109803832 114581648 119449728 124281592 128973888 
1597.325 133434056 137577600 141311920 144517888 147065792 148832048 
1600.218 149722256 149701264 148796400 147092240 144704528 141773216 
1603.111 138454720 134901216 131268400 127695472 124281328 121086960 
1606.004 118129152 115392392 112847016 110465184 108232448 106145264 
1608.897 104205776 102412048 100754416 99218288 97791904 96472320 95266816 
1612.273 94185808 93233080 92393880 91631624 90888912 90104008 89226424 
1615.648 88246144 87210432 86222800 85406136 84847776 84576232 84559568 
1619.023 84734960 85031512 85391704 85780848 86184448 86610432 87083912 
1622.398 87643336 88327920 89169184 90185312 91375880 92726840 94214816 
1625.774 95812304 97487424 99205216 100933544 102643856 104316768 105945488 
1629.149 107533728 109092408 110634000 112171296 113716040 115281984 
1632.042 116884208 118541904 120280464 122131968 124140016 126360384 
1634.935 128862112 131703168 134915136 138498656 142415248 146622992 
1637.828 151093856 155820928 160815856 166100512 171700736 177628816 
1640.721 183877136 190422096 197215680 204197360 211310144 218486512 
1643.614 225671472 232834416 239967440 247101632 254292720 261604912 
1646.507 269045056 276542944 283966080 291156576 297989440 304385632 
1649.400 310304800 315661824 320248768 323696608 325371744 324477440 
1652.293 320398176 313244480 304139200 294643232 285867424 278038080 
1655.187 270803232 263625472 256089680 247988448 239318256 230214752 
1658.080 220872112 211483424 202151424 192894752 183670384 174409520 
1660.973 165066464 155652800 146253744 137027456 128179240 119912080 
1663.866 112380400 105655448 99718320 94485088 89831808 85625856 81753168 
1667.241 78139360 74762816 71657664 68897120 66563636 64714900 63364432 
1670.616 62482420 62010156 61886536 62057240 62481084 63134304 64009844 
1673.991 65119712 66492772 68165864 70165576 72489336 75114512 78012088 
1677.367 81166888 84586136 88293120 92312280 96639688 101237016 106040144 
1680.742 110973760 116002464 121151944 126514312 132229208 138429200 
1683.635 145149776 152228800 159329728 166060832 172117520 177329488 
1686.528 181612768 184923040 187201712 188394288 188472064 187433936 
1689.421 185318944 182202880 178209232 173508448 168305296 162823696 
1692.314 157228000 151575712 145796016 139699056 133064296 125793816 
1695.207 118069352 110387632 103381184 97494184 92824976 89142944 86067528 
1698.583 83200792 80272528 77238264 74298320 71786016 69936720 68744040 
1701.958 67990408 67396592 66702312 65725996 64355700 62534764 60263640 
1705.333 57595428 54631292 51494940 48314592 45205200 42248160 39494116 
1708.708 36957716 34621520 32451260 30414518 28497342 26710174 25079352 
1712.083 23626488 22353168 21231838 20214952 19250834 18309104 17390688 
1715.459 16522810 15738562 15054232 14456439 13913622 13399025 12913401 
1718.834 12486833 12157683 11946642 11842232 11805460 11784079 11736384 
1722.209 11643222 11517211 11391168 11301957 11267100 11276349 11298080 
1725.584 11298658 11260333 11188217 11104791 11034467 10989267 10961164 
1728.960 10928238 10868711 10776076 10663389 10556436 10475406 10423035 
1732.335 10376678 10299413 10159343 9958186 9739400 9569295 9494342 9515611 
1736.192 9595444 9680952 9728116 9711513 9633589 9519098 9404030 9315225 
1740.050 9258019 9216252 9166605 9094327 9001561 8903504 8817677 8751610 
1743.907 8697554 8635899 8547117 8424196 8275813 8123631 7988378 7881001 
1747.765 7794431 7709665 7605089 7471177 7316109 7163354 7038367 6955601 
1751.622 6912237 6892577 6879515 6864703 6850869 6846931 6859553 6886080 
1755.479 6913415 6923852 6906043 6862684 6811757 6775408 6769821 6794356 
1759.337 6833096 6861472 6859452 6822022 6763729 6711333 6689831 6710122 
1763.194 6763864 6831009 6891230 6934591 6963311 6987385 7016714 7053521 
1767.052 7090062 7114345 7116534 7097943 7070326 7049715 7046583 7059179 
1770.909 7072582 7067867 7032979 6973580 6912136 6874769 6877596 6917523 
1774.767 6976038 7029173 7060391 7066285 7057730 7050961 7059179 7083527 
1778.624 7113469 7132163 7127818 7101412 7068036 7048840 7058337 7097168 
1782.481 7150587 7198017 7222105 7218500 7198051 7180904 7184273 7213986 
1786.339 7261995 7312672 7352369 7376734 7391968 7409763 7439053 7479266 
1790.196 7518945 7540825 7532936 7496695 7449940 7416807 7416234 7450682 
1794.054 7506538 7562672 7602189 7620432 7624714 7629267 7645891 7677525 
1797.911 7716006 7747509 7760226 7752299 7733343 7720020 7725687 7753581 
1801.769 7795376 7836938 7866999 7883835 7895037 7913495 7948488 8000022 
1805.626 8058986 8111546 8148007 8167927 8180115 8198214 8232959 8285032 
1809.483 8345624 8401089 8441629 8467205 8488322 8519340 8570570 8642118 
1813.341 8724497 8803543 8869212 8921396 8969831 9029063 9109248 9211007 
1817.198 9323249 9429763 9516423 9578948 9622918 9660420 9700298 9743873 
1821.056 9782979 9805651 9802262 9771626 9720594 9661742 9606352 9558862 
1824.913 9516863 9474157 9427732 9379854 9337975 9308489 9292172 9281408 
1828.771 9263739 9227726 9172358 9109045 9058733 9039924 9059140 9107692 
1832.628 9166300 9214661 9239606 9241332 9231348 9226541 9238319 9267699 
1836.485 9304799 9336451 9353683 9358220 9361199 9377383 9416320 9476088 
1840.343 9544399 9604285 9642770 9655745 9649477 9636603 9629658 9634368 
1844.200 9648223 9664791 9680782 9699383 9729404 9778269 9847170 9928488 
1848.058 10008941 10075505 10122068 10152932 10180135 10217585 10271389 
1851.433 10339045 10409698 10471741 10519262 10555859 10591676 10637956 
1854.808 10698876 10769044 10834808 10883015 10907171 10911283 10907138 
1858.183 10907375 10918010 10935374 10948489 10946247 10925655 10894431 
1861.559 10868236 10861951 10882744 10925791 10977543 11022708 11052209 
1864.934 11067639 11078550 11095104 11121754 11152927 11176453 11181417 
1868.309 11167070 11145550 11137799 11163500 11229050 11324776 11429742 
1871.684 11523233 11591731 11634611 11661090 11683861 11710887 11740503 
1875.060 11763685 11770052 11756162 11728077 11699688 11684746 11690940 
1878.435 11714257 11743465 11765626 11775363 11776758 11782036 11803246 
1881.810 11845467 11902845 11962615 12011527 12044399 12066237 12090834 
1885.185 12132060 12195201 12274473 12354679 12420445 12462929 12485298 
1888.561 12500132 12523868 12567420 12631137 12706803 12783609 12855856 
1891.936 12925178 12998711 13082978 13178363 13277150 13366665 13436308 
1895.311 13484225 13519363 13557169 13610979 13686372 13777545 13872671 
1898.686 13960256 14037147 14109876 14192203 14296015 14424788 14570730 
1902.062 14718846 14854944 14971570 15071487 15163637 15255258 15346109 
1905.437 15425546 15477700 15489958 15460360 15401205 15332276 15275404 
1908.812 15243796 15237310 15246370 15259239 15269809 15281478 15303615 
1912.187 15345628 15410097 15490508 15574470 15650617 15713688 15768178 
1915.563 15823603 15888555 15965067 16046679 16123254 16187321 16241010 
1918.938 16294640 16362242 16451776 16560020 16673075 16772386 16845780 
1922.313 16892006 16924286 16961908 17022034 17108084 17210598 17311064 
1925.688 17394208 17455048 17502134 17551846 17619334 17709542 17815512 
1929.063 17921194 18011774 18082236 18139514 18198212 18271330 18363022 
1932.439 18464792 18562404 18642502 18702066 18749976 18802428 18873710 
1935.814 18966740 19072220 19173464 19255440 19312526 19351082 19383924 
1939.189 19422072 19466358 19505966 19524266 19508670 19459322 19391650 
1942.564 19328286 19290148 19284120 19302062 19326624 19343044 19347860 
1945.940 19351360 19371002 19420514 19501600 19601420 19700050 19779144 
1949.315 19832654 19868344 19902164 19947780 20007836 20072826 20127726 
1952.690 20160942 20174098 20181212 20202248 20251436 20327854 20415500 
1956.065 20489894 20532342 20538874 20522614 20506464 20511710 20544674 
1959.441 20594910 20642580 20671458 20680422 20684938 20708606 20770086 
1962.816 20873082 21003786 21138460 21255602 21348344 21425614 21504988 
1966.191 21601370 21715432 21832312 21930856 21993348 22018026 22017816 
1969.566 22015098 22025242 22050060 22075090 22080808 22053582 21995998 
1972.942 21927268 21872974 21852660 21868340 21904440 21937862 21953336 
1976.317 21951210 21949712 21971006 22029528 22120066 22220872 22303880 
1979.692 22350342 22359692 22347866 22337540 22342634 22363564 22386484 
1983.067 22393462 22374028 22332762 22287938 22263420 22274616 22321946 
1986.443 22391228 22462508 22521552 22567096 22609886 22664724 22739540 
1989.818 22828130 22912336 22970670 22990760 22975702 22943914 22917856 
1993.193 22913874 22933050 22963440 22987510 22994950 22989152 22985658 
1996.568 23003232 23052494 23129964 23218212 23296480 23350672 23381968 
1999.944 23405290 23441624 23503040 23587760 23678900 23755082 23801072 
2003.319 23816472 23816122 23822212 23851230 23904090 23966480 24015888 
2006.694 24035814 24022752 23987594 23949218 23921560 23906610 23893972 
2010.069 23869328 23825816 23769816 23720228 23696818 23711968 23760964 
2013.445 23826238 23884906 23922470 23938856 23948484 23969528 24012630 
2016.820 24073076 24133916 24174408 24182604 24163198 24135246 24124072 
2020.195 24146068 24202260 24277830 24352506 24409878 24447066 24473954 
2023.570 24506100 24555288 24620508 24690718 24749642 24787704 24804962 
2026.946 24811630 24818926 24833134 24848852 24853624 24835098 24791106 
2030.321 24732596 24680302 24654418 24663572 24702010 24751012 24791140 
2033.696 24810190 24809768 24801980 24799876 24808050 24820470 24822118 
2037.071 24801524 24756132 24697276 24643828 24613494 24611742 24630046 
2040.447 24648526 24648070 24619456 24568086 24510798 24466102 24445806 
2043.822 24448294 24461790 24471570 24468942 24455866 24442932 24441704 
2047.197 24458810 24490464 24526084 24553150 24564404 24560618 24548662 
2050.572 24535550 24524332 24513566 24499124 24480544 24463612 24460002 
2053.948 24481104 24533026 24610410 24698012 24775882 24828820 24853378 
2057.323 24858536 24859870 24873096 24905132 24951734 25000552 25038740 
2060.698 25059870 25066926 25069594 25077632 25095008 25117828 25135628 
2064.073 25138296 25122358 25092798 25061556 25040740 25036986 25048884 
2067.448 25069068 25088408 25101574 25109226 25115898 25125938 25139348 
2070.824 25151250 25153674 25141316 25114422 25080194 25048006 25026490 
2074.199 25017574 25017294 25017188 25011082 24998306 24983986 24976124 
2077.574 24979634 24993252 25008168 25013398 24999288 24964332 24914608 
2080.949 24861448 24814856 24780196 24755114 24733684 24709936 24682300 
2084.325 24654700 24634184 24626048 24630398 24641618 24650842 24650772 
2087.700 24638568 24617352 24592806 24569664 24548906 24526364 24497264 
2091.075 24459442 24416398 24377844 24353698 24350824 24367750 24395684 
2094.450 24421620 24434378 24429786 24411912 24389130 24369152 24355274 
2097.826 24344094 24329342 24305478 24272366 24234876 24200716 24175670 
2101.201 24159800 24148066 24132898 24109536 24078610 24046320 24021386 
2104.576 24009586 24010916 24018726 24024082 24020580 24007694 23990922 
2107.951 23978422 23976320 23985108 23999324 24010812 24013716 24007870 
2111.327 23998694 23993616 23997398 24008886 24020966 24024362 24012666 
2114.702 23985844 23951074 23918654 23896704 23887742 23886972 23886832 
2118.077 23879584 23863552 23841954 23821756 23808808 23803766 23802086 
2121.452 23796242 23780562 23754348 23722852 23694332 23676522 23671412 
2124.828 23676242 23684256 23689224 23689084 23686004 23684220 23686810 
2128.203 23692584 23696782 23693704 23681106 23662352 23646816 23645486 
2131.578 23665254 23706300 23761102 23819202 23871324 23914978 23954050 
2134.953 23996558 24048596 24110306 24176124 24237538 24288728 24328782 
2138.329 24362004 24395124 24431258 24467960 24497020 24510062 24503400 
2141.704 24481630 24456112 24438620 24437920 24453166 24476968 24498878 
2145.079 24513148 24521912 24534498 24561598 24608234 24669780 24733508 
2148.454 24784160 24811208 24814294 24802542 24788546 24781390 24781318 
2151.830 24781072 24770900 24745750 24708744 24670482 24644038 24636322 
2155.205 24643828 24655716 24660942 24657504 24657434 24683072 24757500 
2158.580 24890712 25072436 25273730 25458954 25600956 25689288 25730876 
2161.955 25741634 25736642 25724126 25704508 25675016 25636244 25594596 
2165.331 25561172 25545394 25548592 25561664 25568060 25552948 25508814 
2168.706 25440018 25360344 25287006 25230466 25192366 25164348 25135276 
2172.081 25097924 25052042 25004168 24962928 24931766 24907132 24879132 
2175.456 24838080 24780196 24711094 24643442 24588984 24553782 24533552 
2178.832 24516932 24490536 24447630 24390390 24329868 24278916 24244826 
2182.207 24226186 24214100 24198160 24172060 24137906 24104002 24080536 
2185.582 24071710 24074932 24080432 24078890 24065686 24044252 24023872 
2188.957 24015292 24024186 24048526 24079416 24106664 24123056 24127646 
2192.333 24124142 24116962 24107364 24091254 24062150 24015014 23950830 
2195.708 23877450 23807582 23751828 23714768 23693458 23679146 23663402 
2199.083 23642476 23619946 23603748 23601718 23617114 23645382 23678272 
2202.458 23707490 23729780 23748364 23770692 23803802 23850006 23904230 
2205.833 23957446 24001110 24031400 24051398 24067928 24088312 24115210 
2209.209 24145964 24174232 24194866 24207164 24216202 24230602 24255722 
2212.584 24291986 24332074 24365614 24382856 24380192 24361828 24337226 
2215.959 24315640 24302010 24294090 24285400 24269492 24243704 24210876 
2219.334 24178050 24151848 24134160 24121340 24105544 24080256 24042992 
2222.710 23997014 23949498 23907382 23873388 23845208 23816716 23782800 
2226.085 23742274 23699302 23660566 23631246 23611900 23596750 23577370 
2229.460 23546028 23500520 23444632 23387560 23337770 23300468 23274946 
2232.835 23256420 23239394 23220694 23200736 23183016 23169908 23161416 
2236.211 23153308 23140204 23117696 23085898 23049210 23013818 22985554 
2239.586 22964838 22949258 22932840 22912022 22887222 22863438 22847652 
2242.961 22844754 22855266 22873916 22892532 22902870 22901858 22890470 
2246.336 22874300 22858618 22846430 22837176 22828166 22816430 22801940 
2249.712 22787412 22777392 22775332 22781128 22791812 22802846 22810706 
2253.087 22815070 22818666 22826278 22840564 22861412 22884918 22906154 
2256.462 22921278 22929452 22932770 22933958 22934482 22932316 22923408 
2259.837 22902766 22868364 22821880 22768732 22714858 22664060 22616028 
2263.213 22567060 22513072 22451936 22386204 22322298 22267710 22227150 
2266.588 22200750 22183872 22169750 22153434 22133628 22112988 22096356 
2269.963 22087084 22085026 22085934 22084678 22077148 22063134 22046156 
2273.338 22031132 22022244 22019734 22020396 22019212 22011996 21998472 
2276.714 21981568 21966300 21956578 21953302 21953858 21953442 21947516 
2280.089 21933576 21912526 21886634 21858304 21828514 21796600 21761170 
2283.464 21721980 21680738 21640304 21604120 21573336 21546524 21520340 
2286.839 21490678 21455898 21417086 21378066 21343124 21315456 21294888 
2290.215 21278394 21261240 21240014 21213606 21183512 21153070 21125032 
2293.590 21100684 21079362 21059082 21038460 21017592 20997596 20980486 
2296.965 20966682 20955382 20944254 20931076 20915604 20899470 20886504 
2300.340 20880732 20884522 20897212 20916124 20937058 20957224 20975688 
2303.716 20993562 21013244 21036338 21062804 21090804 21117934 21142774 
2307.091 21166048 21189806 21217190 21250070 21288278 21329586 21371002 
2310.466 21409708 21444934 21477274 21508400 21539352 21570064 21599280 
2313.841 21625746 21649010 21670396 21692512 21717660 21747200 21779598 
2317.217 21812000 21840952 21864194 21881512 21894720 21906916 21920228 
2320.592 21934482 21947342 21955218 21954346 21942044 21917544 21881128 
2323.967 21834228 21778414 21715990 21650228 21585106 21525912 21477378 
2327.342 21442462 21421332 21410786 21406018 21401804 21394738 21384262 
2330.718 21372464 21361846 21354224 21349666 21346290 21342740 21337762 
2334.093 21332684 21329724 21331186 21338042 21349352 21361882 21373020 
2337.468 21380816 21385202 21387534 21389310 21390840 21390772 21386734 
2340.843 21376640 21360420 21339120 21314654 21287060 21253758 21209326 
2344.219 21147748 21065206 20963866 20852086 20743810 20654082 20595084 
2347.594 20574690 20594146 20650364 20736824 20846070 20970056 21099848 
2350.969 21227592 21344862 21444968 21523824 21581416 21621358 21649846 
2354.344 21673494 21696900 21721458 21745354 21764758 21776532 21778274 
2357.719 21769636 21751138 21723512 21686800 21640790 21585732 21523684 
2361.095 21457814 21392024 21329586 21271574 21217154 21163820 21109378 
2364.470 21053240 20996554 20941752 20890606 20843152 20797196 20749128 
2367.845 20695642 20635110 20567846 20495764 20421264 20345874 20270044 
2371.220 20193570 20116136 20038890 19963564 19892000 19825338 19762670 
2374.596 19702304 19641910 19580068 19517230 19455544 19397542 19345052 
2377.971 19298218 19255232 19213810 19171802 19128862 19086414 19047016 
2381.346 19012744 18984670 18961860 18942478 18924722 18907556 18891844 
2384.721 18878902 18870492 18867412 18869072 18874022 18880806 18888348 
2388.097 18896966 18906864 18918528 18931332 18943756 18954384 18961860 
2391.472 18966602 18969926 18973940 18979858 18987888 18996750 19004470 
2394.847 19009768 19012260 19013332 19014510 19017036 19020946 19024824 
2398.222 19026694 19025102 19019804 19012190 19004020 18997130 18991698 
2401.598 18987162 18982040 18975358 18967328 18958988 18951996 18947496 
2404.973 18945488 18944728 18943756 18941924 18939328 18937320 18937216 
2408.348 18939328 18942616 18944760 18943966 18939984 18934100 18930086 
2411.723 18931262 18939812 18955388 18975324 18996126 19014856 19030466 
2415.099 19043934 19057332 19072288 19089288 19106808 19122976 19136134 
2418.474 19146522 19155318 19164358 19174918 19185862 19194796 19198468 
2421.849 19194970 19183992 19168098 19150678 19135166 19123532 19115950 
2425.224 19110790 19106842 19103240 19100574 19099502 19100436 19102376 
2428.600 19103658 19102134 19097216 19089496 19081464 19075924 19074470 
2431.975 19076962 19080876 19083472 19082224 19076546 19067788 19058234 
2435.350 19049784 19043070 19036836 19028944 19017554 19001978 18983008 
2438.725 18961790 18939396 18915412 18889040 18858934 18824988 18788658 
2442.101 18753334 18722544 18698952 18683006 18673286 18666954 18661282 
2445.476 18654850 18647932 18641292 18636276 18632748 18629772 18626074 
2448.851 18620642 18613552 18606012 18599130 18593700 18588824 18582946 
2452.226 18573990 18561402 18546048 18530246 18516830 18507978 18503864 
2455.602 18503170 18503828 18503794 18502618 18500958 18500162 18501824 
2458.977 18506178 18512576 18519906 18527202 18534222 18541622 18549990 
2462.352 18559984 18571154 18582772 18594462 18606602 18620572 18637936 
2465.727 18659726 18685322 18712822 18738872 18760600 18776410 18787204 
2469.103 18794884 18802152 18810316 18819660 18828274 18834020 18835298 
2472.478 18832012 18825230 18817204 18809522 18803362 18798552 18794852 
2475.853 18791874 18789902 18789176 18789868 18790976 18790870 18788034 
2479.228 18781496 18771842 18761464 18752954 18748422 18748248 18751154 
2482.604 18754510 18756586 18757138 18758004 18761878 18771982 18789384 
2485.979 18813258 18840558 18867826 18892570 18913542 18931402 18947426 
2489.354 18962380 18976398 18988754 18998654 19005924 19011014 19015098 
2492.729 19018800 19021986 19023370 19021744 19016066 19007308 18997512 
2496.104 18989724 18985710 18985812 18988408 18990484 18989862 18985604 
2499.480 18979306 18973386 18970858 18972798 18978508 18985952 18992458 
2502.855 18996578 18998030 18998204 18997892 18997616 18996440 18992736 
2506.230 18985500 18975048 18963902 18955318 18952272 18955630 18964144 
2509.605 18974528 18982316 18984738 18980342 18969994 18955560 18939086 
2512.981 18921988 18904544 18887068 18869834 18853674 18839140 18826856 
2516.356 18815852 18804504 18790870 18773746 18753610 18732368 18712996 
2519.731 18697498 18686638 18679130 18672628 18664604 18653742 18640150 
2523.106 18625278 18610440 18596190 18581944 18566486 18548848 18529036 
2526.482 18508462 18488580 18470704 18454214 18437204 18417222 18391884 
2529.857 18361328 18327180 18292964 18261792 18235184 18212828 18192374 
2533.232 18171402 18147942 18121686 18093706 18065242 18037128 18009254 
2536.607 17980520 17950062 17918052 17885596 17854764 17827490 17803946 
2539.983 17783200 17762870 17740710 17715306 17686972 17657536 17629274 
2543.358 17604118 17582932 17565578 17551364 17539702 17530216 17522660 
2546.733 17516588 17510998 17504342 17495338 17483886 17471192 17459738 
2550.108 17452600 17452186 17458946 17472226 17489508 17508412 17527144 
2553.484 17544982 17562612 17580794 17600184 17621508 17644904 17671028 
2556.859 17700638 17734220 17771428 17810540 17848134 17880726 17905000 
2560.234 17919916 17926684 17929136 17931794 17938322 17950442 17967570 
2563.609 17987808 18008668 18028594 18047522 18066176 18085760 18106418 
2566.985 18127698 18148806 18169120 18188780 18208922 18230416 18254018 
2570.360 18279278 18304748 18328770 18350336 18369726 18388152 18407164 
2573.735 18427698 18449098 18470464 18489376 18504934 18516692 18526096 
2577.110 18534568 18543074 18551580 18558774 18563200 18563926 18561262 
2580.486 18556836 18552444 18549162 18546844 18543800 18538268 18529172 
2583.861 18517002 18504382 18494702 18491208 18495218 18506282 18522120 
2587.236 18539754 18556594 18571292 18583568 18594254 18604458 18614936 
2590.611 18626350 18639528 18654954 18673354 18694628 18718220 18742574 
2593.987 18765788 18786304 18803604 18818274 18831978 18846372 18862048 
2597.362 18878660 18894544 18907658 18916624 18920916 18921400 18919496 
2600.737 18916104 18911744 18905860 18897760 18887344 18875026 18862290 
2604.112 18850628 18841286 18834400 18829452 18825368 18821528 18817756 
2607.488 18814884 18813432 18813604 18814710 18815230 18813706 18809280 
2610.863 18802532 18794400 18786754 18780492 18775820 18772050 18768002 
2614.238 18762812 18756516 18749596 18743196 18737800 18733476 18729392 
2617.613 18724758 18719188 18713030 18707392 18703518 18701962 18702550 
2620.989 18703932 18704694 18703588 18700404 18695320 18689162 18682486 
2624.364 18675014 18666194 18655368 18642398 18628080 18614106 18602242 
2627.739 18593840 18589274 18587996 18588480 18589240 18589380 18588514 
2631.114 18586680 18584468 18582046 18579592 18577482 18576202 18576930 
2634.490 18580732 18588548 18600618 18616458 18634822 18654712 18675152 
2637.865 18696012 18717770 18740948 18766030 18792532 18819762 18846752 
2641.240 18872844 18897658 18921122 18943654 18965148 18985674 19005058 
2644.615 19023820 19042654 19062628 19084994 19110408 19138594 19168270 
2647.990 19197810 19225758 19251180 19273798 19294408 19313530 19331092 
2651.366 19346924 19359916 19369236 19374640 19376546 19376096 19374640 
2654.741 19372874 19371036 19368646 19365114 19360192 19354754 19350250 
2658.116 19348344 19350768 19358426 19371418 19389260 19411194 19436312 
2661.491 19464002 19493732 19524890 19556812 19588802 19620174 19650750 
2664.867 19680598 19710070 19739196 19767942 19795754 19822008 19846076 
2668.242 19867858 19887630 19905666 19922524 19937928 19951630 19963010 
2671.617 19971822 19978240 19983272 19988162 19993958 20001278 20010056 
2674.992 20019668 20029660 20039964 20050998 20064046 20080044 20099824 
2678.368 20123388 20150148 20178886 20208600 20238418 20267962 20297158 
2681.743 20325734 20353860 20381432 20408588 20435642 20463114 20491632 
2685.118 20521504 20552734 20584834 20617632 20650468 20683826 20718370 
2688.493 20755210 20795146 20838562 20885252 20934622 20985668 21038076 
2691.869 21091744 21147192 21205394 21267364 21334352 21407236 21486676 
2695.244 21573372 21667296 21768068 21874682 21985748 22099704 22215362 
2698.619 22331714 22448794 22566780 22685880 22805850 22925574 23043236 
2701.994 23156104 23262292 23359378 23445960 23521156 23584122 23634362 
2705.370 23671902 23696712 23709834 23712740 23707456 23695838 23679250 
2708.745 23659202 23636110 23610500 23583002 23554492 23526298 23499576 
2712.120 23475512 23454248 23436238 23421482 23410466 23404066 23402842 
2715.495 23407492 23417564 23432358 23450472 23470580 23492440 23516400 
2718.871 23543230 23574046 23609066 23647586 23688104 23728836 23768312 
2722.246 23806180 23842620 23878640 23914698 23950234 23984268 24014838 
2725.621 24040226 24059348 24072586 24080992 24086176 24089956 24093704 
2728.996 24098012 24103372 24109712 24116926 24124668 24132338 24138888 
2732.372 24143442 24145264 24144528 24142006 24139098 24137206 24137312 
2735.747 24139344 24142392 24145440 24147436 24148346 24149222 24151288 
2739.122 24156368 24165790 24179978 24199036 24222402 24249976 24281862 
2742.497 24318126 24359270 24405428 24456566 24511990 24571488 24634500 
2745.873 24700644 24769742 24841204 24914256 24987812 25061028 25133452 
2749.248 25205498 25278296 25353388 25432254 25515770 25604682 25698638 
2752.623 25797326 25900398 26007644 26118930 26234082 26352712 26474404 
2755.998 26598488 26724408 26852020 26981150 27111976 27244182 27377488 
2759.374 27511152 27644716 27777966 27910942 28043922 28177260 28310710 
2762.749 28443742 28575046 28703520 28828070 28948332 29064340 29176590 
2766.124 29285534 29391246 29493366 29591324 29684088 29770982 29851612 
2769.499 29926008 29994632 30057938 30116992 30172822 30226742 30279888 
2772.875 30333180 30386906 30441172 30495302 30548872 30601878 30655104 
2776.250 30710078 30769116 30834208 30907138 30988334 31077802 31174696 
2779.625 31278446 31388346 31504512 31626906 31755396 31889844 32029294 
2783.000 32173100 32320422 32471004 32625068 32783084 32945730 33113192 
2786.375 33285442 33461448 33639996 33818828 33996160 34169552 34337060 
2789.751 34497848 34651272 34798500 34941288 35081792 35222376 35364300 
2793.126 35507996 35652856 35797836 35941640 36083760 36224164 36363280 
2796.501 36501508 36639164 36775312 36909268 37039944 37166832 37290008 
2799.876 37410000 37527712 37643540 37757668 37869620 37978564 38083768 
2803.252 38184520 38280620 38372004 38458372 38539544 38615340 38685636 
2806.627 38750948 38811740 38868516 38921428 38970064 39013448 39050604 
2810.002 39080876 39104588 39123080 39138888 39154844 39173120 39195128 
2813.377 39221352 39251344 39284492 39320440 39358708 39399088 39441464 
2816.753 39485152 39528992 39571924 39612612 39650292 39684420 39714876 
2820.128 39741204 39762768 39778816 39788368 39791344 39787864 39779036 
2823.503 39766472 39751476 39735428 39719052 39702864 39687248 39673200 
2826.878 39661836 39654796 39653524 39659112 39672364 39693348 39722068 
2830.254 39758700 39803728 39857732 39921476 39995660 40080676 40176620 
2833.629 40284108 40403476 40536116 40683464 40847132 41028704 41229188 
2837.004 41448940 41687732 41945120 42220148 42512496 42821968 43149220 
2840.379 43495036 43861108 44248944 44660080 45095424 45555200 46038556 
2843.755 46543440 47067004 47604700 48150644 48697608 49235620 49752592 
2847.130 50234996 50666436 51031076 51313528 51500200 51582356 51555268 
2850.505 51420260 51182732 50853092 50444688 49971536 49448172 48887944 
2853.880 48301192 47696472 47079340 46453680 45821924 45186268 44548968 
2857.256 43912792 43280692 42655544 42040452 41437712 40850188 40280836 
2860.631 39733288 39211448 38719720 38261408 37838744 37452216 37101216 
2864.006 36784436 36500352 36248008 36027020 35837596 35679328 35551360 
2867.381 35451836 35377960 35326740 35294752 35279516 35278652 35290440 
2870.757 35312760 35343632 35380512 35420956 35462228 35502100 35539136 
2874.132 35572760 35603400 35632104 35660592 35690484 35723432 35760200 
2877.507 35801396 35846660 35895604 35947544 36002220 36059280 36118508 
2880.882 36179688 36241924 36304488 36366200 36425904 36482552 36536036 
2884.258 36585992 36632640 36676260 36717112 36755228 36790964 36824936 
2887.633 36857648 36890080 36923116 36957028 36991668 37026268 37059684 
2891.008 37090824 37118792 37143264 37164556 37183112 37199248 37213180 
2894.383 37224876 37234152 37240980 37245528 37248596 37251084 37254480 
2897.759 37260112 37268956 37281700 37298380 37318636 37342180 37368684 
2901.134 37398008 37430944 37468216 37511096 37560800 37618680 37685316 
2904.509 37761828 37849196 37949308 38064712 38198988 38356476 38542260 
2907.884 38761092 39017728 39316628 39661328 40054736 40498108 40991268 
2911.260 41531076 42111452 42723612 43355740 43993672 44623580 45230648 
2914.635 45801120 46323752 46788336 47187628 47516748 47773768 47959556 
2918.010 48077500 48133428 48134612 48089048 48004924 47889220 47747584 
2921.385 47583956 47400064 47195900 46969272 46717300 46436276 46122376 
2924.760 45772988 45386588 44963624 44505576 44015376 43496832 42954068 
2928.136 42392324 41817848 41237900 40661812 40099576 39561656 39058472 
2931.511 38598572 38188208 37831628 37530168 37283216 37088512 36942312 
2934.886 36839472 36774088 36739900 36730452 36739540 36762008 36793344 
2938.261 36829984 36868936 36907680 36944296 36977560 37006964 37033448 
2941.637 37057844 37082164 37107568 37135396 37166112 37200224 37238560 
2945.012 37282460 37333840 37395300 37470060 37560692 37669956 37799704 
2948.387 37951224 38124572 38318184 38528572 38749028 38970064 39180152 
2951.762 39366000 39514764 39615552 39659952 39643212 39564052 39424336 
2955.138 39228240 38981228 38690960 38364872 38011724 37640796 37260400 
2958.513 36878680 36502624 36137268 35786536 35452736 35137224 34840540 
2961.888 34562608 34302848 34060344 33833624 33621448 33422190 33234506 
2965.263 33057164 32889150 32729634 32577888 32433372 32295652 32164146 
2968.639 32038354 31917482 31800992 31688276 31579368 31474728 31375666 
2972.014 31283784 31200790 31128274 31067018 31017550 30979936 30954316 
2975.389 30941436 30942254 30958016 30989614 31037442 31100760 31178504 
2978.764 31269222 31371464 31484454 31607806 31741172 31884316 32036356 
2982.140 32195974 32361400 32530568 32701050 32870170 33034958 33191584 
2985.515 33336316 33465564 33576024 33665988 33734740 33783016 33811884 
2988.890 33823020 33817400 33795692 33758088 33704304 33634268 33548172 
2992.265 33447060 33332560 33207606 33076398 32943942 32815922 32697980 
2995.641 32594282 32507210 32436978 32381892 32339376 32307074 32283980 
2999.016 32270596 32268848 32280874 32308072 32350548 32406594 32473576 
3002.391 32548354 32628320 32711662 32797520 32885466 32974936 33065602 
3005.766 33156786 33248064 33339288 33431030 33523794 33618372 33715188 
3009.142 33814172 33915372 34018736 34124104 34231644 34341112 34451792 
3012.517 34562500 34671832 34778396 34881540 34981584 35079712 35177716 
3015.892 35277320 35379756 35485560 35594520 35706128 35819712 35934944 
3019.267 36051468 36169388 36289072 36410516 36534196 36660432 36789592 
3022.643 36921712 37056436 37192136 37327012 37458936 37586164 37708080 
3026.018 37825044 37938644 38050856 38163212 38276352 38389956 38503120 
3029.393 38614972 38724972 38833912 38942988 39053836 39167644 39284600 
3032.768 39404532 39526124 39648624 39771412 39894852 40019748 40147400 
3036.144 40279312 40416968 40561652 40714540 40876652 41048516 41230356 
3039.519 41421384 41620664 41826604 42037276 42251156 42466676 42682336 
3042.894 42896096 43105200 43305476 43492252 43660244 43804916 43923716 
3046.269 44016296 44085348 44136032 44174988 44209068 44244064 44284204 
3049.645 44331756 44387132 44449928 44519348 44594752 44675836 44762404 
3053.020 44854020 44949624 45047604 45146268 45243848 45339396 45432824 
3056.395 45524324 45614672 45704148 45792320 45878668 45962232 46042684 
3059.770 46120276 46196184 46272000 46348892 46427644 46508000 46589032 
3063.146 46669856 46749552 46828008 46905740 46982932 47059952 47136176 
3066.521 47210416 47281236 47347520 47408676 47465112 47517928 47568244 
3069.896 47617456 47666296 47715368 47765040 47815824 47868388 47923480 
3073.271 47982020 48044596 48111736 48183700 48260716 48342888 48430076 
3076.646 48521768 48616740 48713440 48810084 48904820 48996908 49086156 
3080.022 49173204 49259260 49344852 49429868 49513192 49592448 49664840 
3083.397 49727440 49777900 49814648 49837540 49847572 49846720 49838580 
3086.772 49827060 49816172 49809372 49809336 49817212 49832896 49855528 
3090.147 49884664 49919904 49962128 50012392 50071916 50141124 50219336 
3093.523 50305116 50396500 50491844 50590412 50692576 50799008 50910276 
3096.898 51025856 51144004 51261512 51374908 51480916 51577540 51663892 
3100.273 51740924 51810468 51874648 51936148 51996948 52059172 52124436 
3103.648 52194640 52270988 52354852 52447044 52547888 52657320 52774940 
3107.024 52900260 53032620 53172132 53319748 53478092 53651304 53845848 
3110.399 54070428 54334176 54647336 55020188 55460928 55977648 56576688 
3113.774 57263380 58042276 58916632 59887024 60950592 62098640 63314708 
3117.149 64571476 65832132 67049040 68163456 69114120 69839192 70281368 
3120.525 70399104 70167792 69584800 68669280 67461064 66015856 64394400 
3123.900 62662168 60880636 59099620 57362588 55702276 54140984 52695024 
3127.275 51373044 50177528 49105376 48149160 47298452 46540636 45864120 
3130.650 45257972 44712376 44219996 43774828 43371816 43007148 42677108 
3134.026 42378224 42107072 41859952 41632260 41420108 41219424 41026996 
3137.401 40840252 40657812 40478540 40301376 40125340 39949264 39772464 
3140.776 39595480 39419584 39247388 39081388 38923456 38773880 38631164 
3144.151 38492512 38354340 38213500 38068252 37918032 37763452 37606108 
3147.527 37447596 37289716 37133664 36980772 36831896 36687220 36546452 
3150.902 36407996 36269480 36128232 35981772 35828672 35669364 35505196 
3154.277 35338712 35172468 35008124 34846640 34687552 34530208 34373492 
3157.652 34216800 34059840 33902796 33746128 33590340 33435646 33282582 
3161.028 33130966 32980692 32831468 32682546 32533172 32382820 32231018 
3164.403 32078232 31924970 31772402 31621278 31472020 31324774 31179110 
3167.778 31034808 30892016 30751192 30613610 30479664 30350520 30225854 
3171.153 30105060 29986678 29869180 29750864 29630908 29508686 29384438 
3174.529 29258916 29133500 29009644 28889080 28772906 28661542 28554556 
3177.904 28450710 28348448 28246172 28142686 28037524 27930836 27822898 
3181.279 27714002 27604498 27494348 27383488 27272478 27162202 27053540 
3184.654 26947692 26845182 26745866 26648690 26552168 26454578 26354366 
3188.030 26250764 26143246 26032096 25918018 25801898 25685034 25568940 
3191.405 25455020 25344150 25236470 25131380 25027120 24922044 24814576 
3194.780 24703904 24590422 24475356 24360740 24248294 24139168 24033432 
3198.155 23930874 23830228 23730342 23630372 23529552 23427740 23324834 
3201.531 23221534 23118502 23016542 22916458 22818912 22723760 22630446 
3204.906 22538198 22446040 22353238 22260038 22166578 22073626 21981740 
3208.281 21891338 21802418 21715188 21629822 21547220 21468258 21393590 
3211.656 21323250 21256228 21190748 21124718 21056476 20985424 20911848 
3215.031 20836998 20762092 20688066 20615374 20543390 20471382 20399178 
3218.407 20326706 20254214 20182288 20110964 20039896 19968458 19896128 
3221.782 19823048 19749980 19678138 19608908 19543432 19482020 19424358 
3225.157 19369582 19316854 19265000 19213324 19161242 19107950 19053074 
3228.532 18996784 18939812 18883848 18830732 18782118 18738560 18699090 
3231.908 18661490 18622716 18580006 18531836 18478346 18420990 18361674 
3235.283 18302260 18243858 18186672 18130530 18075466 18022102 17971680 
3238.658 17925786 17885284 17850240 17819826 17791830 17764214 17735186 
3242.033 17703710 17669888 17634000 17597010 17559438 17521832 17484094 
3245.409 17445908 17406554 17365204 17320960 17273240 17222214 17168438 
3248.784 17113462 17059182 17006976 16957532 16910438 16864656 16818502 
3252.159 16771214 16722796 16674142 16627079 16582634 16540915 16500989 
3255.534 16460724 16418086 16371738 16321575 16268598 16215008 16162595 
3258.910 16112663 16065659 16021445 15979642 15940111 15902990 15868690 
3262.285 15837520 15809171 15782678 15756978 15730727 15703037 15674148 
3265.660 15644502 15615478 15588585 15565506 15547168 15533878 15524811 
3269.035 15517738 15509359 15495623 15472927 15439108 15393962 15339519 
3272.411 15279591 15218779 15160823 15107851 15059995 15016020 14973902 
3275.786 14932509 14891325 14851276 14813323 14778011 14745103 14713328 
3279.161 14681076 14646975 14610856 14573437 14536193 14500528 14467640 
3282.536 14437701 14410298 14384850 14360636 14337656 14315637 14294371 
3285.912 14273826 14253316 14233219 14213772 14196722 14183576 14175634 
3289.287 14173169 14174812 14177893 14178612 14173853 14161906 14142874 
3292.662 14118810 14092112 14065621 14040365 14016136 13990881 13962206 
3296.037 13927924 13887279 13840858 13791191 13741805 13695844 13656555 
3299.413 13625817 13604175 13591594 13587047 13589167 13597133 13609406 
3302.788 13624860 13641408 13656384 13666574 13668489 13658948 13636040 
3306.163 13599286 13549956 13490411 13424245 13354330 13283572 13213851 
3309.538 13146292 13082023 13021586 12966074 12916132 12871999 12833774 
3312.914 12800706 12771768 12746041 12722703 12701310 12681625 12663851 
3316.289 12647920 12633866 12622233 12613126 12607293 12605178 12607054 
3319.664 12612511 12620699 12630317 12640552 12650615 12660746 12671595 
3323.039 12683604 12696773 12710215 12722157 12731130 12736043 12736691 
3326.415 12734542 12731914 12731471 12734985 12743516 12756823 12773680 
3329.790 12792550 12811865 12830703 12848176 12864012 12877665 12889133 
3333.165 12898383 12905449 12910842 12915176 12918761 12921423 12922277 
3336.540 12919614 12911388 12895687 12870736 12836095 12791833 12739421 
3339.916 12680363 12617117 12551799 12485811 12420376 12355668 12291140 
3343.291 12226178 12160171 12093082 12025357 11958426 11893753 11832937 
3346.666 11776282 11723584 11673581 11624401 11574103 11521123 11464476 
3350.041 11403753 11339061 11270875 11200014 11127464 11054927 10983796 
3353.417 10916175 10853696 10797373 10747748 10704243 10666038 10631538 
3356.792 10599248 10567605 10535184 10500763 10463493 10422798 10379019 
3360.167 10332869 10285673 10239058 10194518 10152932 10115251 10081745 
3363.542 10052988 10029388 10011585 9999753 9993277 9990429 9988225 9983207 
3367.400 9971815 9951473 9921132 9880760 9831816 9776439 9716697 9654423 
3371.257 9591312 9529022 9469315 9414391 9365804 9325415 9293526 9269662 
3375.115 9252400 9239233 9227895 9215846 9200887 9182002 9158213 9129957 
3378.972 9098151 9064316 9030721 8999227 8971421 8948082 8929141 8913380 
3382.829 8899683 8886730 8873676 8860555 8847874 8836715 8828294 8824034 
3386.687 8824778 8831270 8843681 8861197 8882029 8903538 8922072 8934012 
3390.544 8936143 8926807 8905770 8874860 8837086 8795936 8754653 8714964 
3394.402 8677947 8643301 8610347 8578748 8549043 8522483 8500587 8484976 
3398.259 8476361 8473489 8473793 8473590 8468691 8455717 8433082 8401461 
3402.116 8363256 8322522 8283142 8248155 8218878 8194870 8174577 8156481 
3405.974 8139229 8122619 8107359 8094532 8084911 8078463 8074413 8071746 
3409.831 8069147 8065704 8061214 8055206 8047409 8037148 8023782 8006602 
3413.689 7985712 7962054 7937588 7914136 7893721 7877256 7864671 7854819 
3417.546 7846115 7837106 7826715 7814638 7801009 7786503 7772032 7758674 
3421.404 7747408 7739144 7734523 7733241 7734523 7736581 7737491 7735569 
3425.261 7729768 7720121 7707642 7693611 7679447 7665755 7652366 7638540 
3429.118 7623601 7607011 7588769 7569045 7548613 7527676 7506201 7484256 
3432.976 7461974 7440131 7420110 7402921 7389710 7380509 7374644 7370196 
3436.833 7365141 7357558 7346235 7330734 7311391 7288815 7263579 7236255 
3440.691 7207585 7178378 7149813 7123271 7099896 7080193 7063725 7049278 
3444.548 7035235 7019677 7001393 6980079 6956577 6932403 6909745 6890624 
3448.406 6876418 6867363 6862448 6859957 6857567 6853124 6845046 6833063 
3452.263 6817916 6801020 6784528 6769653 6757234 6746600 6736942 6727082 
3456.120 6716347 6704502 6692086 6679636 6667321 6654637 6640640 6624121 
3459.978 6604474 6581867 6557244 6532486 6509581 6489804 6473829 6461251 
3463.835 6451229 6442351 6433775 6424696 6414843 6404049 6392044 6378763 
3467.693 6363935 6347762 6330178 6311754 6292861 6274607 6257665 6243076 
3471.550 6231379 6222841 6216892 6212287 6207481 6200456 6189465 6174005 
3475.407 6154647 6133072 6111666 6092882 6078265 6067917 6060961 6055317 
3479.265 6048899 6040197 6028001 6012916 5995917 5978280 5961014 5944957 
3483.122 5929707 5914592 5898470 5880400 5859746 5836976 5812764 5788654 
3486.980 5766257 5746850 5731205 5719253 5710322 5703104 5696658 5690280 
3490.837 5683901 5677523 5670473 5662148 5651070 5635931 5615960 5591726 
3494.695 5565245 5539438 5517692 5501987 5492893 5489168 5488095 5486753 
3498.552 5483196 5476384 5466620 5454742 5441724 5427666 5412065 5394384 
3502.409 5374927 5354498 5335612 5320820 5312669 5312300 5318874 5330145 
3506.267 5342522 5352619 5357718 5356544 5349332 5338061 5325214 5313575 
3510.124 5305290 5301969 5303277 5308040 5314078 5318908 5320015 5316493 
3513.982 5308007 5295899 5282650 5270777 5263130 5261353 5266518 5278357 
3517.839 5295563 5316191 5337491 5357349 5373149 5383616 5388514 5388682 
3521.697 5386367 5384287 5385025 5390292 5400390 5414178 5429612 5445079 
3525.554 5458970 5470814 5481048 5490544 5499907 5509437 5519001 5528263 
3529.411 5537223 5546250 5556419 5569005 5584745 5603977 5625828 5649291 
3533.269 5672588 5694610 5714183 5730802 5744165 5754640 5762463 5768205 
3537.126 5772973 5777606 5783282 5791508 5803160 5818506 5838118 5861089 
3540.984 5886547 5913013 5938709 5961249 5978381 5987519 5986578 5974720 
3544.841 5952146 5920537 5883255 5844566 5808869 5779655 5759542 5748596 
3548.698 5745272 5746313 5747623 5745272 5736106 5718715 5693771 5663793 
3552.556 5632273 5602702 5577731 5558164 5543230 5531383 5520544 5509135 
3556.413 5496249 5481384 5464170 5444374 5421258 5394486 5364327 5331956 
3560.271 5299588 5270039 5245490 5227314 5214973 5206187 5197233 5183720 
3564.128 5161187 5126116 5076800 5013378 4938302 4857108 4777068 4705885 
3567.986 4650488 4614453 4597944 4597743 4607856 4621687 4633475 4638733 
3571.843 4635518 4623997 4606115 4584181 4560441 4536567 4513097 4489896 
3575.700 4466562 4442895 4418894 4394393 4370093 4346632 4325180 4306507 
3579.558 4292017 4282915 4279134 4279937 4284287 4289641 4294493 4297137 
3583.415 4296835 4293021 4285123 4272073 4251595 4222017 4181970 4132561 
3587.273 4077972 4024795 3981188 3953201 3943939 3952331 3974434 4003426 
3591.130 4032119 4054761 4066534 4064761 4049276 4021552 3985268 3944541 
3594.988 3904285 3869148 3841803 3823953 3814593 3811518 3811485 3810582 
3598.845 3806337 3797546 3784510 3769470 3755199 3744337 3738856 3739424 
3602.702 3745373 3755031 3765860 3774884 3778762 3774350 3759209 3731202 
3606.560 3690733 3639541 3582008 3524082 3471574 3429124 3398334 3377563 
3610.417 3361936 3346142 3325173 3295992 3259068 3217708 3177854 3145279 
3614.275 3125154 3119080 3125287 3139004 3152588 3158796 3150118 3121550 
3618.132 3072394 3006762 2932599 2860484 2801020 2761003 2742497 2742864 
3621.990 2757035 2778810 2803454 2828300 2853213 2879329 2906747 2933533 
3625.847 2953449 2957652 2934300 2873792 2772308 2637810 2490357 2356446 
3629.704 2260711 2214950 2216049 2250553 2301814 2354114 2395792 2421380 
3633.562 2430010 2425312 2412218 2395492 2377901 2360277 2342021 2322333 
3637.419 2301414 2280230 2260345 2242826 2228205 2215849 2204892 2194902 
3641.277 2186043 2179982 2178884 2184245 2196467 2213618 2232068 2246589 
3645.134 2251851 2243225 2217881 2175054 2116183 2044170 1963348 1878116 
3648.991 1794098 1717814 1656909 1619559 1612775 1638250 1693165 1769312 
3652.849 1855022 1936156 1999663 2035881 2039376 2012412 1964513 1911095 
3656.706 1867501 1844906 1846936 1869664 1904706 1942513 1975497 1998897 
3660.564 2011546 2014942 2012512 2007752 2003724 2002659 2005521 2013111 
3664.421 2025561 2042938 2064944 2090779 2118347 2145051 2166995 2180549 
3668.279 2184112 2179749 2175187 2184112 2224275 2309675 2448103 2637343 
3672.136 2867655 3123619 3387214 3639642 3859153 4022856 4111320 4113059 
3675.993 4030180 3876537 3671418 3432497 3174082 2908982 2650177 2412284 
3679.851 2210021 2053558 1945475 1880113 1847002 1833892 1831962 1837087 
3683.708 1849299 1870129 1899181 1931929 1959953 1973134 1961817 1921446 
3687.566 1854456 1770942 1684816 1609815 1554711 1521160 1506464 1506364 
3691.423 1517603 1538850 1569409 1608052 1651787 1695693 1734647 1764122 
3695.281 1781954 1788642 1787178 1782354 1777995 1776332 1777463 1779126 
3699.138 1777895 1770709 1755372 1732085 1703510 1674072 1649426 1634592 
3702.995 1632796 1644437 1668118 1699718 1734780 1769179 1799654 1824509 
3706.853 1843309 1856885 1865471 1869065 1865837 1853025 1827670 1787777 
3710.710 1733682 1669615 1603596 1544436 1502009 1481661 1485085 1509091 
3714.568 1547263 1592189 1636654 1675236 1705173 1726563 1741965 1754607 
3718.425 1767781 1782653 1798823 1813895 1825507 1832295 1834658 1835190 
3722.282 1836787 1841246 1848899 1856686 1860146 1855188 1839915 1816357 
3726.140 1790139 1769511 1763057 1776099 1808837 1856819 1911728 1963781 
3729.997 2003791 2025528 2027059 2010847 1982554 1949469 1915755 1881544 
3733.855 1843409 1796094 1737142 1669216 1601135 1544769 1511485 1505866 
3737.712 1526015 1564554 1612908 1665258 1718845 1774302 1832595 1892026 
3741.570 1945941 1981322 1981489 1931896 1828435 1686479 1539615 1430596 
3745.427 1388113 1415836 1495525 1599106 1698387 1770543 1802649 1792202 
3749.284 1747687 1682388 1612076 1547728 1494927 1455529 1431194 1425144 
3753.142 1440370 1477472 1532765 1598441 1664193 1721240 1762591 1786046 
3756.999 1793532 1789773 1779326 1765486 1749284 1731619 1713988 1700184 
3760.857 1695227 1703044 1724301 1755339 1789307 1817854 1834524 1837053 
3764.714 1828236 1814427 1803580 1800586 1805477 1813462 1817588 1811632 
3768.572 1792368 1761693 1725132 1691302 1667353 1658040 1663861 1682421 
3772.429 1709464 1740435 1771973 1801651 1827969 1850629 1869464 1884306 
3776.286 1894090 1896885 1890396 1872792 1844074 1807107 1767914 1734613 
3780.144 1714454 1711593 1725432 1750648 1780191 1806675 1824842 1833526 
3784.001 1834391 1831197 1827969 1827504 1830199 1835656 1842777 1851561 
3787.859 1862276 1875487 1890861 1906469 1919915 1928535 1931630 1931197 
3791.716 1930565 1934259 1944676 1961118 1979092 1992240 1994437 1982620 
3795.573 1958822 1929833 1905904 1895188 1901544 1921812 1947272 1964846 
3799.431 1961285 1927070 1860146 1768746 1671345 1591424 1548726 1550887 
3803.288 1592887 1659204 1730788 1787344 1814427 1804978 1762824 1701913 
3807.146 1642840 1605126 1599040 1623816 1670114 1726230 1781921 1832195 
3811.003 1876419 1917252 1957158 1995535 2027225 2043637 2035947 1997832 
3814.861 1931730 1848234 1767582 1710762 1691369 1711094 1759863 1820117 
3818.718 1872126 1899314 1890495 1843608 1767815 1681756 1608584 1566350 
3822.575 1562093 1591324 1641543 1697456 1744993 1776631 1789773 1788941 
3826.433 1782686 1780823 1789606 1810069 1837785 1865105 1884738 1891893 
3830.290 1885936 1870862 1853292 1839815 1835623 1842311 1858483 1880412 
3834.148 1903674 1923210 1934159 1931896 1912593 1874688 1819651 1753210 
3838.005 1684882 1625945 1584507 1565386 1567347 1585571 1612642 1641743 
3841.863 1667353 1686479 1698787 1705672 1710462 1716583 1727162 1744327 
3845.720 1768513 1798756 1832728 1868299 1903641 1938220 1973267 2010282 
3849.577 2049862 2089514 2122043 2135129 2114418 2046400 1926238 1765286 
3853.435 1593419 1447218 1357134 1333935 1369399 1445290 1541244 1641942 
3857.292 1736776 1819951 1889064 1942746 1980490 2001926 2007885 2000395 
3861.150 1983220 1960952 1937587 1914923 1893424 1872592 1852726 1837586 
3865.007 1832794 1843974 1873890 1919083 1970438 2014243 2037578 2030887 
3868.865 1993405 1934026 1870728 1822879 1802582 1810601 1836854 1867667 
3872.722 1889663 1895920 1887234 1872093 1862243 1868033 1894955 1941115 
3876.579 1999130 2057653 2105295 2132865 2133897 2106927 2056920 1994637 
3880.437 1934192 1890529 1874722 1889164 1929100 1982154 2033151 2066508 
3884.294 2071902 2046766 1999197 1946174 1906170 1893923 1913325 1957590 
3888.152 2012412 2062247 2092876 2095573 2069038 2020135 1961751 1908400 
3892.009 1872692 1860679 1872725 1903641 1946507 1995103 2043804 2088581 
3895.866 2126771 2155973 2173988 2178950 2169959 2147349 2113786 2073966 
3899.724 2032985 1995435 1964214 1938685 1916686 1894356 1869264 1841080 
3903.581 1812464 1788209 1773936 1773670 1788708 1816989 1854589 1896752 
3907.439 1939151 1978559 2013311 2042439 2065876 2083454 2095440 2102565 
3911.296 2105928 2107892 2111022 2117182 2127504 2140889 2155174 2166729 
3915.154 2172557 2170758 2160968 2145584 2127637 2110389 2096972 2088981 
3919.011 2086917 2091112 2101200 2116549 2135994 2157105 2176586 2191205 
3922.868 2197766 2195001 2183979 2168394 2152877 2142720 2141489 2150179 
3926.726 2167295 2189340 2212419 2233167 2249087 2258613 2261044 2256381 
3930.583 2244657 2226606 2204792 2182047 2162933 2151844 2151378 2162134 
3934.441 2182447 2208256 2234899 2258479 2276632 2288690 2296318 2301148 
3938.298 2304745 2307610 2308576 2305611 2296917 2281662 2260345 2235732 
3942.156 2211553 2192271 2181281 2180515 2189607 2206224 2226506 2245457 
3946.013 2259445 2264941 2260711 2247755 2228971 2208356 2190239 2178317 
3949.870 2174155 2177918 2187975 2201962 2217647 2233100 2247055 2259046 
3953.728 2268871 2276399 2281762 2285392 2287757 2289756 2292554 2296384 
3957.585 2301714 2307443 2312473 2315371 2315305 2312107 2306677 2300581 
3961.443 2295318 2292021 2291321 2292754 2295385 2298350 2301114 2303479 
3965.300 2305911 2309009 2313173 2318769 2325398 2332427 2339123 2344320 
3969.157 2347251 2347684 2345785 2342321 2338190 2334659 2332694 2332427 
3973.015 2333726 2335558 2337424 2339323 2341488 2345619 2353015 2364708 
3976.872 2380466 2398757 2416882 2431543 2440539 2442572 2438407 2430443 
3980.730 2421647 2414950 2412751 2415616 2423013 2433275 2444771 2455434 
3984.587 2464264 2470562 2474161 2475628 2475861 2475461 2475494 2476794 
3988.445 2479760 2484825 2491923 2500454 2509819 2519250 2527582 2534181 
3992.302 2538713 2540713 2540680 2539480 2538080 2537713 2539180 2542546 
3996.159 2547412 2553145 2558444 2562944 2566510 2569610 2573043 2577476 
4000.017 2583009 2589375 
##END=
