
##TITLE=Z244_2_c
##JCAMP-DX=5.01  $$ Nicolet v. 1
##DATATYPE=INFRARED SPECTRUM
##ORIGIN=UniL
##OWNER=Nicolet
##LONGDATE=2011/09/20
##TIME=13:59:14
##SPECTROMETER/DATA SYSTEM=Nicolet iS5
##DATA PROCESSING=
Ratio against background
%Transmittance->Absorbance
Truncated
ElementMultiply or ElementDivide
##COMMENTS=
Number of sample scans: 32
Collection length: 51.18 sec
Sample gain: 2.0
Background collected on: Mar Sep 20 13:32:44 2011 (GMT+02:00);
Number of background scans: 32
Background gain: 2.0
Sample spacing:  1.000
Number of scan points: 12415
Resolution points: 8192
Number of FFT points: 65536
Apodization: N-B fort;
Phase correction: Mertz;
Laser frequency: 15798.0 cm-1
Number of rejected sample scans: 0
Number of rejected background scans: 0
Bench serial number: ASB1000141;
##RESOLUTION=4.000
##XUNITS=1/CM
##YUNITS=ABSORBANCE
##FIRSTX=649.893372
##LASTX=4000.122314
##FIRSTY=0.052889
##MAXX=4000.122314
##MINX=649.893372
##MAXY=0.315655
##MINY=-0.000279
##XFACTOR=1.000000
##YFACTOR=1.000000E-009
##NPOINTS=6950
##DELTAX=0.482117
##ZPD=6100
##XYDATA=(X++(Y..Y))
649.893 52889072 53558000 54201416 54831128 55464544 56116788 56797208 
653.268 57511752 58268696 59083296 59978088 60977700 62104532 63370684 
656.643 64781980 66342852 68061864 69956616 72052024 74371616 76938320 
660.018 79770688 82882072 86277880 89939032 93801432 97726624 101507256 
663.393 104906488 107680312 109646256 110687568 110724080 109694920 
666.285 107551560 104324352 100211200 95660464 91282248 87574696 84742208 
669.660 82693992 81203040 80032232 79007432 78036400 77089056 76181248 
673.035 75345864 74617096 74013056 73535424 73175096 72920512 72765024 
676.410 72708760 72757576 72920080 73204776 73616600 74157864 74829016 
679.785 75630832 76567800 77650480 78894216 80317808 81941952 83784200 
683.159 85864584 88208464 90851088 93845760 97260048 101164032 105631864 
686.534 110728528 116510944 123037120 130362856 138525584 147500160 
689.427 157136096 167075840 176665408 185029104 191109856 193858624 
692.320 192562304 186975680 177452128 164835536 150336048 135281264 
695.212 120819320 107905360 97143960 88779504 82798952 78979888 77005408 
698.587 76529424 77273688 79067016 81837848 85582200 90279816 95785824 
701.962 101771168 107671952 112711472 116107768 117191312 115613344 
704.855 111454752 105205056 97645840 89600176 81840576 74913744 69083120 
708.229 64396820 60736184 57916596 55741080 54053468 52744184 51730248 
711.604 50947196 50338192 49852072 49455376 49136168 48901184 48765188 
714.979 48737308 48810972 48963268 49161660 49375700 49588696 49798260 
718.354 50013356 50245152 50500664 50778712 51074228 51382480 51705768 
721.729 52052376 52436012 52867624 53353276 53892400 54479776 55108464 
725.104 55770464 56455696 57148816 57825816 58458420 59018232 59487788 
728.478 59869988 60192308 60503788 60858948 61308476 61882980 62586852 
731.853 63404916 64311972 65288620 66328144 67441440 68648560 69970704 
735.228 71419432 72992896 74680720 76472912 78370432 80391488 82567952 
738.603 84939592 87543448 90403680 93534504 96945096 100648336 104670552 
741.978 109053648 113851032 119132176 124985880 131527664 138924672 
744.870 147381088 157097568 168194832 180581440 193828080 207000608 
747.763 218752480 227457440 231538736 230078656 223123104 211812736 
750.656 197970368 183746752 171117952 161429936 155447216 153259824 
753.548 154426976 158103696 163250480 168879680 174084576 178214080 
756.441 180884960 181905536 181231952 178886848 174913760 169368480 
759.334 162341824 154002304 144613648 134551152 124294872 114337216 
762.227 105171840 97227760 90785656 85987792 82804288 81058856 80452536 
765.601 80623248 81226528 81939032 82514824 82794256 82682536 82151640 
768.976 81227928 79986736 78539768 77020680 75574864 74320808 73338408 
772.351 72659448 72271192 72134288 72205176 72454960 72872112 73457184 
775.726 74210064 75119984 76163720 77313392 78546840 79856504 81250224 
779.101 82742344 84342200 86043776 87823952 89650064 91490888 93323848 
782.475 95139760 96935776 98706696 100437048 102098568 103653472 105066568 
785.850 106309568 107364968 108223352 108875480 109306464 109495808 
788.743 109418688 109055776 108399976 107458784 106251424 104801032 
791.636 103129480 101252752 99182736 96933376 94525200 91985776 89347784 
795.010 86639432 83880776 81083576 78256224 75413656 72586136 69816784 
798.385 67160216 64669676 62382760 60319524 58481624 56859372 55438832 
801.760 54206860 53150864 52253832 51492404 50838120 50259396 49731152 
805.135 49239516 48780940 48358924 47977504 47636756 47332664 47062316 
808.510 46830848 46655540 46566236 46600316 46790328 47159408 47714664 
811.885 48445860 49324548 50302660 51314680 52267436 53049316 53546080 
815.259 53648828 53287344 52446108 51171996 49563512 47750464 45872812 
818.634 44042880 42339360 40805744 39455180 38286304 37291556 36462116 
822.009 35785676 35243832 34812932 34466320 34180556 33941848 33744480 
825.384 33588660 33473976 33394746 33339896 33297502 33260118 33229604 
828.759 33216480 33235114 33295638 33399076 33536036 33692272 33855008 
832.133 34018704 34186152 34365676 34564004 34782672 35015956 35255512 
835.508 35495556 35737104 35988720 36261948 36566924 36907464 37280980 
838.883 37682388 38109200 38565220 39060180 39605352 40208680 40871340 
842.258 41588612 42354660 43167848 44034116 44966380 45979104 47080340 
845.633 48267124 49522772 50821692 52129296 53406368 54611716 55694856 
849.008 56599524 57268676 57647792 57702624 57429828 56864128 56074828 
852.382 55153948 54204980 53315476 52550204 51947688 51518592 51255020 
855.757 51136476 51137256 51227544 51376624 51558624 51752796 51949216 
859.132 52148872 52362480 52604768 52889184 53225428 53617564 54067536 
862.507 54577564 55150600 55787640 56480184 57204828 57917768 58554076 
865.882 59041536 59307180 59291192 58961716 58316972 57388380 56230900 
869.256 54922528 53553084 52210260 50981364 49940792 49140808 48615260 
872.631 48375964 48419632 48736456 49319348 50169572 51300772 52736252 
876.006 54504724 56636100 59150988 62051508 65305180 68835344 72502144 
879.381 76093160 79357368 82006664 83770336 84460712 83995344 82435768 
882.756 79968656 76893664 73559448 70293408 67393848 65075680 63468760 
886.131 62639012 62592708 63295236 64676060 66637256 69046680 71724064 
889.505 74458096 76994808 79052224 80375776 80750360 80049368 78263568 
892.880 75503696 71987608 67984400 63797340 59699792 55891944 52507872 
896.255 49601136 47166052 45160936 43529684 42217008 41169624 40341660 
899.630 39690844 39176164 38763844 38427892 38151020 37925264 37746320 
903.005 37608640 37503728 37420256 37347056 37278304 37215348 37164812 
906.379 37134604 37129512 37147268 37180152 37218452 37255524 37291052 
909.754 37330408 37381648 37450556 37538296 37641340 37754056 37872512 
913.129 37997040 38131484 38280912 38447476 38629676 38822428 39021172 
916.504 39224360 39436096 39663544 39914140 40191088 40491084 40805380 
919.879 41124312 41441832 41757728 42077904 42411324 42766680 43149956 
923.254 43565252 44017868 44516336 45073076 45700612 46404196 47174476 
926.628 47981608 48780424 49511188 50114084 50544400 50777000 50815400 
930.003 50687736 50444204 50146252 49854712 49628960 49515940 49548176 
933.378 49745016 50111260 50640112 51314308 52109940 52995744 53931484 
936.753 54873088 55771256 56577592 57257788 57795572 58202580 58516276 
940.128 58797908 59120044 59548132 60135756 60913076 61885884 63039476 
943.502 64344056 65759688 67233904 68705840 70106040 71354016 72372640 
946.877 73093616 73466008 73468592 73109960 72428384 71480952 70339384 
950.252 69081608 67778536 66499180 65302676 64233288 63322836 62586316 
953.627 62023148 61622096 61365948 61238004 61223736 61313056 61498088 
957.002 61770664 62121424 62540776 63020052 63555092 64146168 64798176 
960.377 65516384 66305904 67169464 68108648 69127016 70233536 71443456 
963.751 72778776 74264784 75923632 77772368 79818512 82060256 84487680 
967.126 87087680 89849856 92770816 95860224 99141224 102648128 106414344 
970.501 110457872 114759752 119251456 123797688 128194648 132206664 
973.394 135575392 138070272 139544144 139952704 139381424 138022608 
976.286 136167536 134147896 132272616 130819872 129978120 129829408 
979.179 130346296 131390304 132732824 134062080 135051584 135392352 
982.072 134830512 133228096 130568000 126959624 122600960 117754368 
984.964 112702672 107691232 102932600 98581400 94726264 91408560 88624248 
988.339 86339800 84501360 83048640 81924992 81076784 80458760 80033432 
991.714 79765992 79626664 79590928 79638208 79755400 79935152 80173720 
995.089 80469008 80817288 81212824 81648152 82116216 82611672 83132616 
998.464 83679216 84252280 84851808 85475560 86119848 86781432 87457888 
1001.839 88149688 88858856 89587920 90338920 91112440 91908680 92728560 
1005.213 93575032 94453288 95369488 96328656 97333472 98382752 99472608 
1008.588 100597912 101754664 102940416 104154848 105398152 106670272 
1011.481 107969800 109294872 110644432 112019336 113424120 114866056 
1014.374 116354504 117898712 119507664 121188648 122948504 124794432 
1017.266 126733792 128774304 130923000 133184824 135561552 138051056 
1020.159 140646336 143332944 146085120 148864640 151612304 154248064 
1023.052 156679936 158801824 160515440 161748544 162464768 162679200 
1025.945 162454800 161900672 161145712 160320128 159544400 158902096 
1028.838 158436800 158145376 157978528 157841168 157595376 157086304 
1031.731 156141040 154593936 152318912 149234544 145327680 140655872 
1034.624 135347456 129586784 123582984 117569296 111760528 106328496 
1037.517 101403544 97051936 93284664 90070408 87352088 85062944 83135464 
1040.892 81513256 80148104 78997416 78026720 77205008 76506656 75913560 
1044.267 75412912 74996160 74656248 74384976 74172888 74010584 73891240 
1047.643 73812688 73776872 73788448 73849952 73958448 74102368 74263216 
1051.018 74416600 74534872 74592472 74567600 74444056 74215448 73885536 
1054.393 73471736 73001680 72514552 72054528 71661024 71367096 71192808 
1057.768 71145384 71222400 71415528 71713672 72101504 72557824 73053232 
1061.144 73544576 73980560 74306768 74470168 74432768 74174616 73697744 
1064.519 73023472 72188752 71242120 70232872 69211688 68225792 67311160 
1067.894 66494936 65791608 65204060 64727208 64352780 64073780 63886420 
1071.269 63790584 63786672 63873292 64045252 64294300 64610772 64986736 
1074.645 65417176 65899148 66430448 67006864 67621784 68268720 68942824 
1078.020 69645984 70387344 71182928 72053744 73019360 74098720 75308272 
1081.395 76663216 78182400 79888800 81808176 83970456 86403272 89129800 
1084.770 92166944 95521192 99185856 103134104 107317624 111661448 116061408 
1088.146 120402296 124561704 128425896 131912320 134967200 137566400 
1091.039 139703264 141371184 142548784 143198944 143275024 142746720 
1093.932 141626544 139995344 138007808 135873808 133853064 132197456 
1096.825 131119416 130777952 131240696 132482808 134375840 136710096 
1099.718 139195136 141476592 143204240 144038384 143703536 142043424 
1102.611 139022816 134741216 129397752 123274400 116685328 109923528 
1105.504 103266352 96933584 91076568 85795176 81128392 77070416 73584456 
1108.879 70617096 68108336 65995724 64222148 62733068 61475144 60401652 
1112.254 59469776 58643000 57894940 57205848 56562608 55957216 55384248 
1115.630 54841132 54327976 53848476 53409288 53017604 52679916 52399448 
1119.005 52175584 52004756 51882676 51806288 51774184 51786468 51843100 
1122.380 51942236 52080616 52253832 52459004 52695884 52966960 53277004 
1125.755 53630008 54028252 54472188 54961484 55497296 56083876 56728068 
1129.131 57438488 58221368 59078020 60003308 60985824 62010576 63058516 
1132.506 64110452 65146120 66143400 67081092 67939880 68705376 69373944 
1135.881 69954280 70470304 70955608 71452672 72006384 72655648 73435832 
1139.256 74374760 75491992 76802304 78313088 80024744 81929112 84009736 
1142.632 86242640 88594552 91025648 93489384 95926512 98270680 100444440 
1146.007 102357816 103921896 105048256 105658528 105698296 105137568 
1148.900 103976408 102241232 99982608 97269040 94176464 90791744 87203952 
1152.275 83496248 79750424 76035520 72406416 68908728 65576956 62437852 
1155.650 59514764 56824508 54377772 52177564 50219040 48491316 46979904 
1159.026 45669952 44545776 43590268 42784812 42106052 41527428 41023900 
1162.401 40572128 40155320 39764296 39395460 39048396 38723668 38421048 
1165.776 38140200 37881372 37647120 37442324 37272456 37142648 37055640 
1169.151 37011544 37009380 37048096 37128104 37250908 37418196 37630068 
1172.527 37884732 38178948 38510144 38877720 39284492 39735972 40238196 
1175.902 40795516 41410340 42082868 42813228 43603128 44456320 45377276 
1179.277 46368028 47424864 48536772 49684828 50846688 51999976 53125288 
1182.652 54210876 55251772 56250624 57215864 58162840 59112980 60090816 
1186.028 61124520 62239112 63450812 64762748 66160604 67613920 69075736 
1189.403 70490648 71801808 72951744 73893120 74589360 75014856 75157728 
1192.778 75016480 74598600 73916728 72986904 71826160 70451640 68884616 
1196.153 67154688 65301292 63380116 61458656 59603848 57878816 56326364 
1199.529 54962648 53778340 52744672 51824620 50981216 50188500 49433396 
1202.904 48714404 48038008 47414960 46857424 46376252 45980984 45678748 
1206.279 45472116 45358852 45331372 45379300 45491580 45659684 45879992 
1209.654 46152888 46481188 46867720 47313596 47818636 48382336 49006032 
1213.030 49693780 50451872 51286976 52204468 53207000 54295572 55471396 
1216.405 56738148 58103976 59580132 61180248 62918468 64806984 66857300 
1219.780 69082224 71495792 74116400 76964896 80061320 83423008 87059216 
1223.155 90969144 95136736 99529568 104096568 108758032 113409200 117916568 
1226.531 122108088 125796424 128780544 130860392 131878528 131730496 
1229.424 130389336 127910944 124432168 120155528 115309336 110148488 
1232.317 104921160 99836720 95078256 90777904 87013224 83823336 81209272 
1235.692 79148312 77601664 76523616 75864792 75571712 75593288 75880464 
1239.067 76387136 77075800 77913880 78870808 79917192 81016968 82126104 
1242.442 83197424 84179272 85024576 85698584 86180208 86465816 86567480 
1245.818 86511424 86334104 86077872 85792760 85529296 85333544 85245272 
1249.193 85288256 85468136 85772696 86175600 86642184 87135184 87623552 
1252.568 88083688 88502320 88876912 89215400 89536608 89866928 90241840 
1255.943 90699912 91275256 91995200 92872040 93901120 95059160 96306976 
1259.319 97592648 98849328 100003712 100977320 101685400 102050704 102005776 
1262.694 101499136 100505616 99026296 97088888 94739664 92040904 89064752 
1266.069 85884168 82579376 79232968 75921416 72719584 69689752 66876324 
1269.444 64310892 62011112 59985124 58236184 56762388 55556752 54604764 
1272.820 53886208 53376692 53050404 52886488 52869344 52988932 53239064 
1276.195 53613552 54105256 54706152 55408716 56208612 57106144 58105488 
1279.570 59213300 60435540 61778036 63245712 64845524 66587700 68486488 
1282.945 70556944 72811376 75252552 77869240 80630744 83490584 86385768 
1286.321 89238920 91971976 94505024 96762840 98685144 100223312 101343744 
1289.696 102028992 102272472 102074928 101439448 100366352 98853112 96897256 
1293.071 94504856 91699752 88530112 85076360 81442544 77747000 74122104 
1296.446 70690864 67566352 64850680 62620720 60930956 59809368 59253360 
1299.822 59232436 59690860 60560468 61760616 63207304 64822176 66523664 
1303.197 68231616 69870440 71361160 72631800 73622568 74284480 74587040 
1306.572 74516264 74072896 73273688 72152912 70773408 69224704 67628176 
1309.947 66131860 64876384 63980512 63507572 63444220 63691928 64077392 
1313.323 64399964 64452896 64080620 63213824 61870332 60148200 58187880 
1316.698 56153136 54186324 52388496 50819088 49493584 48398964 47508024 
1320.073 46794164 46235952 45818276 45530284 45361240 45299928 45334980 
1323.448 45457216 45660196 45940248 46293708 46714092 47191320 47710860 
1326.823 48256344 48813272 49369760 49917820 50452540 50969740 51465024 
1330.199 51934544 52375564 52788556 53178500 53554100 53925224 54300980 
1333.574 54687548 55087852 55502604 55932604 56379860 56848416 57343192 
1336.949 57868556 58427716 59022556 59655048 60328244 61047176 61816772 
1340.324 62641388 63521460 64453660 65431780 66449596 67503952 68595672 
1343.700 69731024 70919680 72172784 73499912 74908072 76401240 77981000 
1347.075 79647800 81401896 83243856 85172944 87186528 89278840 91440128 
1350.450 93657608 95918816 98213224 100537480 102896448 105305208 107786008 
1353.825 110365080 113071400 115931576 118969432 122204968 125649360 
1356.719 129298944 133124752 137070704 141044576 144924272 148586512 
1359.612 151914768 154829872 157305504 159368128 161085712 162540592 
1362.505 163818688 164985792 166081344 167126560 168127344 169081552 
1365.398 169983184 170825536 171606176 172333440 173032928 173752144 
1368.291 174559312 175525456 176717056 178183008 179949168 182026496 
1371.184 184419920 187137728 190192128 193593328 197338272 201399472 
1374.077 205726128 210259472 214954320 219798240 224810288 230023040 
1376.970 235446416 241035648 246660688 252121600 257160640 261483280 
1379.863 264814048 266889360 267466880 266364432 263479824 258851024 
1382.756 252669840 245268160 237029648 228263616 219169504 209797376 
1385.649 200098384 190009552 179541728 168823616 158084768 147586528 
1388.542 137548720 128122360 119385040 111375224 104125880 97655632 91973584 
1391.917 87066864 82891296 79383024 76470944 74097616 72213280 70770328 
1395.293 69714920 68969232 68443816 68059928 67762656 67543816 67441904 
1398.668 67536888 67919816 68663728 69811488 71368624 73319232 75639032 
1402.043 78302056 81268760 84461432 87757320 90967800 93847576 96149224 
1405.418 97646008 98182440 97704176 96249248 93937488 90933760 87442976 
1408.794 83680456 79847096 76140064 72717856 69688000 67111720 65000400 
1412.169 63335412 62085684 61224308 60732144 60591628 60780656 61264560 
1415.544 61997620 62938652 64059192 65356052 66852740 68586312 70584040 
1418.919 72835432 75287192 77857944 80472272 83086952 85695032 88311472 
1422.295 90945080 93578024 96154056 98570920 100708920 102455456 103722216 
1425.670 104457928 104632104 104218320 103192936 101542120 99286672 96493888 
1429.045 93288240 89831688 86283096 82787048 79455512 76365568 73576960 
1432.420 71127432 69030296 67276688 65834984 64664452 63730448 63024728 
1435.796 62572456 62422012 62613524 63146948 63969836 64998588 66144204 
1439.171 67332784 68517712 69668312 70764208 71791176 72733600 73576248 
1442.546 74308184 74923904 75425096 75818192 76110568 76306632 76406504 
1445.921 76410128 76323776 76167664 75981248 75814568 75715624 75715504 
1449.297 75817760 76004144 76247040 76526736 76839760 77198680 77622824 
1452.672 78124760 78698808 79322288 79958496 80570664 81136328 81652744 
1456.047 82141032 82631392 83146136 83676720 84186512 84630704 84979160 
1459.422 85225312 85383144 85478464 85539904 85592768 85655080 85742336 
1462.798 85872416 86068376 86360984 86781840 87352416 88081384 88965792 
1466.173 90000216 91187528 92539872 94072256 95793672 97700232 99777312 
1469.548 101997688 104335560 106767504 109260992 111764936 114192376 
1472.441 116416016 118293664 119697800 120538504 120774032 120394864 
1475.334 119420024 117896136 115900376 113535056 110903648 108098296 
1478.227 105178128 102167616 99075368 95909480 92691400 89466616 86293480 
1481.603 83228688 80316416 77576904 75010728 72605992 70346552 68217576 
1484.978 66208532 64313240 62532088 60872856 59349532 57980548 56784104 
1488.353 55773100 54953400 54325236 53886624 53633644 53559236 53649240 
1491.728 53877244 54206784 54596952 55006160 55403520 55773928 56119316 
1495.104 56457812 56815068 57211556 57648208 58102648 58535228 58905248 
1498.479 59181588 59350520 59416924 59399484 59326056 59225640 59126992 
1501.854 59052244 59012652 59007680 59022672 59031172 58996940 58887372 
1505.229 58689420 58431280 58188032 58059660 58124052 58392392 58815016 
1508.604 59313296 59819372 60286556 60692896 61037336 61330112 61586396 
1511.980 61820016 62040768 62252496 62454760 62644100 62817260 62974088 
1515.355 63121320 63274496 63457868 63699484 64018988 64419068 64881580 
1518.730 65374160 65858772 66303976 66701660 67074412 67475616 67961272 
1522.105 68565832 69280432 70061136 70849152 71592760 72264536 72859256 
1525.481 73394752 73899880 74404488 74927128 75473192 76042232 76635152 
1528.856 77258840 77924064 78639112 79403784 80207912 81039608 81894704 
1532.231 82789688 83763384 84870424 86156208 87628376 89254224 90974128 
1535.606 92732704 94487440 96221000 97943616 99682888 101487368 103418816 
1538.982 105549472 107938448 110610320 113556224 116728384 120067448 
1541.875 123530528 127096120 130764512 134543920 138431920 142395568 
1544.768 146362352 150236736 153912576 157296848 160324656 162934672 
1547.661 165060400 166631712 167577152 167866784 167538304 166700976 
1550.554 165490560 164008576 162291696 160308624 158005520 155367984 
1553.447 152467536 149468080 146583472 143974992 141698960 139681456 
1556.340 137754512 135697792 133306088 130475016 127280104 124013120 
1559.233 121062528 118707496 116981840 115737368 114759104 113862400 
1562.126 112914304 111814360 110494496 108918056 107091656 105069984 
1565.019 102942648 100807104 98721040 96683224 94632312 92475168 90120760 
1568.395 87525856 84725496 81836576 79020112 76413296 74088152 72038728 
1571.770 70210752 68532544 66941180 65389408 63846812 62299496 60756268 
1575.145 59266200 57924624 56859636 56197032 56008704 56300864 57034312 
1578.520 58158028 59636648 61461972 63652144 66239096 69253728 72710648 
1581.896 76594520 80851216 85390648 90068776 94694040 99045072 102865712 
1585.271 105914744 108000096 108988784 108836744 107589000 105390008 
1588.164 102465192 99108000 95661248 92440200 89718624 87703632 86513656 
1591.539 86203560 86772816 88184688 90374136 93256944 96741976 100718104 
1594.914 105061632 109646632 114336816 119007656 123556296 127890648 
1597.807 131928000 135579840 138733648 141266160 143059168 144020000 
1600.700 144111872 143356880 141832544 139646816 136931344 133833632 
1603.594 130497200 127069608 123683448 120434784 117384864 114553304 
1606.487 111928648 109484000 107193168 105041504 103024288 101143408 
1609.380 99397960 97779864 96275920 94873736 93567096 92357736 91250520 
1612.755 90244824 89325728 88460648 87602024 86701328 85725512 84681280 
1616.130 83626544 82663856 81901744 81406176 81182584 81182192 81334640 
1619.505 81567824 81829368 82093120 82356704 82641456 82984384 83432808 
1622.881 84028312 84797464 85747632 86866936 88132928 89518608 90999048 
1626.256 92549832 94146496 95767728 97393704 99009064 100603848 102173016 
1629.631 103713424 105223384 106701536 108150272 109579000 111004304 
1632.524 112453544 113965344 115591552 117398504 119464696 121876136 
1635.417 124692384 127930192 131560776 135518176 139741520 144196384 
1638.310 148879664 153811040 159020592 164539248 170379392 176529664 
1641.203 182960720 189619904 196446160 203387984 210390576 217418016 
1644.096 224462480 231541376 238706064 246020528 253535040 261218912 
1646.990 268945120 276518784 283736192 290452544 296595360 302149440 
1649.883 307069728 311202688 314245152 315654944 314737728 310950304 
1652.776 304383328 296020288 287242656 279040896 271622848 264680272 
1655.669 257735632 250422272 242562144 234163504 225360608 216338544 
1658.562 207279504 198278240 189350448 180454352 171525120 162521552 
1661.455 153456832 144412976 135539104 127026560 119062432 111787400 
1664.348 105263280 99468024 94319592 89698664 85479680 81557064 77866624 
1667.723 74397488 71196360 68348096 65943420 64042560 62654784 61738884 
1671.098 61221832 61028756 61095036 61374572 61845308 62508592 63391916 
1674.474 64541800 66011996 67836680 70009712 72494072 75243216 78228456 
1677.849 81449016 84927304 88690040 92738080 97037144 101525336 106129688 
1681.224 110818920 115628648 120672616 126123416 132154104 138834896 
1684.117 146010032 153308624 160278592 166563728 171968960 176414944 
1687.010 179877504 182321440 183708928 184017680 183243232 181415344 
1689.903 178597712 174900384 170480976 165531392 160263872 154836784 
1692.796 149310112 143626640 137620896 131102936 124002096 116506824 
1695.689 109091176 102341872 96658024 92111392 88470024 85372664 82455688 
1699.065 79490520 76470032 73615152 71248792 69571584 68535920 67898968 
1702.440 67375272 66712476 65744692 64378604 62578008 60359844 57787020 
1705.815 54960656 51994520 49000804 46077352 43291968 40685976 38270236 
1709.190 36027524 33926584 31938274 30050694 28274250 26633472 25147564 
1712.566 23818082 22618928 21506868 20436476 19383404 18353932 17381344 
1715.941 16506290 15755672 15129293 14606572 14163105 13790063 13498478 
1719.316 13304344 13209479 13192640 13212279 13220478 13183076 13090013 
1722.691 12961875 12836129 12752080 12726557 12747747 12781493 12791492 
1726.067 12757368 12681454 12583996 12488879 12409466 12340907 12264759 
1729.442 12160989 12021031 11852277 11672390 11495368 11323382 11144157 
1732.817 10942373 10717555 10501170 10347324 10306200 10387503 10555655 
1736.192 10746288 10896062 10963373 10933335 10823699 10675104 10538070 
1739.568 10447031 10407661 10397413 10384585 10346645 10280991 10201336 
1742.943 10126341 10065738 10013519 9951169 9858558 9726794 9562452 9385136 
1746.800 9214932 9063538 8926841 8790424 8637995 8466563 8290672 8140005 
1750.658 8044034 8017301 8051493 8120660 8194905 8252579 8286992 8302662 
1754.515 8307188 8305094 8295232 8273685 8239375 8199327 8166880 8154320 
1758.373 8165428 8190852 8212226 8208951 8170796 8104659 8036406 7998908 
1762.230 8015715 8089604 8200611 8316780 8407981 8459096 8470820 8456427 
1766.087 8431460 8407643 8386766 8363121 8328702 8279427 8218034 8150741 
1769.945 8082278 8012914 7939275 7860859 7785727 7733241 7726361 7779082 
1773.802 7888188 8032929 8183998 8312693 8403995 8457609 8486294 8506669 
1777.660 8530593 8558472 8580741 8584628 8564318 8526369 8489065 8472543 
1781.517 8487409 8529207 8579525 8617681 8629072 8615146 8591184 8580336 
1785.375 8598755 8648270 8714794 8777001 8816459 8825149 8806992 8772403 
1789.232 8731190 8685925 8631775 8562560 8479063 8395313 8337045 8328195 
1793.089 8379470 8480381 8605177 8722637 8811455 8865627 8893291 8909389 
1796.947 8926334 8947710 8966314 8971049 8954746 8920922 8884734 8867048 
1800.804 8881657 8929987 8999024 9070237 9127419 9165488 9190971 9215846 
1804.662 9249996 9294339 9340988 9377823 9396479 9396953 9388895 9385237 
1808.519 9396648 9424278 9461086 9496272 9523637 9546058 9575019 9623053 
1812.376 9696367 9789689 9888047 9973816 10035762 10074453 10102262 10137195 
1816.234 10192686 10272068 10366158 10459997 10539665 10601115 10649161 
1819.609 10693816 10741193 10789017 10824888 10833346 10803182 10733415 
1822.984 10634560 10524592 10422730 10340436 10279668 10234308 10195807 
1826.360 10158630 10120576 10082253 10042713 9998735 9946965 9887776 9829986 
1830.217 9789452 9783250 9820293 9895301 9989208 10077370 10139128 10164430 
1834.074 10158529 10137703 10121220 10121389 10138551 10162022 10179117 
1837.450 10182340 10175013 10169586 10179355 10210088 10255002 10295750 
1840.825 10311289 10286996 10221146 10126444 10025590 9944727 9901810 
1844.200 9902691 9942083 10009890 10097683 10200419 10314309 10433692 
1847.575 10548492 10647633 10722819 10773460 10807835 10839393 10880128 
1850.951 10933980 10995418 11052446 11094865 11119748 11134298 11151670 
1854.326 11184579 11236905 11301549 11363379 11408039 11428280 11428416 
1857.701 11420013 11416170 11423449 11438621 11451310 11451208 11434981 
1861.076 11408856 11385998 11377868 11388890 11412189 11434097 11440186 
1864.452 11423313 11385827 11337871 11290055 11247616 11208446 11166594 
1867.827 11119952 11076272 11053874 11073826 11149528 11277030 11435458 
1871.202 11594793 11729439 11824764 11882208 11914083 11936186 11958323 
1874.577 11980327 11993645 11989284 11964659 11927399 11892390 11873253 
1877.953 11876454 11896851 11921405 11936050 11934245 11919668 11904105 
1881.328 11899269 11910575 11933495 11958187 11974741 11981042 11984107 
1884.703 11996778 12029410 12082418 12144360 12197382 12226110 12226213 
1888.078 12207639 12190669 12198234 12243696 12325329 12428968 12536384 
1891.454 12634718 12720656 12799307 12878279 12961192 13044666 13120542 
1894.829 13181402 13226524 13263963 13306872 13366016 13444271 13534300 
1898.204 13624175 13702855 13767934 13826218 13891214 13974423 14078422 
1901.579 14195764 14312212 14415128 14499089 14568400 14632685 14700783 
1904.955 14772560 14838042 14881038 14888719 14857654 14797243 14724914 
1908.330 14659759 14613425 14587109 14573848 14565385 14558806 14558875 
1911.705 14575115 14614419 14676826 14752713 14828030 14889130 14930074 
1915.080 14953668 14969409 14986661 15010670 15040854 15073785 15108193 
1918.456 15148197 15201828 15275438 15367735 15468326 15559599 15625473 
1921.831 15660200 15672257 15682803 15714340 15782334 15884843 16004531 
1925.206 16116822 16203038 16257728 16290510 16319133 16358973 16414955 
1928.581 16479755 16538437 16578745 16599331 16611069 16632002 16676415 
1931.957 16748037 16837480 16928490 17006596 17066350 17114394 17163302 
1935.332 17222456 17291688 17359858 17411210 17434422 17429214 17406280 
1938.707 17382034 17368480 17366444 17365136 17349548 17310168 17250486 
1942.082 17188088 17144138 17133694 17155960 17195118 17229076 17241314 
1945.458 17229972 17207634 17193740 17201220 17230420 17267034 17291446 
1948.833 17289652 17262070 17225110 17202598 17212874 17258828 17327030 
1952.208 17395932 17446494 17472054 17479782 17483818 17494718 17511242 
1955.583 17519314 17500788 17445634 17359444 17264380 17187844 17151962 
1958.958 17158650 17191224 17221938 17228524 17205772 17167302 17135968 
1962.334 17131454 17158684 17206840 17255760 17289100 17304340 17314066 
1965.709 17337962 17389206 17467398 17555710 17631792 17678172 17692528 
1969.084 17685730 17675306 17672202 17673028 17662882 17625098 17553778 
1972.459 17460394 17371928 17317030 17313514 17358824 17431766 17505100 
1975.835 17563266 17607984 17658432 17736050 17850932 17991572 18132258 
1979.210 18243168 18307756 18330914 18335094 18346604 18383070 18444568 
1982.585 18515274 18575338 18610578 18622026 18623340 18633300 18662632 
1985.960 18709122 18757796 18792394 18804192 18798414 18790700 18800006 
1989.336 18835126 18890874 18951164 18997928 19022712 19032164 19044868 
1992.711 19078522 19141330 19224302 19306844 19366222 19390162 19382332 
1996.086 19360436 19344084 19345052 19360262 19375644 19373982 19347304 
1999.461 19302860 19259320 19237430 19246434 19278612 19311902 19322432 
2002.837 19294858 19232270 19152894 19081394 19034380 19012432 19001182 
2006.212 18981242 18941508 18885546 18831458 18799246 18800282 18828794 
2009.587 18864954 18884992 18876304 18842600 18801666 18774542 18773192 
2012.962 18794090 18820524 18831804 18816336 18777794 18733060 18703484 
2016.338 18700230 18720538 18749250 18770010 18774678 18770874 18777862 
2019.713 18815714 18893540 19002428 19119134 19218278 19282458 19310168 
2023.088 19313840 19311070 19314778 19325758 19335664 19334626 19320250 
2026.463 19300644 19290874 19303206 19338920 19384342 19419440 19426194 
2029.839 19400452 19354962 19314880 19302756 19328530 19383266 19446188 
2033.214 19494808 19515912 19513174 19501738 19499902 19516190 19547902 
2036.589 19582806 19607972 19618544 19620694 19625442 19643054 19674150 
2039.964 19708440 19730700 19729488 19705320 19671932 19649052 19651374 
2043.340 19681604 19727616 19768532 19785906 19773490 19741346 19711388 
2046.715 19705042 19735590 19801304 19889190 19980982 20062486 20128594 
2050.090 20181664 20227100 20267788 20303548 20331916 20353546 20374068 
2053.465 20404072 20453702 20527896 20621836 20722680 20813534 20883652 
2056.841 20931458 20965292 20999058 21043814 21103118 21170986 21235770 
2060.216 21286780 21319910 21338980 21352416 21366894 21384228 21399960 
2063.591 21407132 21401630 21386664 21372184 21370480 21389936 21429966 
2066.966 21481730 21533086 21574242 21603250 21626338 21652982 21690422 
2070.342 21738492 21789318 21830988 21855448 21861338 21855064 21847328 
2073.717 21846842 21855378 21867468 21873880 21867608 21848200 21822730 
2077.092 21801268 21791896 21796042 21808236 21819352 21821754 21813740 
2080.467 21800084 21788588 21784720 21788726 21794440 21793534 21779598 
2083.843 21752530 21718392 21686836 21665240 21655522 21653468 21651240 
2087.218 21642568 21625502 21603354 21581206 21563240 21549136 21534582 
2090.593 21514284 21485978 21453394 21424292 21406922 21406018 21419070 
2093.968 21438668 21455274 21463174 21462966 21461678 21467214 21483750 
2097.344 21508296 21532040 21544958 21540572 21520412 21491688 21464636 
2100.719 21445108 21432332 21419208 21396722 21360106 21311556 21259568 
2104.094 21215624 21187720 21176866 21177006 21179684 21178850 21174430 
2107.469 21172412 21179614 21200350 21232010 21266458 21293288 21306024 
2110.844 21305224 21297986 21293740 21298646 21312602 21329270 21340026 
2114.220 21338772 21326208 21308704 21295550 21292940 21300978 21313228 
2117.595 21321338 21318482 21303484 21281248 21259048 21242100 21229854 
2120.970 21216494 21193740 21156410 21104786 21045798 20988276 20939594 
2124.345 20901834 20871032 20841066 20807764 20771510 20737346 20711002 
2127.721 20695608 20688170 20680944 20665132 20635840 20595258 20552594 
2131.096 20518622 20500836 20499898 20509416 20520184 20525706 20525880 
2134.471 20525778 20532794 20549886 20572814 20590532 20592062 20571182 
2137.846 20531196 20482844 20439914 20411576 20398724 20393968 20386222 
2141.222 20368236 20339484 20306742 20278098 20258726 20245986 20230954 
2144.597 20203774 20160386 20103990 20044996 19994026 19955342 19923810 
2147.972 19888150 19836922 19766452 19684204 19605476 19546412 19514008 
2151.347 19502258 19493422 19467880 19410950 19321080 19206018 19079800 
2154.723 18952790 18827342 18699194 18566588 18436930 18331430 18279936 
2158.098 18306512 18418328 18598544 18812116 19019458 19194728 19331334 
2161.473 19439502 19535668 19630852 19724252 19806818 19866574 19898972 
2164.848 19911460 19918988 19937754 19975396 20027404 20079386 20116622 
2168.224 20130158 20122106 20102636 20083238 20070224 20060472 20043782 
2171.599 20011374 19962280 19906084 19860088 19840944 19857002 19902544 
2174.974 19960442 20010230 20036634 20035698 20012972 19978796 19942230 
2178.349 19905354 19865742 19820792 19773628 19732748 19711944 19721096 
2181.725 19760522 19818712 19877432 19919438 19935674 19929776 19914234 
2185.100 19904938 19911216 19933210 19963182 19991910 20013526 20030180 
2188.475 20048050 20073866 20108742 20146400 20174826 20184058 20170348 
2191.850 20140118 20105586 20078378 20064948 20062000 20060298 20048500 
2195.226 20021228 19980704 19935118 19894288 19863314 19840840 19821002 
2198.601 19797384 19769538 19742906 19727788 19733544 19762948 19810528 
2201.976 19865292 19916316 19957390 19990278 20021992 20060786 20110860 
2205.351 20169342 20228768 20281640 20324276 20359172 20393342 20433872 
2208.727 20483642 20540228 20596716 20645708 20684974 20717016 20747702 
2212.102 20783086 20824798 20868946 20909694 20941576 20964180 20981738 
2215.477 21002360 21031990 21071638 21115988 21156478 21185564 21199758 
2218.852 21201464 21196730 21191130 21185910 21178396 21163576 21138216 
2222.228 21103918 21067014 21035746 21015680 21006498 21001874 20992624 
2225.603 20972384 20940046 20902460 20869434 20849096 20844472 20851390 
2228.978 20861578 20867104 20863974 20854484 20843986 20836790 20833558 
2232.353 20829248 20816592 20789898 20748746 20699152 20651232 20614610 
2235.729 20593798 20586710 20586954 20586468 20580492 20568716 20554610 
2239.104 20543112 20536686 20534878 20534566 20533176 20530154 20527930 
2242.479 20529876 20537970 20551136 20564164 20571286 20568472 20555200 
2245.854 20536128 20517754 20505456 20501148 20502886 20506984 20509658 
2249.229 20510770 20512750 20519454 20533418 20553810 20576636 20596856 
2252.605 20611518 20621004 20629202 20640810 20658738 20681638 20704468 
2255.980 20720978 20727164 20722958 20713158 20703428 20698562 20699014 
2259.355 20701586 20700750 20692202 20675104 20652276 20628126 20606690 
2262.730 20588448 20571286 20551344 20525742 20494514 20460788 20428766 
2266.106 20401260 20378340 20357958 20336776 20314276 20292472 20275876 
2269.481 20269350 20274870 20289590 20307610 20321428 20326012 20321082 
2272.856 20310178 20299416 20293790 20295008 20300944 20307402 20310422 
2276.231 20308790 20303964 20299070 20296952 20297888 20300040 20300180 
2279.607 20296084 20287646 20277230 20268204 20262718 20260880 20260290 
2282.982 20257546 20249840 20236370 20218040 20197318 20175624 20153272 
2286.357 20129080 20101942 20072028 20040972 20011790 19986948 19967624 
2289.732 19952186 19937616 19920652 19899562 19875280 19850482 19828354 
2293.108 19810494 19796656 19784622 19771410 19755424 19736978 19718218 
2296.483 19701610 19688782 19679974 19673872 19668986 19664964 19662676 
2299.858 19664304 19670926 19682332 19696304 19708788 19717004 19720160 
2303.233 19720300 19721580 19728204 19742732 19764336 19789998 19815348 
2306.609 19837128 19853880 19867026 19878196 19889502 19901470 19913542 
2309.984 19924780 19935534 19947016 19961518 19981016 20005544 20032956 
2313.359 20059674 20081988 20098124 20108742 20116864 20125852 20138138 
2316.734 20154244 20172466 20190306 20206066 20219500 20231822 20244736 
2320.110 20258830 20273134 20284730 20289868 20285286 20268760 20238836 
2323.485 20195270 20137758 20066162 19982230 19889190 19792598 19699842 
2326.860 19618822 19554696 19509016 19478762 19458144 19440054 19419786 
2330.235 19395290 19368126 19341172 19317304 19297664 19281730 19268706 
2333.611 19258246 19251076 19248928 19252912 19262230 19274042 19284156 
2336.986 19288588 19285644 19276048 19262368 19247820 19234244 19221740 
2340.361 19208960 19194588 19178554 19162140 19147528 19135234 19123912 
2343.736 19109992 19089842 19061590 19028078 18995816 18974182 18971172 
2347.112 18990866 19032232 19090016 19156462 19223162 19283842 19333900 
2350.487 19370448 19392588 19399968 19393314 19373670 19343738 19307086 
2353.862 19267598 19228390 19191056 19154834 19117332 19075994 19029534 
2357.237 18978162 18923614 18867516 18810836 18752884 18692448 18628182 
2360.613 18560986 18493560 18428942 18369936 18317606 18270708 18226512 
2363.988 18183320 18140548 18100200 18064898 18037024 18017128 18003314 
2367.363 17992090 17980692 17967604 17953446 17939738 17928308 17919572 
2370.738 17912838 17906380 17899130 17891396 17884800 17881142 17881348 
2374.114 17885112 17890324 17894712 17896954 17897300 17897508 17899614 
2377.489 17904482 17911492 17918052 17921368 17919192 17911836 17901272 
2380.864 17890740 17882972 17878966 17878034 17878102 17877276 17874546 
2384.239 17870922 17868366 17868572 17872612 17880002 17889082 17898474 
2387.615 17907106 17915634 17924440 17934420 17944918 17954760 17962044 
2390.990 17965568 17965912 17964980 17965602 17969816 17978276 17989810 
2394.365 18002106 18012604 18020064 18024520 18026904 18028318 18028836 
2397.740 18027696 18023208 18014434 18001518 17986220 17970920 17957902 
2401.115 17948092 17941188 17935662 17930104 17924164 17918364 17914116 
2404.491 17912734 17914634 17919262 17925130 17931208 17937008 17942776 
2407.866 17948888 17955552 17961838 17966534 17968432 17967604 17965118 
2411.241 17963530 17964842 17970126 17978448 17987566 17994990 17999272 
2414.616 18000724 18001208 18003590 18009530 18019234 18030910 18042308 
2417.992 18051460 18057816 18062514 18066762 18071874 18077264 18081340 
2421.367 18081962 18077814 18069766 18059958 18050942 18044692 18041478 
2424.742 18039510 18036126 18029148 18018234 18004626 17990846 17978932 
2428.117 17970022 17963390 17957280 17950098 17941360 17931794 17922748 
2431.493 17916014 17911802 17909628 17908142 17905898 17902720 17898268 
2434.868 17893156 17887528 17880968 17872338 17861116 17847340 17832150 
2438.243 17817514 17804776 17794314 17784788 17774328 17760730 17743540 
2441.618 17723832 17704124 17686972 17673892 17664540 17656776 17648218 
2444.994 17636968 17622992 17607292 17592008 17578102 17565474 17553158 
2448.369 17540014 17525558 17511208 17498650 17490544 17487818 17489612 
2451.744 17493164 17495236 17493682 17487404 17477712 17466604 17456324 
2455.119 17447356 17439768 17432284 17424386 17416316 17409486 17405520 
2458.495 17405624 17409658 17416522 17424006 17430766 17436146 17440838 
2461.870 17445840 17452600 17461740 17473124 17486438 17501204 17517416 
2465.245 17535354 17555020 17576032 17597148 17617334 17635276 17651012 
2468.620 17665022 17678344 17691388 17703952 17714790 17722382 17725902 
2471.996 17725592 17722830 17719552 17717342 17716550 17716204 17714960 
2475.371 17711476 17705402 17697878 17690112 17684004 17679380 17676100 
2478.746 17673028 17669716 17666678 17665472 17667474 17673650 17682898 
2482.121 17693046 17701364 17705952 17706920 17706058 17706194 17709888 
2485.497 17718274 17730906 17746198 17762696 17779782 17798044 17818410 
2488.872 17841300 17865640 17888978 17908142 17920884 17926374 17926374 
2492.247 17923646 17920952 17919950 17920608 17921920 17922334 17921160 
2495.622 17918914 17916774 17915084 17913806 17911146 17905484 17895850 
2498.998 17882660 17868194 17855868 17848170 17846374 17849586 17855730 
2502.373 17862496 17868782 17874236 17879796 17886010 17892536 17897956 
2505.748 17900546 17898922 17893364 17885802 17878414 17873236 17870748 
2509.123 17869264 17866468 17859976 17848826 17833910 17817754 17802256 
2512.499 17789172 17778574 17769116 17759382 17748544 17736810 17725040 
2515.874 17714030 17703952 17694288 17684210 17672926 17661194 17650356 
2519.249 17641800 17636554 17633862 17631930 17628480 17621508 17610536 
2522.624 17596388 17580726 17564578 17547810 17529318 17506894 17479712 
2526.000 17447668 17412796 17377894 17345236 17316480 17291446 17269000 
2529.375 17247898 17227352 17207322 17187914 17168990 17149618 17128178 
2532.750 17103502 17075208 17044606 17014040 16986096 16962390 16942854 
2536.125 16925802 16909094 16891180 16872028 16853116 16836102 16822254 
2539.500 16811268 16801350 16790224 16776346 16759332 16740909 16723072 
2542.876 16707817 16695388 16684748 16674247 16661955 16647218 16631003 
2546.251 16614443 16598471 16583495 16568797 16553547 16537715 16522363 
2549.626 16509939 16502608 16501885 16507426 16517475 16529316 16541122 
2553.001 16552171 16563324 16576197 16591895 16610244 16630108 16649595 
2556.377 16667049 16682476 16697109 16712604 16730303 16750276 16770974 
2559.752 16790776 16807858 16821980 16834000 16845884 16859076 16874438 
2563.127 16891524 16909472 16927456 16945404 16963872 16984062 17006150 
2566.502 17030028 17054598 17078446 17101192 17123078 17145482 17169610 
2569.878 17195636 17222940 17249278 17272518 17291238 17305444 17316962 
2573.253 17328064 17340962 17356548 17374618 17393690 17412694 17430558 
2576.628 17446772 17461394 17474020 17483610 17489544 17491268 17489198 
2580.003 17485196 17481678 17480712 17483264 17488646 17494682 17499306 
2583.379 17500824 17499064 17495476 17492232 17491026 17492992 17497892 
2586.754 17504722 17512792 17521970 17532180 17544152 17557952 17573168 
2590.129 17589212 17605016 17620544 17636138 17652462 17669992 17688698 
2593.504 17707368 17725040 17740572 17754102 17766528 17779368 17793590 
2596.880 17809366 17825350 17839642 17851000 17859046 17864672 17869782 
2600.255 17875756 17882938 17890016 17894538 17894090 17887598 17875686 
2603.630 17860426 17844302 17829700 17817168 17806466 17796422 17786202 
2607.005 17775708 17765734 17757312 17751064 17746646 17743402 17740088 
2610.381 17736326 17732564 17729976 17729734 17732080 17736394 17741054 
2613.756 17744332 17744990 17743056 17739018 17734116 17729112 17723902 
2617.131 17717894 17710578 17701744 17692356 17683692 17677274 17673756 
2620.506 17672996 17673788 17674582 17674306 17672650 17669958 17666438 
2623.882 17662296 17657120 17650254 17641246 17630342 17618678 17608224 
2627.257 17600426 17595974 17594354 17594388 17594424 17593490 17591800 
2630.632 17589972 17589178 17590110 17592662 17595906 17599322 17602532 
2634.007 17606224 17611778 17620714 17633758 17650840 17670924 17692010 
2637.383 17712960 17733392 17753168 17773536 17795316 17819136 17844924 
2640.758 17872164 17900234 17928410 17956038 17983006 18008840 18033258 
2644.133 18055984 18077366 18098128 18119200 18141656 18165770 18191544 
2647.508 18217908 18243858 18268394 18291202 18312698 18333572 18354346 
2650.884 18374774 18394236 18411416 18425210 18435028 18441078 18444120 
2654.259 18445088 18444914 18443670 18441562 18438450 18435028 18431914 
2657.634 18430326 18431260 18434992 18441700 18450930 18462200 18475752 
2661.009 18491900 18511192 18534118 18560468 18589690 18620400 18651598 
2664.385 18682590 18713274 18743750 18774436 18805092 18835404 18864368 
2667.760 18891326 18915378 18936730 18955146 18970720 18983286 18992736 
2671.135 18998724 19001700 19002462 19002704 19004158 19008106 19015098 
2674.510 19024618 19035832 19047848 19059928 19072496 19086138 19101926 
2677.885 19120450 19141744 19165256 19190226 19216028 19242106 19268360 
2681.261 19294478 19320492 19346092 19371106 19395738 19420514 19446224 
2684.636 19473530 19502848 19533762 19565614 19597434 19628598 19658828 
2688.011 19688712 19719120 19750846 19784726 19820896 19859464 19900464 
2691.386 19944450 19992360 20044788 20102498 20165350 20233072 20305074 
2694.762 20380770 20460266 20544014 20632816 20726678 20825736 20928990 
2698.137 21035120 21142842 21250834 21358298 21464708 21569506 21671822 
2701.512 21770994 21865868 21955392 22039080 22116196 22186210 22248074 
2704.887 22300390 22341970 22371446 22388472 22393740 22388682 22375390 
2708.263 22356028 22332550 22306634 22279360 22251946 22225614 22201064 
2711.638 22179480 22161068 22145832 22133384 22123690 22116612 22112464 
2715.013 22111976 22115324 22122052 22131988 22144088 22157966 22173970 
2718.388 22193464 22217804 22248214 22284452 22325576 22368728 22411288 
2721.764 22451272 22487422 22520294 22550690 22579764 22607652 22633692 
2725.139 22656626 22674814 22687520 22694888 22698310 22699320 22699704 
2728.514 22700510 22702148 22704524 22707072 22709514 22711366 22712936 
2731.889 22714158 22715240 22716430 22718278 22720932 22724878 22729766 
2735.265 22735144 22739890 22742858 22743242 22741008 22736888 22732594 
2738.640 22730010 22731022 22736924 22748164 22764612 22785808 22811264 
2742.015 22840772 22874056 22911252 22952192 22996732 23044494 23095298 
2745.390 23148940 23204546 23261766 23319870 23377910 23435784 23493420 
2748.766 23551904 23612600 23676976 23746124 23820812 23900974 23986088 
2752.141 24075808 24169854 24268230 24371010 24477916 24588458 24701168 
2755.516 24814786 24928186 25040950 25153148 25265688 25379242 25494338 
2758.891 25611184 25729504 25848948 25969512 26091238 26213948 26337502 
2762.267 26461198 26583658 26703864 26820934 26934752 27045606 27154158 
2765.642 27260764 27365030 27466180 27562694 27653650 27738548 27817918 
2769.017 27892604 27963592 28031834 28097224 28159582 28218556 28274638 
2772.392 28328288 28380706 28432882 28485312 28538032 28590616 28642854 
2775.768 28694742 28747842 28803460 28863408 28928958 29001036 29079752 
2779.143 29165144 29257320 29356678 29463542 29577844 29699308 29826626 
2782.518 29958348 30092986 30230046 30369850 30513112 30660972 30814004 
2785.893 30971894 31133364 31296608 31459480 31620600 31778746 31933278 
2789.269 32083694 32229412 32370504 32506890 32639428 32768934 32896868 
2792.644 33024628 33152960 33282190 33412066 33542264 33672504 33802784 
2796.019 33932996 34062960 34191956 34318984 34442716 34562244 34677684 
2799.394 34789812 34900140 35010208 35120880 35231792 35341764 35448744 
2802.770 35550860 35646600 35735340 35816980 35891896 35960680 36023996 
2806.145 36082428 36136656 36187504 36235404 36280712 36322968 36361048 
2809.520 36394232 36421184 36442152 36458120 36470984 36483200 36497112 
2812.895 36514192 36535276 36560292 36588984 36620884 36655708 36693456 
2816.271 36733196 36774444 36815848 36855880 36893144 36926652 36955804 
2819.646 36980588 37001084 37017356 37029660 37037996 37042544 37043156 
2823.021 37040124 37033484 37023200 37009636 36992928 36974024 36954580 
2826.396 36936324 36921532 36911972 36908868 36912224 36921712 36936540 
2829.771 36956096 36980408 37010248 37046656 37090968 37144204 37206900 
2833.147 37279572 37362436 37455864 37560656 37677544 37807588 37950936 
2836.522 38107792 38277620 38459964 38653872 38858772 39074460 39301360 
2839.897 39539952 39791456 40057132 40338132 40635324 40948628 41277612 
2843.272 41620480 41974752 42337532 42704748 43072196 43434976 43787176 
2846.648 44121984 44432016 44708628 44943452 45128400 45256280 45322036 
2850.023 45322804 45258448 45131452 44946464 44710464 44430732 44114648 
2853.398 43768744 43397848 43004768 42590956 42157016 41703524 41231740 
2856.773 40744124 40244228 39736120 39223924 38711968 38204236 37704436 
2860.149 37216828 36745848 36296060 35871316 35474664 35107408 34769496 
2863.524 34459860 34177008 33919596 33686968 33478734 33294636 33134076 
2866.899 32996420 32880500 32785762 32711484 32657716 32624140 32610066 
2870.274 32613746 32632034 32660720 32695622 32732490 32768148 32800842 
2873.650 32829966 32856126 32880392 32904126 32928824 32955560 32985374 
2877.025 33018764 33055912 33096530 33139798 33184756 33230714 33276356 
2880.400 33321362 33365012 33406806 33446632 33484284 33519608 33553042 
2883.775 33584864 33615292 33644364 33671936 33697464 33720772 33741580 
2887.151 33760092 33776852 33792576 33807652 33822088 33835808 33848060 
2890.526 33858552 33867296 33874568 33880832 33886316 33890936 33893768 
2893.901 33893624 33889360 33880120 33866112 33847916 33826964 33805004 
2897.276 33783408 33763640 33746772 33733596 33724640 33720096 33719556 
2900.652 33722276 33727400 33733772 33741152 33749816 33760524 33774812 
2904.027 33793976 33819368 33851924 33892404 33941988 34002396 34075680 
2907.402 34164424 34271476 34399460 34550732 34727320 34931200 35163520 
2910.777 35425268 35715840 36032564 36371604 36726560 37089780 37453988 
2914.153 37811132 38154564 38478432 38777360 39046872 39283188 39483484 
2917.528 39646448 39772720 39864672 39926164 39961616 39975424 39970808 
2920.903 39949736 39912904 39859912 39790076 39702024 39594064 39464360 
2924.278 39310500 39130404 38922256 38684876 38418444 38124320 37804660 
2927.654 37462584 37101940 36727136 36343144 35956576 35574488 35204556 
2931.029 34855256 34533472 34245480 33995840 33787096 33620128 33494126 
2934.404 33407018 33354994 33333562 33337318 33360824 33398896 33447136 
2937.779 33502214 33561772 33624136 33688296 33753432 33819116 33885024 
2941.155 33951196 34017736 34084676 34152132 34219740 34287608 34355740 
2944.530 34424960 34496812 34573188 34656184 34748028 34850412 34964884 
2947.905 35092608 35234776 35391836 35563376 35746744 35936564 36124628 
2951.280 36300672 36452608 36569408 36642156 36664544 36633648 36549840 
2954.656 36415092 36232880 36007508 35744192 35448816 35128708 34792004 
2958.031 34446948 34101952 33763748 33437510 33126388 32832004 32554638 
2961.406 32293938 32049660 31821172 31608198 31410572 31227812 31059154 
2964.781 30903366 30758872 30623246 30494238 30369744 30248198 30128888 
2968.156 30012134 29898996 29790498 29687636 29590898 29500386 29416064 
2971.532 29337996 29266678 29202740 29147000 29099982 29061788 29032670 
2974.907 29012690 29002702 29004152 29018606 29048116 29093534 29155044 
2978.282 29231342 29320590 29420388 29529112 29645312 29768320 29898036 
2981.657 30033828 30175310 30321278 30470388 30620722 30770326 30916602 
2985.033 31056768 31187796 31306684 31410788 31498096 31568040 31620134 
2988.408 31654988 31672880 31674020 31658232 31625126 31574488 31506754 
2991.783 31422968 31325382 31216918 31101258 30983174 30866758 30756738 
2995.158 30656918 30569668 30496300 30436374 30388292 30350378 30321278 
2998.534 30300954 30290438 30291150 30304756 30331794 30371164 30421022 
3001.909 30478598 30541442 30607992 30677470 30750018 30825886 30904682 
3005.284 30986126 31069438 31154084 31240026 31327978 31418622 31512420 
3008.659 31609266 31708166 31807662 31906140 32002684 32097072 32189694 
3012.035 32281124 32372218 32463294 32554746 32646536 32739278 32833506 
3015.410 32930218 33029988 33133004 33239118 33347518 33457298 33567356 
3018.785 33677196 33785952 33893480 33999564 34104784 34209880 34316368 
3022.160 34425536 34538852 34656796 34778576 34902368 35025868 35147032 
3025.536 35264492 35378608 35490596 35602324 35715088 35828812 35942432 
3028.911 36054132 36162148 36265984 36366344 36465648 36566852 36671932 
3032.286 36782128 36896968 37014756 37133264 37250976 37366988 37482052 
3035.661 37597688 37715996 37839720 37970608 38110464 38260324 38420396 
3039.037 38590496 38769716 38956472 39149368 39346412 39546268 39747300 
3042.412 39948248 40147112 40341004 40526368 40698856 40853756 40987228 
3045.787 41097140 41183612 41249156 41298564 41337848 41373236 41409972 
3049.162 41451856 41500928 41557436 41620444 41689228 41762504 41839956 
3052.538 41921036 42005336 42092032 42179912 42267188 42352396 42434740 
3055.913 42514136 42591504 42668296 42745912 42825548 42907248 42990572 
3059.288 43074500 43158152 43240976 43322720 43403596 43483904 43563568 
3062.663 43642620 43720668 43797880 43874120 43949636 44024252 44097708 
3066.039 44168860 44236872 44300420 44359096 44413116 44463952 44512956 
3069.414 44561820 44611316 44661512 44711936 44761664 44810668 44859236 
3072.789 44908948 44961676 45019340 45083516 45154796 45232892 45316884 
3076.164 45405416 45496840 45589460 45681840 45772548 45860584 45945512 
3079.540 46027508 46107452 46186492 46265844 46346020 46426504 46505788 
3082.915 46581208 46649752 46708264 46754608 46787780 46808192 46817748 
3086.290 46819372 46816716 46813392 46812360 46816232 46826236 46842768 
3089.665 46865692 46894592 46928996 46968976 47014868 47067412 47126904 
3093.041 47193904 47268232 47349812 47438056 47532308 47632020 47736488 
3096.416 47844788 47956040 48068468 48180000 48288300 48391112 48486496 
3099.791 48573236 48651468 48722408 48788024 48851460 48915464 48982516 
3103.166 49054328 49131904 49215356 49304652 49399200 49499156 49604180 
3106.542 49714068 49828696 49947816 50071768 50202228 50342692 50498804 
3109.917 50677832 50889004 51141056 51442680 51801732 52224420 52716540 
3113.292 53283524 53930176 54661208 55479904 56386988 57379268 58448108 
3116.667 59577888 60743688 61912288 63040972 64076892 64964840 65648020 
3120.042 66073836 66203788 66015080 65505168 64691060 63608832 62308332 
3123.418 60843276 59272164 57649492 56020464 54424980 52894272 51449952 
3126.793 50108060 48877008 47758644 46749736 45843612 45031136 44302620 
3130.168 43649216 43062792 42536104 42062500 41635796 41249812 40899444 
3133.543 40580096 40287960 40020108 39773552 39545288 39332264 39131492 
3136.919 38940092 38756380 38578616 38405632 38235968 38068076 37900460 
3140.294 37731936 37562248 37392664 37225024 37061772 36904900 36754972 
3143.669 36611372 36472572 36336768 36202196 36068244 35934764 35801796 
3147.044 35669364 35537196 35404812 35271788 35138084 35003956 34869764 
3150.420 34735756 34601068 34464848 34325764 34182708 34035508 33884812 
3153.795 33731660 33577596 33423588 33270028 33116698 32963388 32809846 
3157.170 32656432 32503500 32351584 32201008 32051980 31903968 31757180 
3160.545 31611298 31466570 31322886 31180142 31037406 30894186 30750088 
3163.921 30605220 30461004 30319218 30181312 30048564 29920222 29794722 
3167.296 29669648 29542802 29412802 29279578 29143774 29006952 28870100 
3170.671 28734212 28599358 28466138 28334972 28207136 28084110 27966772 
3174.046 27855648 27749710 27647434 27546100 27443626 27338564 27230284 
3177.422 27119170 27006044 26892450 26779768 26669372 26562384 26459224 
3180.797 26359682 26262590 26166260 26068508 25967612 25862978 25755030 
3184.172 25645314 25536048 25429022 25325534 25225444 25127762 25031508 
3187.547 24935836 24839974 24744100 24648316 24552590 24456532 24359340 
3190.923 24260628 24159906 24057490 23953736 23849130 23743954 23637998 
3194.298 23530986 23422880 23313892 23204862 23097010 22991318 22888340 
3197.673 22787902 22689372 22591736 22493982 22395624 22296660 22197264 
3201.048 22098136 21999622 21902560 21807400 21714840 21625606 21539594 
3204.424 21456630 21375562 21294888 21212840 21128024 21040094 20949330 
3207.799 20857160 20765254 20675418 20589282 20507264 20429774 20355908 
3211.174 20284660 20214744 20144456 20073070 20000030 19925822 19851800 
3214.549 19779454 19710592 19645618 19584332 19525756 19467570 19407970 
3217.925 19345816 19280552 19212944 19143962 19074644 19005682 18937354 
3221.300 18869556 18802498 18736348 18671832 18609540 18549368 18491208 
3224.675 18434024 18376710 18318400 18258580 18197314 18135504 18074050 
3228.050 18013812 17955932 17901512 17851346 17805844 17765008 17727698 
3231.426 17692114 17655258 17614090 17566544 17511516 17449874 17384000 
3234.801 17317064 17252622 17193188 17140414 17094162 17053910 17018210 
3238.176 16985408 16953916 16922460 16889940 16855666 16819154 16780168 
3241.551 16739188 16696524 16653210 16609933 16567558 16527079 16488943 
3244.927 16453704 16420908 16389940 16358973 16326290 16289925 16248509 
3248.302 16201871 16150730 16096845 16042039 15988098 15935883 15885737 
3251.677 15837658 15791336 15747081 15704961 15665147 15627088 15589925 
3255.052 15552284 15512758 15470489 15425752 15379028 15331864 15284876 
3258.427 15239025 15194072 15149913 15106238 15063426 15022126 14982923 
3261.803 14945952 14910493 14875346 14839104 14800740 14760631 14719909 
3265.178 14680904 14645845 14616236 14592865 14575115 14561787 14551029 
3268.553 14540818 14529101 14513443 14491380 14461097 14421396 14372828 
3271.928 14316938 14257014 14196654 14139039 14085849 14037353 13993037 
3275.304 13951669 13912356 13874724 13839010 13805387 13773509 13742045 
3278.679 13709488 13674506 13636143 13595183 13552930 13511568 13472570 
3282.054 13437197 13405723 13377634 13352280 13329114 13307488 13286886 
3285.429 13266525 13245516 13223552 13200563 13177782 13157255 13140964 
3288.805 13130651 13126416 13126416 13128295 13128465 13123855 13113542 
3292.180 13097389 13077003 13054057 13030258 13006120 12981129 12954467 
3295.555 12925110 12892614 12857494 12820499 12783200 12746859 12712911 
3298.930 12681966 12655015 12632740 12616161 12606440 12604360 12610806 
3302.306 12625781 12647545 12673233 12698410 12717243 12724238 12714616 
3305.681 12685855 12638164 12574582 12499860 12420240 12340669 12264963 
3309.056 12195439 12132196 12074514 12021338 11971504 11924539 11880029 
3312.431 11837806 11797799 11760452 11726613 11697305 11673887 11656768 
3315.807 11645876 11640023 11637061 11634985 11631786 11627328 11622086 
3319.182 11617662 11615825 11617798 11624197 11634747 11648939 11665719 
3322.557 11684405 11704453 11724605 11743430 11759771 11771652 11778290 
3325.932 11779686 11776997 11771822 11766410 11762256 11760690 11762120 
3329.308 11766749 11774307 11784794 11797492 11811792 11826740 11840768 
3332.683 11852549 11861403 11867600 11872129 11876590 11882072 11888883 
3336.058 11896034 11901279 11901313 11893583 11875738 11847067 11808150 
3339.433 11760690 11707108 11649824 11591118 11532182 11473865 11415897 
3342.809 11357427 11297536 11235545 11171625 11106831 11043474 10983524 
3346.184 10929155 10881214 10839088 10801007 10764222 10726147 10684648 
3349.559 10638465 10587364 10531722 10472046 10409392 10344542 10278887 
3352.934 10213717 10150253 10089985 10033524 9981139 9932726 9887844 9846221 
3356.792 9807854 9772507 9739807 9708837 9677902 9645073 9608926 9568718 
3360.649 9525161 9479813 9435317 9394143 9358051 9328158 9304495 9286689 
3364.507 9274266 9266684 9263062 9261945 9261776 9259643 9252738 9238489 
3368.364 9215271 9182510 9140718 9091180 9036067 8977341 8917371 8858695 
3372.221 8803171 8753064 8709385 8672404 8641206 8614335 8589968 8566650 
3376.079 8543974 8521773 8500891 8482274 8465921 8451629 8438690 8425852 
3379.936 8412137 8397171 8380619 8362749 8343901 8324480 8304925 8286249 
3383.794 8269498 8255415 8244879 8238193 8235019 8234783 8237045 8241672 
3387.651 8249101 8259400 8272402 8286552 8298879 8306039 8304114 8290977 
3391.509 8265951 8231102 8190177 8146723 8104861 8066514 8031950 8000899 
3395.366 7972786 7947610 7926588 7911504 7904080 7904924 7913192 7925980 
3399.223 7939039 7948926 7951694 7945991 7931683 7910525 7885016 7857586 
3403.081 7830258 7803843 7778374 7753243 7727440 7700964 7673916 7647173 
3406.938 7621814 7599053 7579328 7563043 7550164 7540285 7533205 7528654 
3410.796 7525721 7523563 7520428 7514292 7503404 7486481 7463828 7436794 
3414.653 7408246 7380711 7356649 7337575 7323388 7312942 7305057 7298115 
3418.510 7290972 7283054 7274159 7264050 7252797 7240702 7228573 7217489 
3422.368 7208831 7203475 7201824 7203071 7205260 7206507 7205092 7200140 
3426.225 7192358 7182892 7173392 7164803 7156954 7149072 7139607 7127245 
3430.083 7111651 7093328 7073694 7054161 7036380 7021058 7008127 6996982 
3433.940 6986779 6976307 6964658 6951425 6936208 6919441 6901935 6884329 
3437.798 6867363 6851407 6835655 6818926 6799573 6776014 6747946 6716280 
3441.655 6682866 6650162 6620286 6593911 6570194 6547320 6523270 6496699 
3445.512 6467943 6438988 6413128 6393591 6382394 6380007 6384714 6393356 
3449.370 6401762 6406873 6405831 6397694 6382966 6363565 6341979 6320428 
3453.227 6301131 6284423 6269901 6255951 6240354 6221497 6198775 6173064 
3457.085 6146078 6120067 6097049 6077526 6061028 6045842 6030454 6013890 
3460.942 5996421 5979389 5964843 5954161 5947644 5944923 5943714 5941732 
3464.800 5937063 5928632 5916406 5901291 5884431 5867437 5851585 5837850 
3468.657 5826868 5818909 5813906 5811119 5809507 5807291 5802321 5793456 
3472.514 5779286 5759341 5734864 5707267 5678631 5651674 5627875 5608877 
3476.372 5594847 5585114 5577831 5570918 5561587 5547827 5528732 5504235 
3480.229 5475444 5444643 5414178 5386199 5362549 5344300 5331554 5324040 
3484.087 5320887 5320350 5320920 5320686 5317633 5311126 5300829 5287547 
3487.944 5272823 5258569 5245758 5235161 5226307 5218091 5209171 5198340 
3491.802 5184692 5167993 5148244 5125680 5100803 5074487 5048138 5023333 
3495.659 5002250 4985860 4974464 4967325 4961997 4955495 4945105 4928550 
3499.516 4905427 4876374 4843571 4809498 4777302 4749632 4728863 4717106 
3503.374 4714895 4721930 4736266 4754221 4771607 4784103 4788626 4784136 
3507.231 4772009 4755795 4739850 4728662 4725413 4730940 4744205 4762462 
3511.089 4782763 4801591 4816433 4825747 4828394 4824239 4813618 4797537 
3514.946 4778006 4757169 4737807 4722566 4713354 4710876 4714996 4724006 
3518.803 4734960 4745679 4753149 4755527 4752848 4746014 4737707 4730605 
3522.661 4727657 4730069 4737472 4747488 4756734 4762395 4762562 4757504 
3526.518 4750034 4743971 4743468 4751340 4768726 4794053 4824943 4858314 
3530.376 4891353 4922551 4951138 4976542 4998428 5015691 5027590 5033624 
3534.233 5033824 5029434 5022662 5015959 5011635 5010796 5014182 5020819 
3538.091 5029835 5040294 5050987 5061379 5070766 5078342 5082867 5083605 
3541.948 5079213 5069190 5053099 5031277 5004462 4973794 4941587 4910722 
3545.805 4884752 4867395 4861296 4867160 4883244 4905762 4929019 4947149 
3549.663 4955964 4953517 4940681 4921010 4899161 4880161 4866658 4859185 
3553.520 4855835 4853389 4848028 4837205 4819180 4793885 4762361 4725748 
3557.378 4685621 4643388 4600255 4557728 4517650 4481392 4449891 4423647 
3561.235 4401187 4379933 4356271 4325515 4282982 4224795 4148250 4053089 
3565.093 3942635 3823585 3706840 3605428 3532834 3498829 3507113 3553779 
3568.950 3628348 3717935 3807841 3886299 3945845 3982861 3997674 3994330 
3572.807 3978346 3955207 3929495 3903784 3878609 3853603 3828098 3801256 
3576.665 3773548 3745840 3719606 3696380 3677099 3661728 3649498 3639174 
3580.522 3629284 3617957 3604025 3586351 3563534 3533702 3494386 3442417 
3584.380 3375159 3291118 3191806 3082905 2974633 2880997 2816327 2791816 
3588.237 2811291 2870457 2957118 3054375 3146747 3220712 3267782 3285709 
3592.094 3276795 3246883 3204256 3157861 3115242 3081604 3059747 3049370 
3595.952 3048035 3051739 3056043 3056344 3049503 3033521 3008864 2978703 
3599.809 2947110 2919389 2900309 2892271 2895173 2906347 2921357 2935001 
3603.667 2942707 2940305 2924493 2893571 2846009 2782778 2706687 2623142 
3607.524 2540413 2468197 2414217 2382532 2371571 2373836 2378501 2376135 
3611.382 2360410 2330528 2291921 2253251 2223909 2209455 2209921 2218546 
3615.239 2225507 2219579 2191638 2137926 2059717 1964347 1863574 1772539 
3619.096 1704574 1669848 1672642 1709664 1772971 1850763 1931264 2004323 
3622.954 2062513 2102066 2121444 2120112 2096705 2047499 1966078 1845671 
3626.811 1682321 1480996 1259260 1050658 896139 828278 859053 973076 1137389 
3631.151 1314060 1473283 1597044 1679527 1726031 1747987 1759265 1769977 
3635.008 1784682 1801584 1815459 1820683 1814194 1797026 1773238 1747854 
3638.866 1725265 1706903 1691934 1678429 1664393 1649925 1636022 1624016 
3642.723 1613506 1601168 1580483 1542807 1479167 1382728 1250488 1085036 
3646.581 894744 690930 488969 304376 151647 44203 -6328 7885 89504 232895 
3651.402 423825 639792 855767 1047801 1195463 1286709 1318547 1298607 
3655.260 1244839 1182007 1136658 1127356 1160445 1228822 1318414 1411747 
3659.117 1494095 1556706 1596146 1613972 1614903 1605491 1592089 1579552 
3662.975 1571072 1567813 1569143 1572868 1575295 1572136 1557438 1525117 
3666.832 1469891 1388346 1280694 1155129 1029501 929309 886344 926819 
3670.689 1060855 1278900 1553381 1851129 2139058 2392627 2597475 2748566 
3674.547 2849411 2908015 2933900 2931332 2897374 2824564 2706487 2542946 
3678.404 2342521 2122476 1904972 1713623 1564421 1463242 1404202 1375083 
3682.262 1361322 1352016 1342045 1330113 1315456 1295516 1262683 1207457 
3686.119 1120413 996987 841591 668463 501275 364461 276691 245294 265982 
3690.459 328018 418950 528743 649382 774502 897235 1010703 1108155 1185296 
3694.798 1240851 1277305 1299271 1312831 1322602 1329880 1332572 1326490 
3698.656 1306882 1270824 1219485 1158053 1095831 1044347 1013393 1009872 
3702.513 1034615 1083109 1146026 1213172 1273749 1318946 1342876 1342178 
3706.371 1315988 1265375 1192971 1102110 997020 882460 764146 649548 547719 
3710.710 469298 424488 421835 464522 549643 667534 803979 943986 1072912 
3715.050 1179914 1258529 1306749 1326956 1325526 1310671 1289866 1268897 
3718.907 1249923 1231780 1211843 1187854 1159348 1128951 1101213 1079588 
3722.765 1066700 1061220 1059393 1056636 1050359 1041490 1035213 1039498 
3726.622 1061884 1105830 1168285 1239356 1303392 1345368 1350985 1311734 
3730.479 1226496 1102409 953782 797373 648917 517563 405153 308222 224242 
3734.819 155360 111145 104716 146344 238067 369900 523833 678983 818518 
3739.159 931767 1013824 1064043 1081681 1063080 1000241 882825 704039 467739 
3743.498 200076 -49035 -222868 -278998 -215417 -66826 111941 270656 373680 
3747.838 401770 354911 248476 112007 -21470 -123340 -175409 -172196 -116019 
3752.177 -13882 126491 293501 473179 650842 810717 940068 1032357 1085899 
3756.517 1105000 1097758 1074108 1043384 1012861 989415 978954 987854 
3760.375 1021231 1079754 1158053 1244041 1322269 1377443 1398418 1382795 
3764.232 1336893 1274812 1212574 1163601 1132804 1115796 1102774 1083707 
3768.089 1052983 1012961 972976 945946 944152 973906 1033453 1114400 1205132 
3772.429 1294519 1373521 1437211 1484055 1514976 1532499 1538883 1535259 
3776.286 1521293 1495492 1456227 1403902 1342444 1280727 1229819 1201410 
3780.144 1202706 1233574 1286410 1348426 1406761 1451307 1477704 1488310 
3784.001 1490072 1491136 1497985 1513313 1535026 1559200 1581048 1598275 
3787.859 1610713 1620058 1627940 1635623 1643971 1652220 1660468 1669249 
3791.716 1678496 1686778 1690471 1683818 1659836 1614072 1545966 1462212 
3795.573 1375116 1299903 1249690 1228822 1231115 1240087 1236166 1199782 
3799.431 1118553 992702 837275 682699 564473 513350 540620 634582 765938 
3803.771 899758 1006120 1063113 1063412 1014223 938873 868250 833092 852281 
3808.110 925425 1036508 1161907 1280495 1378374 1450509 1498517 1527711 
3811.968 1541543 1539282 1515441 1461846 1372723 1249690 1105431 962582 
3815.825 849724 788477 783630 821506 876616 920311 928612 889200 803912 
3820.165 691228 581361 509569 502967 567957 690067 840661 990179 1113304 
3824.504 1195895 1235767 1240851 1226895 1210747 1207158 1221745 1251086 
3828.362 1284815 1311069 1320807 1310438 1282888 1245636 1208288 1178053 
3832.219 1158019 1146126 1136625 1122207 1095798 1052252 988917 905901 
3836.076 806402 697766 591580 500778 438584 414140 428866 477127 548781 
3840.416 632027 715754 793290 861211 919581 971083 1019803 1069657 1124001 
3844.756 1184465 1250654 1320076 1388412 1449379 1497387 1527046 1534627 
3848.613 1518401 1476973 1408357 1309175 1173634 994828 770021 506948 229580 
3852.953 -20343 -191605 -247175 -179185 -11431 216551 465384 705267 919348 
3857.292 1099253 1241948 1347496 1417033 1452072 1455396 1431859 1387980 
3861.150 1331210 1269063 1206560 1146458 1090550 1041590 1004824 988584 
3865.007 999909 1040660 1103405 1172671 1227327 1246733 1218322 1141575 
3868.865 1031992 916991 829440 793688 814502 877148 955874 1026844 1074406 
3873.204 1096296 1101777 1108155 1131808 1181708 1255771 1342211 1423814 
3877.062 1483057 1507129 1490172 1435117 1352747 1261686 1183901 1137854 
3880.919 1134266 1171541 1236598 1308012 1362951 1383626 1360259 1296712 
3884.776 1209318 1125130 1073144 1071616 1122938 1212740 1316088 1405697 
3888.634 1461281 1471687 1437045 1368369 1285314 1211245 1165295 1158451 
3892.491 1190745 1254209 1335630 1421088 1499914 1563025 1604893 1622586 
3896.349 1614437 1580450 1522058 1443062 1348725 1246699 1145561 1053315 
3900.206 975633 914799 869976 837939 815664 802418 799597 811846 843881 
3904.546 899393 978256 1076366 1186459 1299969 1409254 1508459 1594251 
3908.403 1664892 1720575 1761859 1789806 1805610 1811033 1808272 1799887 
3912.260 1788242 1774335 1758499 1739171 1714421 1682521 1643505 1599339 
3916.118 1554212 1513347 1481229 1461115 1453734 1458089 1472152 1493530 
3919.975 1520130 1549690 1579053 1604660 1622386 1629204 1623849 1608152 
3923.833 1587334 1568744 1559965 1566450 1589661 1626211 1669748 1711992 
3927.690 1745292 1764288 1766417 1752212 1724567 1688209 1648461 1611278 
3931.548 1582378 1566250 1566317 1583709 1616799 1661000 1710462 1758666 
3935.405 1799754 1830132 1848500 1856253 1856120 1851328 1843841 1834624 
3939.262 1822379 1805177 1781455 1750781 1714986 1678163 1645900 1623550 
3943.120 1614936 1620956 1639082 1664726 1691169 1712225 1723403 1722538 
3946.977 1710196 1689805 1666522 1645800 1632497 1629537 1637951 1656577 
3950.835 1682687 1712591 1742764 1770177 1792268 1808405 1818187 1822779 
3954.692 1823677 1823045 1822346 1823544 1826772 1832395 1839449 1846803 
3958.550 1853225 1857717 1859681 1859115 1856519 1852626 1848267 1844707 
3962.407 1842544 1842311 1844041 1847934 1853525 1860313 1867833 1875853 
3966.264 1884272 1892925 1901744 1910463 1918484 1924907 1928668 1928867 
3970.122 1925373 1918051 1908200 1897318 1887068 1879014 1874722 1874988 
3973.979 1880146 1890396 1904805 1922544 1942180 1962117 1980257 1995269 
3977.837 2005388 2010282 2010015 2005288 1997100 1986615 1975131 1963781 
3981.694 1953563 1945642 1940649 1939584 1942446 1948937 1958622 1970638 
3985.552 1984152 1998698 2013943 2029689 2045635 2060782 2074299 2084919 
3989.409 2091878 2094841 2094807 2093143 2091478 2091212 2093176 2097238 
3993.266 2103098 2109890 2117215 2124973 2133031 2141022 2148781 2155507 
3997.124 2159603 2160802 2158471 2153476 2147016 2140889 2136394 2134396 
##END=
