
##TITLE=Z244_3_d
##JCAMP-DX=5.01  $$ Nicolet v. 1
##DATATYPE=INFRARED SPECTRUM
##ORIGIN=UniL
##OWNER=Nicolet
##LONGDATE=2011/09/20
##TIME=14:58:17
##SPECTROMETER/DATA SYSTEM=Nicolet iS5
##DATA PROCESSING=
Ratio against background
%Transmittance->Absorbance
Truncated
ElementMultiply or ElementDivide
##COMMENTS=
Number of sample scans: 32
Collection length: 51.19 sec
Sample gain: 2.0
Background collected on: Mar Sep 20 14:15:08 2011 (GMT+02:00);
Number of background scans: 32
Background gain: 2.0
Sample spacing:  1.000
Number of scan points: 12415
Resolution points: 8192
Number of FFT points: 65536
Apodization: N-B fort;
Phase correction: Mertz;
Laser frequency: 15798.0 cm-1
Number of rejected sample scans: 0
Number of rejected background scans: 0
Bench serial number: ASB1000141;
##RESOLUTION=4.000
##XUNITS=1/CM
##YUNITS=ABSORBANCE
##FIRSTX=649.893372
##LASTX=4000.122314
##FIRSTY=0.061787
##MAXX=4000.122314
##MINX=649.893372
##MAXY=0.360100
##MINY=-0.001915
##XFACTOR=1.000000
##YFACTOR=1.000000E-009
##NPOINTS=6950
##DELTAX=0.482117
##ZPD=6100
##XYDATA=(X++(Y..Y))
649.893 61787008 62382036 63000552 63672328 64417376 65238176 66122256 
653.268 67054568 68033696 69079112 70227344 71516616 72974672 74605416 
656.643 76397840 78339720 80435232 82713560 85224664 88019576 91141176 
660.018 94612704 98434704 102589464 107029032 111661152 116311840 120729264 
663.393 124619752 127664792 129602048 130235688 129414808 127037344 
666.285 123079352 117722824 111459936 105133512 99686472 95704656 93232712 
669.660 91891896 91196768 90725264 90208032 89531968 88691184 87753504 
673.035 86809112 85944576 85211320 84624992 84179152 83860432 83661776 
676.410 83586576 83646112 83853480 84220584 84752600 85452160 86319752 
679.785 87356744 88566840 89957248 91536336 93314696 95304576 97519408 
683.159 99981944 102729352 105813064 109307528 113299504 117874584 123117712 
686.534 129101440 135889488 143546864 152135472 161693072 172175584 
689.427 183385392 194874592 205842160 215231392 221786832 224294400 
692.320 221973344 214629760 202788768 187528368 170311152 152681792 
695.212 135934624 121118056 108874544 99444856 92790264 88646760 86650072 
698.587 86404848 87590272 90004368 93552832 98216216 103954008 110580104 
701.962 117695144 124626200 130454552 134259456 135265616 133090824 
704.855 127870904 120226320 111110944 101507928 92322072 84180480 77374680 
708.229 71944752 67739616 64533264 62087176 60212100 58775336 57677952 
711.604 56845624 56214420 55726952 55345104 55051552 54848648 54746968 
714.979 54752116 54854024 55028236 55242516 55469248 55697116 55930984 
718.354 56187192 56483204 56830100 57228336 57672536 58156096 58678004 
721.729 59243184 59860172 60535400 61270436 62061104 62900284 63781412 
725.104 64697332 65639964 66594460 67536192 68435128 69260568 69993552 
728.478 70636896 71219936 71794968 72418472 73142472 73996832 74984816 
731.853 76089728 77287104 78559304 79903808 81334608 82872768 84537752 
735.228 86336408 88262424 90303024 92451680 94718392 97136464 99753376 
738.603 102622072 105786640 109271600 113084208 117223256 121692624 
741.496 126511560 131720720 137378336 143565632 150390464 157995216 
744.388 166581632 176390128 187648912 200478048 214735808 229871456 
747.281 244730512 257678208 266782784 270244640 267131392 257720736 
750.174 243575504 226956880 210378768 196034016 185330672 178996544 
753.066 177010224 178785808 183304416 189351104 195786544 201576336 
755.959 205990064 208614624 209267648 207938448 204689232 199598560 
758.852 192748224 184250688 174302000 163207200 151401824 139443808 
761.744 127905416 117356864 108289536 101017496 95690568 92257248 90498096 
765.119 90053128 90492592 91409864 92425440 93250616 93698680 93659824 
768.494 93105008 92070104 90651456 88987312 87241376 85588328 84168816 
771.869 83076200 82347088 81965480 81885304 82055296 82441664 83030064 
775.244 83820368 84811520 85990336 87328792 88793520 90355000 91998928 
778.619 93726672 95547120 97464984 99472232 101546648 103658864 105784144 
781.993 107906928 110022936 112130248 114218448 116261952 118219408 
784.886 120039744 121678248 123100296 124286488 125227496 125914184 
787.779 126330304 126453000 126254736 125714584 124826672 123602272 
790.671 122066472 120249040 118178992 115878440 113365488 110660592 
793.564 107789784 104785512 101683176 98510680 95285840 92016904 88710360 
796.939 85383112 82071784 78828976 75719920 72806792 70131384 67714872 
800.314 65557108 63647076 61971248 60519672 59283672 58249560 57393564 
803.689 56682308 56075168 55536644 55042716 54582488 54155584 53765440 
807.063 53413148 53096788 52815384 52576796 52401172 52323384 52387116 
810.438 52631812 53088368 53769788 54668536 55753960 56969292 58233760 
813.813 59430376 60419132 61057208 61209432 60789308 59778420 58234824 
817.188 56280796 54076732 51797332 49584312 47539112 45719608 44143880 
820.563 42808800 41699476 40797264 40078392 39512804 39068588 38712620 
823.938 38419600 38176884 37982108 37839252 37750080 37708804 37701652 
827.312 37712892 37730780 37754708 37794320 37864452 37976536 38131920 
830.687 38321336 38530020 38744572 38959696 39179424 39413924 39672548 
834.062 39958240 40266584 40589372 40920996 41262200 41620992 42007932 
837.437 42431452 42892544 43385764 43903700 44443028 45008680 45614152 
840.812 46275536 47005676 47810020 48686268 49628624 50634752 51708900 
844.186 52861788 54105856 55446960 56879500 58383372 59928484 61474232 
847.561 62973700 64376912 65623240 66646060 67380144 67765336 67767112 
850.936 67387376 66672912 65708840 64604736 63481532 62440528 61555620 
854.311 60869848 60394036 60117336 60014000 60052120 60194784 60404432 
857.686 60649192 60903968 61156332 61407352 61669600 61961044 62299076 
861.060 62697352 63163848 63703744 64322308 65024292 65809688 66665300 
864.435 67558104 68430088 69198040 69771176 70060712 69996512 69544864 
867.810 68710696 67539640 66105240 64506360 62853180 61249720 59798000 
871.185 58583308 57665084 57082376 56849396 56963208 57412468 58188180 
874.560 59289176 60727192 62524660 64710632 67316072 70362560 73850304 
877.935 77739080 81936600 86274160 90496960 94303488 97349008 99311360 
881.309 99970552 99236696 97195056 94082176 90269664 86184128 82222264 
884.684 78741784 75996208 74134680 73227056 73270480 74211992 75954608 
888.059 78369560 81287768 84484256 87699896 90628584 92935352 94323544 
891.434 94549928 93481984 91128752 87641552 83294832 78416584 73368816 
894.809 68471360 63954212 59967512 56566192 53736000 51420972 49549288 
898.183 48051036 46860560 45922676 45188400 44611900 44156172 43793260 
901.558 43504928 43282228 43119980 43011060 42944704 42905968 42880004 
904.933 42857692 42837580 42824892 42827268 42849868 42892104 42948468 
908.308 43011572 43077284 43147320 43228680 43329236 43453468 43600088 
911.683 43762440 43932368 44104564 44279396 44462372 44660376 44877608 
915.058 45113180 45361464 45616544 45875576 46141060 46419716 46718852 
918.432 47042340 47387392 47746252 48109960 48473496 48838148 49211536 
921.807 49604292 50027224 50487936 50992248 51547356 52163256 52853852 
925.182 53631656 54500364 55445984 56431056 57400252 58282640 59007224 
928.557 59521568 59797164 59839488 59683556 59390864 59035844 58692264 
931.932 58431776 58310604 58367792 58626236 59091304 59754124 60592428 
935.306 61575624 62663092 63803284 64940944 66015816 66971064 67767928 
938.681 68391336 68859456 69220072 69548368 69930576 70443224 71148232 
942.056 72079752 73243288 74621152 76177416 77864040 79617152 81362376 
945.431 83014784 84476488 85653944 86465656 86852168 86790856 86295624 
948.806 85416752 84226448 82813904 81274392 79693936 78154392 76725760 
952.181 75459072 74390376 73535584 72892640 72446392 72174856 72057072 
955.555 72075064 72216296 72471600 72831592 73285576 73822112 74430480 
958.930 75104352 75843208 76651632 77536344 78503720 79557936 80701608 
962.305 81939152 83280544 84742208 86349064 88129720 90110240 92311624 
965.680 94743528 97404408 100282248 103360760 106625848 110072024 113708816 
969.055 117561824 121670048 126070264 130781040 135776592 140972512 
971.947 146207168 151238864 155791200 159563248 162290768 163810192 
974.840 164082288 163221824 161467008 159169232 156721088 154482496 
977.733 152771568 151796880 151641008 152257216 153470032 155001568 
980.625 156478688 157515856 157752640 156898608 154803888 151464592 
983.518 147026320 141736240 135912992 129894016 123966960 118376992 
986.411 113298304 108826952 105002976 101814400 99215456 97139160 95512352 
989.786 94268624 93346400 92695912 92276592 92050608 91985448 92052008 
993.160 92224464 92483816 92817136 93215912 93674752 94188440 94750456 
996.535 95354256 95993872 96666136 97370944 98110624 98887224 99701432 
999.910 100550512 101429280 102332352 103255040 104195456 105154064 
1002.803 106132568 107132408 108154528 109199552 110269008 111366880 
1005.695 112500032 113676096 114902272 116182456 117516440 118899976 
1008.588 120326360 121789592 123284968 124809976 126363456 127943816 
1011.481 129548832 131175664 132822152 134488864 136179904 137903424 
1014.374 139670352 141491504 143377328 145335744 147372768 149493840 
1017.266 151704496 154011040 156420208 158937872 161567728 164309808 
1020.159 167158368 170098512 173101584 176123888 179096432 181926528 
1023.052 184507712 186718192 188446048 189611392 190177920 190169904 
1025.945 189667648 188804032 187732320 186604016 185555488 184677712 
1028.838 184013376 183550496 183225344 182922608 182480496 181719200 
1031.731 180440608 178455616 175622944 171853872 167140160 161555616 
1034.624 155256592 148462672 141420464 134401552 127653416 121371288 
1037.517 115701040 110713864 106417512 102771200 99705560 97140808 94996312 
1040.892 93205448 91710512 90461000 89415848 88537664 87795440 87166928 
1044.267 86636112 86192168 85826912 85531520 85295680 85109944 84966872 
1047.643 84864136 84803992 84791232 84828328 84911672 85028400 85157024 
1051.018 85269824 85334872 85322656 85208744 84975616 84617784 84142672 
1054.393 83573448 82945440 82305960 81707776 81196848 80811384 80574856 
1057.768 80495208 80570272 80790672 81143448 81610000 82164056 82768920 
1061.144 83371176 83907904 84312912 84522056 84490008 84194120 83638760 
1064.519 82851752 81880216 80784520 79625352 78463632 77353936 76336768 
1067.894 75441176 74681152 74057344 73562632 73186504 72920896 72761928 
1071.269 72709512 72764864 72926264 73188192 73541360 73974904 74479688 
1074.645 75049952 75681976 76372680 77116712 77906184 78733008 79592152 
1078.020 80486192 81425992 82431328 83527056 84736656 86082640 87584432 
1081.395 89259384 91128224 93216040 95550824 98164952 101088792 104347272 
1084.770 107957816 111925352 116238744 120862648 125736800 130771192 
1087.663 135842960 140819168 145560800 149941184 153870064 157290624 
1090.556 160178864 162528736 164331680 165560640 166170960 166107888 
1093.449 165339312 163885760 161849584 159419872 156847296 154437808 
1096.343 152483632 151227792 150848112 151414768 152889808 155114544 
1099.236 157835536 160706368 163306944 165224512 166062832 165506272 
1102.129 163383328 159668704 154495440 148110464 140852464 133090912 
1105.022 125164736 117389600 110012216 103200160 97061832 91638336 86920888 
1108.397 82867272 79416720 76501840 74052072 72002504 70290760 68855032 
1111.772 67641144 66599056 65685980 64871112 64131348 63450812 62819288 
1115.147 62229132 61675444 61156676 60675748 60239168 59855612 59533424 
1118.523 59277252 59087356 58959972 58889764 58872504 58905972 58990144 
1121.898 59125280 59310600 59542812 59817660 60130848 60480712 60868628 
1125.273 61298864 61776124 62305192 62889100 63530392 64232328 65000048 
1128.648 65839916 66758528 67759136 68839968 69992192 71201944 72451048 
1132.024 73718168 74981112 76217024 77400184 78506176 79512600 80403648 
1135.399 81175560 81840176 82426520 82975712 83539024 84170344 84916184 
1138.774 85817832 86906640 88203920 89724080 91473344 93450224 95643944 
1142.149 98034712 100594488 103283704 106055280 108853008 111606520 
1145.042 114237240 116654560 118754832 120436664 121599984 122157112 
1147.936 122048264 121241960 119741456 117580112 114819352 111540288 
1150.829 107832472 103797152 99537312 95148544 90724368 86344168 82070616 
1154.204 77956816 74043120 70361160 66938972 63797072 60948000 58395724 
1157.579 56134136 54149616 52423340 50935200 49663912 48586428 47679128 
1160.954 46914784 46264520 45702344 45205164 44756560 44347388 43972588 
1164.330 43629616 43315908 43029024 42767408 42532884 42330920 42169688 
1167.705 42057136 41998696 41994644 42041512 42133508 42267220 42442340 
1171.080 42662596 42933144 43257996 43637528 44068804 44547392 45069840 
1174.455 45636752 46252356 46922796 47654392 48451156 49314452 50245000 
1177.831 51243948 52314412 53459880 54681648 55975308 57328072 58718472 
1181.206 60120612 61507288 62854828 64148128 65380932 66556260 67685672 
1184.581 68788520 69891808 71025648 72223648 73515416 74919568 76439328 
1187.956 78057024 79735856 81418640 83038616 84527120 85816056 86850304 
1191.332 87589296 88006512 88091568 87845856 87279896 86409416 85252616 
1194.707 83829528 82160768 80272928 78203064 75999720 73729904 71473024 
1198.082 69306352 67301992 65507792 63940816 62588916 61417392 60382348 
1201.457 59439724 58557868 57720524 56925056 56179004 55494964 54887860 
1204.833 54370936 53955836 53650704 53458492 53376396 53395504 53504064 
1208.208 53689504 53942140 54257580 54635992 55080104 55592716 56174932 
1211.583 56825756 57544432 58331864 59192564 60133284 61162472 62286876 
1214.958 63510604 64835564 66263332 67797280 69444504 71215680 73123960 
1218.333 75183840 77408504 79811936 82409336 85218176 88260032 91558712 
1221.709 95136296 99011608 103193776 107680488 112452296 117471232 122677824 
1225.084 127979488 133254256 138346624 143056320 147164816 150438528 
1227.977 152646848 153610752 153215776 151440416 148360272 144144336 
1230.870 139035776 133303832 127244968 121144416 115240472 109740136 
1233.763 104791072 100479512 96847184 93892816 91587680 89884008 88726088 
1237.138 88054192 87803472 87912544 88323168 88980768 89841176 90866280 
1240.514 92020512 93269512 94571624 95875680 97126680 98264696 99234784 
1243.889 99997416 100529496 100830216 100916952 100824744 100600128 
1246.782 100294888 99968592 99679056 99477696 99407368 99492104 99735616 
1250.157 100121032 100616128 101179712 101768072 102345560 102885824 
1253.050 103374376 103809864 104202952 104576240 104960736 105396968 
1255.943 105928952 106595560 107427472 108438496 109622624 110951944 
1258.836 112379280 113842728 115262288 116550416 117614696 118355888 
1261.729 118684936 118524672 117817952 116538888 114692568 112315424 
1264.623 109465664 106219728 102664960 98888640 94984848 91049272 87169520 
1267.998 83429920 79900384 76629736 73653192 70990376 68650536 66637836 
1271.373 64950564 63580944 62512920 61723068 61183108 60863020 60737860 
1274.748 60788584 61002216 61369840 61883360 62533044 63309000 64202136 
1278.124 65207488 66324980 67559688 68918784 70409320 72037472 73808752 
1281.499 75730304 77813352 80073032 82525600 85183424 88047696 91103496 
1284.874 94313208 97620952 100952736 104218192 107326952 110187648 112715088 
1288.249 114841280 116512152 117690848 118359024 118511136 118150760 
1291.142 117283760 115913968 114041256 111666032 108798088 105467640 
1294.035 101732760 97688664 93457040 89175976 84998424 81066040 77507752 
1297.411 74439328 71946544 70089840 68898128 68365816 68455024 69098464 
1300.786 70214808 71707456 73475864 75426040 77460736 79484552 81408728 
1304.161 83141720 84601360 85720456 86446368 86747568 86612328 86045840 
1307.536 85070400 83728712 82095600 80276392 78412976 76677368 75231744 
1310.912 74211288 73685424 73632968 73933976 74381800 74740616 74769824 
1314.287 74292312 73233288 71620624 69575160 67264776 64881728 62591748 
1317.662 60510648 58706868 57197420 55967508 54985548 54220072 53645040 
1321.037 53240184 52990244 52880500 52895732 53022736 53250372 53571528 
1324.413 53982284 54477976 55050312 55686872 56369292 57077124 57792316 
1327.788 58499668 59189224 59855040 60493240 61100796 61675860 62217812 
1331.163 62729852 63218044 63692084 64161956 64635688 65118632 65612600 
1334.538 66118128 66636444 67170856 67727064 68312264 68932376 69592504 
1337.914 70296408 71047968 71852632 72717888 73650832 74656840 75736064 
1341.289 76883264 78089064 79343968 80641120 81979456 83363912 84804880 
1344.664 86314904 87905120 89583728 91354824 93219120 95175640 97223160 
1348.039 99361336 101589936 103907792 106310800 108790336 111333736 
1350.932 113927312 116558736 119223120 121925760 124683944 127524064 
1353.825 130477520 133578928 136859424 140346608 144062192 148016768 
1356.719 152202688 156582832 161088160 165608528 170000672 174122320 
1359.612 177841392 181072592 183793552 186043968 187911392 189496256 
1362.505 190900912 192200160 193435936 194627328 195775040 196871200 
1365.398 197903440 198860448 199737200 200543184 201310464 202098144 
1368.291 202990480 204073520 205425888 207102112 209127376 211507984 
1371.184 214242944 217337984 220805712 224659600 228901232 233504624 
1374.077 238416368 243571696 248917728 254436400 260142416 266063328 
1376.970 272199008 278485280 284758880 290777440 296234944 300788000 
1379.863 304121152 305939520 305980832 304058528 300086336 294143680 
1382.756 286482848 277508448 267668848 257313792 246658080 235743792 
1385.649 224505152 212866192 200839840 188574816 176330896 164399552 
1388.542 153021712 142359744 132493552 123461176 115295040 108011784 
1391.435 101618320 96097704 91399800 87455128 84188808 81541312 79461120 
1394.811 77895760 76781392 76023912 75515880 75163944 74905792 74735664 
1398.186 74703936 74908896 75460256 76443720 77906112 79848376 82245256 
1401.561 85059760 88253984 91774848 95526552 99364008 103068696 106360104 
1404.936 108957056 110603864 111127880 110472184 108686872 105915720 
1407.829 102353744 98241888 93832024 89358368 85049400 81087968 77597152 
1411.205 74645784 72245248 70372032 68988848 68062832 67570528 67490056 
1414.580 67794376 68441416 69375504 70546576 71918904 73486960 75277968 
1417.955 77338456 79707272 82381136 85305880 88389408 91539080 94693128 
1421.330 97830288 100955328 104068984 107146272 110123176 112887192 
1424.223 115308904 117266264 118662464 119438912 119556752 118981328 
1427.116 117682984 115647504 112905064 109542448 105713136 101611752 
1430.010 97425512 93322664 89431232 85839312 82612800 79791632 77386368 
1433.385 75380320 73731080 72388144 71312592 70501440 69995272 69864368 
1436.760 70165112 70897912 71993592 73340488 74819928 76332784 77816640 
1440.135 79231816 80555040 81773288 82874528 83848344 84688128 85392504 
1443.510 85966432 86418472 86757352 86987640 87109144 87121528 87032944 
1446.886 86868272 86675552 86514656 86442080 86493312 86670336 86948736 
1450.261 87293056 87678280 88098464 88568304 89110152 89737776 90442192 
1453.636 91192392 91937952 92627504 93227008 93730664 94169832 94598576 
1457.011 95070832 95601160 96157856 96684304 97131984 97478592 97728248 
1460.387 97903888 98035208 98149464 98266688 98403112 98578488 98820288 
1463.762 99167448 99664416 100345024 101228232 102314952 103597528 105072776 
1467.137 106745600 108624784 110713088 113000728 115466952 118076400 
1470.030 120794336 123587872 126414168 129212336 131886872 134303968 
1472.923 136315984 137790048 138629616 138785504 138242336 137018416 
1475.816 135167264 132781136 129982280 126892912 123617904 120220504 
1478.709 116722352 113126728 109439240 105684944 101920088 98217248 94646368 
1482.085 91260864 88083856 85113528 82333072 79721640 77261256 74939928 
1485.460 72751112 70695496 68781384 67023716 65443264 64062640 62901088 
1488.835 61973120 61287452 60848768 60655060 60695140 60944220 61361024 
1492.210 61892416 62483224 63078672 63639716 64146668 64601928 65028644 
1495.586 65461516 65931580 66447632 66990196 67515912 67977344 68335328 
1498.961 68571496 68690280 68714384 68678480 68618520 68568312 68551320 
1502.336 68576344 68635056 68702008 68737440 68690824 68518256 68204856 
1505.711 67794920 67398600 67162000 67202496 67543384 68120312 68824128 
1509.087 69555832 70243080 70847120 71359800 71791568 72163240 72496464 
1512.462 72807608 73103336 73380664 73630224 73842296 74013328 74153192 
1515.837 74288928 74461008 74715272 75082008 75563240 76128336 76726152 
1519.212 77298864 77800784 78221352 78595912 79004536 79531192 80228960 
1522.588 81089208 82052256 83035200 83964344 84797304 85523048 86163152 
1525.963 86756832 87347920 87966136 88622904 89318400 90050592 90821848 
1529.338 91638456 92503832 93412552 94348456 95294216 96243576 97217608 
1532.713 98268976 99475528 100908216 102590600 104490928 106534368 108642152 
1536.089 110744776 112800872 114803128 116767528 118741944 120800808 
1538.982 123045440 125574456 128448872 131683064 135229600 139012672 
1541.875 142965216 147043840 151232288 155526560 159916192 164361136 
1544.768 168781728 173076400 177131872 180846112 184142464 186942672 
1547.661 189159552 190704512 191495888 191510672 190810832 189542944 
1550.554 187875648 185926576 183729120 181235360 178374912 175130768 
1553.447 171592656 167960784 164490096 161367296 158649840 156239664 
1556.340 153930000 151457600 148585440 145206304 141434832 137639648 
1559.233 134287856 131700040 129895312 128677232 127774448 126957536 
1562.126 126063840 124972888 123606496 121926672 119948376 117741160 
1565.019 115412792 113075136 110789888 108548760 106275080 103858808 
1567.912 101198528 98253728 95076688 91814440 88658632 85766760 83215400 
1571.288 80988624 79015776 77207264 75485648 73793832 72095640 70376824 
1574.663 68653992 66995612 65526748 64409308 63796380 63768940 64324840 
1578.038 65405548 66940636 68879688 71206824 73939080 77111488 80757784 
1581.413 84893536 89497960 94504240 99802416 105220216 110531416 115478840 
1584.789 119769088 123130296 125350800 126290592 125913040 124285776 
1587.682 121591352 118103928 114171512 110193120 106529712 103488528 
1590.575 101296384 100078392 99886640 100711544 102504160 105184080 
1593.468 108649424 112791680 117479096 122566512 127906752 133341584 
1596.361 138725968 143939504 148872944 153427584 157499040 160956800 
1599.254 163662320 165486240 166333376 166173184 165042864 163041440 
1602.147 160300352 156976832 153245056 149273296 145231776 141270896 
1605.040 137495456 133968744 130705952 127688720 124884224 122262832 
1607.933 119809248 117519608 115395120 113432728 111619968 109939656 
1610.826 108376624 106924128 105584664 104362904 103255168 102239848 
1613.719 101275128 100303408 99270216 98143440 96942032 95745256 94681848 
1617.094 93880432 93413416 93278176 93408648 93715040 94106328 94515648 
1620.470 94907824 95276640 95646672 96066288 96601608 97314640 98249616 
1623.845 99421824 100816096 102396896 104120024 105944984 107834800 
1626.738 109757032 111687416 113605416 115497040 117353952 119173592 
1629.631 120956360 122703968 124419200 126107336 127777856 129444360 
1632.524 131127672 132859768 134688352 136684448 138943840 141585744 
1635.417 144708608 148361008 152526192 157125200 162069888 167297344 
1638.310 172784464 178540880 184594432 190981040 197719088 204802848 
1641.203 212205328 219871600 227733168 235728112 243785616 251852848 
1644.096 259907488 267957600 276055904 284278656 292697824 301299456 
1646.990 309957984 318459680 326566464 334094208 340933920 347039680 
1649.883 352326912 356578080 359394240 360100448 357877760 352158432 
1652.776 343207552 332356832 321320288 311242432 302293952 294044480 
1655.669 285888768 277374304 268282800 258619424 248535872 238241104 
1658.562 227937600 217727328 207622288 197571424 187500864 177366640 
1661.455 167189248 157066800 147170768 137714336 128899112 120868288 
1664.348 113674808 107279616 101579928 96437448 91712808 87294720 83122304 
1667.723 79197336 75586696 72397928 69740672 67686256 66243380 65360940 
1671.098 64948872 64913744 65174220 65670408 66373884 67286248 68443584 
1674.474 69906672 71745208 74004216 76675872 79712728 83054224 86661720 
1677.849 90531368 94688968 99167824 103972032 109063744 114371224 119806328 
1681.224 125326664 130965472 136845472 143160000 150109808 157787760 
1684.117 166036896 174453632 182524688 189826688 196105840 201239600 
1687.010 205176384 207860608 209245408 209313104 208076480 205592752 
1689.903 201958272 197320752 191876832 185856768 179507904 173009824 
1692.796 166424800 159679040 152576320 144899744 136578112 127842216 
1695.689 119246488 111461520 104931032 99719408 95545296 91984968 88618680 
1699.065 85190032 81702536 78425040 75738664 73873560 72768080 72131472 
1702.440 71624296 70947536 69905240 68389208 66360800 63845852 60923560 
1705.815 57715640 54354416 50967132 47662192 44513912 41568156 38837208 
1709.190 36303408 33932816 31693268 29570360 27573708 25728204 24054446 
1712.566 22553834 21198714 19942716 18736348 17552434 16396236 15302483 
1715.941 14315808 13468776 12767981 12199154 11742136 11388855 11146026 
1719.316 11021553 11006327 11068115 11155341 11212832 11203822 11120904 
1722.691 10991102 10860524 10775464 10755866 10787861 10831987 10846358 
1726.067 10807190 10716808 10598297 10479039 10375421 10284010 10185291 
1729.442 10058074 9892759 9696334 9486010 9275417 9064823 8841212 8591083 
1733.299 8321509 8075628 7919265 7907354 8043291 8277805 8530119 8723618 
1737.157 8809359 8771760 8633669 8445784 8270578 8151451 8097300 8083021 
1741.014 8071543 8036067 7972279 7895510 7826445 7775271 7733849 7678502 
1744.872 7583813 7437098 7245048 7030184 6816940 6621429 6442115 6264388 
1748.729 6072352 5864213 5658892 5493263 5403946 5409045 5497692 5635999 
1752.586 5782006 5902534 5983319 6025078 6035997 6024137 5993969 5948417 
1756.444 5892962 5839763 5804470 5798090 5820420 5856421 5882550 5874892 
1760.301 5823375 5739900 5658321 5620290 5654931 5765217 5924971 6092983 
1764.159 6229060 6310847 6335961 6318344 6277363 6230169 6184323 6137777 
1768.016 6084112 6018930 5942941 5860350 5774988 5687594 5597768 5509369 
1771.874 5435383 5399551 5425787 5525645 5689944 5891081 6093218 6262976 
1775.731 6382899 6452103 6484894 6500567 6513718 6527710 6536153 6529190 
1779.588 6504367 6470903 6448135 6454592 6496598 6563332 6630682 6674892 
1783.446 6681823 6658001 6625972 6615744 6648008 6723380 6822460 6916142 
1787.303 6978967 6998194 6976341 6925804 6859890 6784797 6699758 6602523 
1791.161 6498246 6405663 6354621 6370727 6462932 6614970 6793312 6959674 
1795.018 7087064 7167295 7208461 7227225 7238310 7246396 7245318 7223890 
1798.875 7176390 7109832 7045136 7009272 7021731 7086222 7188484 7305933 
1802.733 7416908 7511764 7593659 7672398 7756212 7844360 7926553 7988547 
1806.590 8020508 8023242 8008728 7993778 7993710 8013353 8047713 8086734 
1810.448 8124070 8162491 8213543 8290537 8399502 8533566 8675920 8805707 
1814.305 8908612 8983768 9043442 9106576 9188365 9293357 9412934 9531461 
1818.163 9634334 9716053 9781217 9839069 9895471 9946422 9978020 9973341 
1822.020 9920658 9820970 9688507 9546770 9420723 9325245 9262994 9224138 
1825.877 9195033 9163052 9121362 9068207 9003658 8928397 8845135 8761787 
1829.735 8693801 8661013 8681531 8760738 8887508 9035559 9173542 9276094 
1833.592 9330933 9343459 9332525 9321319 9325990 9349519 9383342 9414627 
1837.450 9435824 9449775 9467622 9501962 9556423 9621359 9675158 9693353 
1841.307 9659302 9570988 9443714 9304969 9187587 9116828 9103429 9144203 
1845.165 9227759 9341868 9476529 9624070 9775523 9918996 10042951 10139569 
1849.022 10209681 10263111 10315293 10379630 10461049 10553651 10644984 
1852.397 10723499 10784329 10832871 10879992 10936767 11005546 11079026 
1855.772 11143000 11185224 11201442 11199130 11191990 11193384 11208888 
1859.148 11232723 11252343 11256389 11242346 11218544 11201136 11203244 
1862.523 11229254 11269889 11308248 11325763 11312533 11270195 11209806 
1865.898 11144768 11083139 11026480 10971970 10920253 10881996 10877409 
1869.273 10927456 11044187 11220686 11432123 11644481 11829293 11970721 
1872.649 12069268 12136796 12188897 12234426 12272360 12293526 12289470 
1876.024 12259578 12214216 12171348 12147256 12149335 12172063 12201880 
1879.399 12224202 12232892 12233301 12238414 12260533 12304093 12362350 
1882.774 12422286 12471830 12508249 12539146 12579119 12639391 12720075 
1886.150 12807940 12882000 12924768 12930913 12912036 12891931 12898247 
1889.525 12947400 13040160 13161286 13290541 13412523 13521207 13620415 
1892.900 13717353 13815579 13911979 13999230 14071098 14128840 14182857 
1896.275 14248249 14336698 14450683 14580872 14712917 14833310 14938408 
1899.651 15034611 15135914 15254091 15392039 15541467 15687751 15818311 
1903.026 15929008 16026052 16121535 16225189 16336095 16441245 16520608 
1906.401 16557574 16546320 16496481 16427068 16359868 16309569 16278643 
1909.776 16260549 16247168 16236300 16233753 16251331 16298147 16374834 
1913.152 16471529 16571723 16658753 16724104 16768666 16801900 16834070 
1916.527 16872406 16918602 16971278 17030512 17102054 17194534 17314548 
1919.902 17460464 17620852 17776056 17908004 18008840 18085276 18157408 
1923.277 18247624 18370316 18522810 18687086 18837480 18954418 19033134 
1926.653 19084130 19127168 19179732 19249206 19329014 19405614 19467014 
1930.028 19511894 19551264 19602946 19679524 19783652 19904036 20023830 
1933.403 20128976 20216514 20295458 20381188 20484234 20603562 20725566 
1936.778 20831644 20908198 20953642 20978922 21000344 21029034 21063292 
1940.154 21088508 21085170 21042110 20964212 20874300 20801890 20770780 
1943.529 20785936 20833940 20890294 20934900 20961118 20979514 21007786 
1946.904 21059222 21134354 21218060 21288694 21329202 21337798 21329132 
1950.279 21327462 21351684 21406888 21482044 21557458 21617040 21657926 
1953.655 21691258 21735634 21804926 21897402 21996066 22076626 22121878 
1957.030 22129166 22114976 22103366 22116124 22158802 22219688 22277162 
1960.405 22315982 22334748 22349854 22384390 22454902 22560988 22686614 
1963.780 22806582 22902836 22973188 23032684 23104034 23202694 23327178 
1967.156 23457222 23567644 23639678 23672848 23685304 23703150 23744934 
1970.531 23810452 23881824 23932448 23943968 23913402 23857356 23799636 
1973.906 23760124 23741468 23733176 23719072 23693074 23666690 23666130 
1977.281 23715504 23823122 23970156 24119658 24230216 24275798 24258384 
1980.656 24203906 24148486 24120254 24129746 24166630 24210596 24242198 
1984.032 24255056 24256808 24262660 24284278 24322894 24368066 24406652 
1987.407 24429892 24440302 24449100 24469852 24508520 24559214 24607744 
1990.782 24640776 24654314 24659924 24677426 24724632 24806262 24909518 
1994.157 25010450 25085004 25121830 25128572 25127762 25143316 25188188 
1997.533 25257786 25333296 25391818 25419994 25421608 25414722 25422698 
2000.908 25457900 25516790 25580642 25627950 25644752 25635682 25618706 
2004.283 25617826 25647844 25705142 25769198 25814274 25822186 25792790 
2007.658 25742124 25693118 25661974 25649882 25643626 25626718 25591818 
2011.034 25545290 25507196 25497288 25524768 25580432 25642676 25687496 
2014.409 25701064 25688970 25671992 25674980 25712138 25780274 25860200 
2017.784 25929976 25974050 25995790 26010740 26040326 26095600 26173300 
2021.159 26255516 26323208 26365668 26388166 26406440 26441126 26501626 
2024.535 26581616 26662818 26723562 26752528 26752670 26739278 26729622 
2027.910 26733534 26746678 26756088 26748052 26719650 26682196 26657004 
2031.285 26662606 26704182 26770042 26837956 26886000 26904578 26900806 
2034.660 26892732 26898444 26923718 26959184 26985028 26983126 26947762 
2038.036 26888326 26823612 26772756 26743190 26727860 26710102 26674374 
2041.411 26615892 26546392 26484792 26449364 26446794 26468030 26493844 
2044.786 26505394 26494300 26467572 26443096 26438026 26460280 26502894 
2048.161 26548856 26578092 26579994 26556042 26518602 26483242 26460598 
2051.537 26453380 26458766 26471938 26492682 26525788 26578164 26652778 
2054.912 26744598 26841058 26925728 26987954 27026282 27050754 27076534 
2058.287 27116596 27175322 27245876 27314676 27367678 27399050 27411332 
2061.662 27414050 27417048 27424920 27434730 27439956 27433672 27416696 
2065.038 27395132 27380242 27379536 27393614 27415250 27433956 27441226 
2068.413 27436284 27425026 27418320 27423508 27440556 27462334 27477758 
2071.788 27479170 27467204 27449344 27437096 27438472 27452802 27471724 
2075.163 27481782 27472994 27444368 27403886 27364712 27337964 27327554 
2078.539 27328050 27328790 27319334 27295270 27260270 27222944 27190738 
2081.914 27166822 27148056 27127142 27098610 27061440 27020148 26982206 
2085.289 26952768 26932074 26914024 26890546 26856462 26813286 26768104 
2088.664 26729904 26705064 26692660 26685438 26673316 26649854 26616102 
2092.040 26581264 26557276 26553718 26572352 26607014 26645554 26677404 
2095.415 26697454 26707776 26714788 26723352 26734098 26741852 26739172 
2098.790 26721024 26688396 26648304 26609832 26579362 26556818 26535720 
2102.165 26507966 26468240 26418130 26365526 26320464 26289626 26272834 
2105.541 26262836 26249674 26226900 26194344 26159188 26130930 26116644 
2108.916 26115974 26122802 26126706 26120936 26104960 26085468 26071430 
2112.291 26069636 26079978 26095882 26107916 26108832 26097148 26078818 
2115.666 26062492 26054540 26055526 26059818 26058728 26045570 26019430 
2119.042 25985518 25952488 25927374 25911864 25901628 25889460 25870294 
2122.417 25843530 25814238 25789170 25773240 25765928 25761814 25753516 
2125.792 25737378 25715652 25696248 25688340 25697724 25722756 25754502 
2129.167 25781610 25795674 25795286 25787412 25782770 25790996 25816068 
2132.542 25855768 25904162 25957342 26015562 26083356 26165240 26260338 
2135.918 26359964 26448942 26512510 26542516 26542236 26524026 26504022 
2139.293 26494584 26498738 26508916 26514094 26505712 26483560 26456160 
2142.668 26435032 26429046 26439118 26457288 26472078 26475988 26469156 
2146.043 26459260 26457252 26469260 26493632 26521208 26541424 26547800 
2149.419 26543010 26536846 26539416 26554352 26574676 26584010 26566294 
2152.794 26511944 26425138 26320674 26219756 26137966 26081456 26045042 
2156.169 26022208 26010986 26020768 26068826 26169180 26322224 26509374 
2159.544 26698368 26855226 26959572 27012496 27031360 27038906 27052870 
2162.920 27077240 27104428 27122310 27123086 27108730 27089546 27078226 
2166.295 27079142 27087184 27087078 27064050 27009708 26928232 26833586 
2169.670 26744424 26674586 26627552 26597678 26574748 26551182 26526140 
2173.045 26504162 26492082 26492646 26499936 26503634 26491168 26456864 
2176.421 26402848 26338558 26274276 26216694 26165030 26114250 26059994 
2179.796 26002826 25950552 25914888 25904688 25920656 25953578 25988650 
2183.171 26012606 26019888 26014082 26004584 26000292 26003108 26006062 
2186.546 25998322 25971200 25924210 25867268 25815154 25781186 25770428 
2189.922 25776336 25785898 25786286 25772080 25748630 25727992 25720962 
2193.297 25732810 25758158 25784702 25798978 25794056 25771834 25740966 
2196.672 25711082 25688022 25668406 25645136 25609814 25560154 25501822 
2200.047 25445954 25403798 25380824 25373834 25375098 25375590 25372252 
2203.423 25368668 25373728 25396384 25439596 25498694 25563634 25623414 
2206.798 25672836 25712840 25749472 25789520 25835232 25883516 25927338 
2210.173 25960368 25982212 25998568 26019536 26053098 26101584 26158730 
2213.548 26213912 26255656 26277972 26282478 26276002 26266990 26260444 
2216.924 26255938 26249532 26237176 26218454 26197230 26180548 26173826 
2220.299 26176608 26183540 26184772 26172384 26143526 26102076 26055668 
2223.674 26012182 25975210 25942534 25909260 25870188 25825000 25778654 
2227.049 25738820 25711644 25698814 25695088 25691890 25680570 25657300 
2230.425 25623520 25585914 25551158 25522904 25501188 25482214 25462328 
2233.800 25440194 25417710 25397756 25382510 25369758 25354336 25330452 
2237.175 25294662 25248656 25198968 25153358 25118214 25094904 25079844 
2240.550 25066820 25051200 25032456 25014310 25002202 25000516 25008272 
2243.926 25020558 25029790 25029684 25018698 25000060 24979738 24963630 
2247.301 24953560 24948154 24943734 24937312 24928292 24919028 24912642 
2250.676 24911520 24914326 24917904 24918396 24915308 24911520 24913064 
2254.051 24925696 24951594 24987672 25026138 25057062 25074332 25076368 
2257.427 25066714 25051270 25034878 25018206 24998340 24970158 24930186 
2260.802 24878290 24818048 24754730 24692402 24632150 24571838 24508870 
2264.177 24441950 24373428 24308316 24252814 24209966 24179454 24156824 
2267.552 24136752 24115772 24093704 24073950 24060538 24055460 24057246 
2270.927 24061660 24063096 24058682 24049052 24038196 24031122 24031156 
2274.303 24038020 24048072 24056546 24059662 24056650 24050208 24043764 
2277.678 24039912 24039282 24039982 24039700 24037146 24032486 24027024 
2281.053 24021386 24013122 23997574 23968756 23922470 23858196 23780212 
2284.428 23695592 23612178 23535114 23464602 23397982 23330814 23260228 
2287.804 23186126 23110394 23036072 22964242 22894104 22822090 22745162 
2291.179 22661862 22574042 22485294 22399704 22319088 22242042 22165010 
2294.554 22084190 21997252 21905520 21812696 21723268 21640026 21562856 
2297.929 21489076 21414928 21337484 21255846 21171368 21085866 21000100 
2301.305 20912718 20820904 20721706 20613986 20498508 20377854 20255116 
2304.680 20131336 20006412 19877778 19743738 19603742 19459322 19313148 
2308.055 19167196 19021156 18872638 18718184 18555074 18384246 18209924 
2311.430 18039372 17879310 17733598 17601772 17479436 17359962 17236694 
2314.806 17104846 16960910 16802142 16625632 16428031 16206959 15962798 
2318.181 15700083 15427675 15155609 14893588 14647249 14417594 14202200 
2321.556 13997417 13801555 13615252 13440478 13278174 13125801 12977510 
2324.931 12824799 12659928 12478513 12280437 12069813 11852209 11633318 
2328.307 11417734 11208956 11011323 10831614 10677618 10557964 10477341 
2331.682 10434541 10421237 10424291 10429959 10426735 10408442 10374201 
2335.057 10325676 10264570 10191532 10105925 10007280 9897674 9781962 
2338.432 9667467 9560691 9466640 9386322 9318577 9261573 9215474 9183357 
2342.290 9171546 9188094 9244311 9353582 9531359 9794976 10157104 10619552 
2346.147 11166730 11763141 12357509 12887085 13294880 13534710 13577954 
2349.522 13418025 13069320 12565033 11947289 11264652 10562818 9875912 
2352.898 9227794 8631640 8093080 7613215 7189663 6818051 6489871 6195784 
2356.755 5927289 5679369 5451588 5247905 5073246 4931097 4820989 4739381 
2360.613 4681970 4646067 4632671 4645665 4690444 4770569 4886662 5035802 
2364.470 5213061 5413910 5634455 5872441 6126687 6395878 6678795 6974153 
2368.327 7281605 7602426 7937926 8289794 8658004 9040701 9434504 9835951 
2372.185 10242688 10654017 11070529 11493701 11924879 12363850 12810159 
2375.560 13262904 13721047 14183748 14649752 15116598 15580102 16034922 
2378.935 16475694 16897140 17296306 17672064 18023898 18351580 18654018 
2382.311 18929326 19175508 19391548 19578266 19738502 19876218 19995864 
2385.686 20099928 20189888 20265948 20328096 20377298 20416088 20447590 
2389.061 20475722 20502990 20530778 20559162 20587336 20614818 20641434 
2392.436 20667356 20691716 20713400 20730394 20740856 20744054 20740890 
2395.812 20733836 20726052 20720212 20717538 20717432 20718474 20719064 
2399.187 20718406 20716912 20715624 20715206 20715416 20715034 20712602 
2402.562 20707492 20700542 20694044 20690466 20691924 20698318 20708326 
2405.937 20719030 20728448 20735260 20740404 20744922 20750274 20756704 
2409.313 20762926 20767862 20770504 20771406 20772866 20777178 20786630 
2412.688 20801646 20820660 20841622 20862064 20881184 20899124 20916786 
2416.063 20934900 20952772 20968596 20980210 20986050 20986294 20982190 
2419.438 20976246 20970578 20965778 20961328 20955832 20948150 20938204 
2422.813 20927216 20916890 20908824 20903434 20899992 20897628 20895266 
2426.189 20892970 20891162 20890432 20890502 20889632 20886122 20878194 
2429.564 20865714 20850556 20835260 20822884 20815308 20811832 20810198 
2432.939 20807904 20803140 20796120 20788368 20782286 20779402 20779540 
2436.314 20780444 20779540 20774256 20763760 20748676 20730256 20709682 
2439.690 20687650 20663778 20637960 20610822 20584104 20560480 20541790 
2443.065 20528798 20520254 20513132 20504552 20492292 20476174 20457800 
2446.440 20439290 20422514 20408206 20396156 20385632 20377056 20371084 
2449.815 20369312 20372160 20378410 20384940 20387300 20382092 20367784 
2453.191 20346048 20320388 20295804 20275876 20261850 20252478 20245082 
2456.566 20237482 20228490 20218596 20209398 20202558 20198810 20197874 
2459.941 20199192 20202490 20208426 20218354 20233662 20254458 20279974 
2463.316 20308164 20337262 20365770 20393864 20422062 20451202 20481002 
2466.692 20510040 20535920 20556276 20570210 20578720 20583340 20586746 
2470.067 20590360 20594216 20597134 20597760 20595292 20590150 20583376 
2473.442 20576150 20569202 20562010 20553568 20543390 20531890 20520184 
2476.817 20510284 20503476 20499724 20497572 20495626 20492326 20488226 
2480.193 20485484 20486700 20493784 20506670 20523032 20539186 20551934 
2483.568 20559786 20564026 20567500 20573856 20585982 20604394 20628404 
2486.943 20656062 20685670 20715904 20746174 20775544 20802410 20825110 
2490.318 20841588 20851042 20854798 20855424 20856258 20859596 20865852 
2493.694 20872910 20878020 20879236 20875552 20869226 20863210 20860430 
2497.069 20861646 20865678 20869746 20870858 20867694 20861124 20853686 
2500.444 20848332 20847358 20850452 20856118 20861924 20866200 20868564 
2503.819 20869780 20870894 20872248 20873258 20872562 20869330 20863662 
2507.195 20857196 20852364 20850800 20852782 20856884 20860254 20860012 
2510.570 20854344 20842872 20827266 20809120 20789446 20768834 20746800 
2513.945 20723130 20698422 20674306 20652414 20634068 20618884 20605610 
2517.320 20592548 20578374 20563608 20549990 20539290 20532828 20529424 
2520.696 20526542 20520740 20509520 20492430 20471626 20450090 20430918 
2524.071 20415012 20401226 20386398 20367680 20343650 20315040 20284452 
2527.446 20254908 20228318 20204884 20183468 20161740 20138382 20112838 
2530.821 20085354 20056552 20025982 19992742 19955342 19913436 19867858 
2534.197 19821520 19778068 19740756 19711352 19688954 19671134 19654944 
2537.572 19637784 19618580 19597642 19575874 19553864 19531822 19509710 
2540.947 19487598 19466358 19447160 19431532 19420200 19412302 19405962 
2544.322 19398996 19389676 19377654 19364490 19352086 19342594 19336774 
2547.698 19333932 19333138 19332894 19333138 19334556 19338506 19346092 
2551.073 19357318 19371176 19386524 19402392 19418884 19436452 19456342 
2554.448 19478624 19502362 19525790 19547176 19565614 19581800 19597850 
2557.823 19616258 19638824 19665900 19695924 19727234 19758198 19788090 
2561.198 19817396 19846908 19876390 19904836 19929984 19950278 19965196 
2564.574 19976366 19986948 20001104 20021506 20049264 20082856 20119814 
2567.949 20157228 20193674 20228732 20262998 20296848 20329832 20360352 
2571.324 20386572 20407442 20423556 20436824 20449916 20465442 20484128 
2574.699 20505178 20526818 20546862 20564476 20579868 20594284 20609086 
2578.075 20625208 20642440 20659884 20676216 20690672 20702626 20711870 
2581.450 20717848 20719830 20716980 20709300 20698006 20685530 20675104 
2584.825 20669476 20669996 20676148 20685738 20696408 20706484 20716042 
2588.200 20726678 20740718 20760076 20785310 20815480 20848332 20881218 
2591.576 20912822 20942272 20969534 20994884 21018394 21039780 21059050 
2594.951 21076334 21092856 21109866 21128302 21148582 21169386 21189042 
2598.326 21205498 21217816 21225818 21230340 21232464 21232604 21230306 
2601.701 21224704 21214372 21199410 21180902 21160968 21142182 21126146 
2605.077 21113274 21103048 21094284 21086144 21078526 21072056 21067536 
2608.452 21064926 21063674 21062458 21059988 21055606 21049694 21043432 
2611.827 21038076 21034008 21030564 21026426 21019992 21010776 20999126 
2615.202 20986746 20975688 20967274 20961466 20957432 20953398 20948044 
2618.578 20940708 20931738 20921932 20912024 20902044 20892170 20882088 
2621.953 20871832 20861992 20853408 20846314 20840508 20834600 20827230 
2625.328 20817114 20804150 20789584 20775440 20763552 20755106 20749650 
2628.703 20745860 20741726 20735746 20727650 20717674 20707110 20696894 
2632.079 20687336 20678788 20671318 20665654 20662978 20664818 20672220 
2635.454 20685288 20703010 20723340 20744194 20764700 20784718 20805262 
2638.829 20827856 20853200 20881010 20909866 20938134 20964040 20987302 
2642.204 21008272 21028130 21048024 21068510 21089620 21111188 21132616 
2645.580 21154322 21176726 21200836 21226792 21254280 21282118 21308844 
2648.955 21333100 21354086 21371558 21386316 21398638 21409358 21418478 
2652.330 21425928 21431496 21435152 21436752 21436476 21434176 21429826 
2655.705 21423596 21416216 21408766 21402918 21400168 21401840 21408140 
2659.081 21418652 21432088 21447684 21464916 21483960 21505614 21531066 
2662.456 21560418 21593778 21630100 21668166 21706722 21744832 21781864 
2665.831 21817226 21850464 21881094 21908694 21933156 21954834 21974282 
2669.206 21992198 22009242 22024684 22038244 22048840 22056022 22059788 
2672.582 22061390 22062052 22063726 22067562 22074186 22083806 22096322 
2675.957 22111628 22129898 22151166 22175540 22202460 22231266 22261014 
2679.332 22290800 22320692 22350970 22381948 22414534 22448412 22483550 
2682.707 22519038 22554460 22589886 22625314 22661304 22697960 22735248 
2686.083 22772258 22808434 22843530 22878002 22912824 22949572 22989328 
2689.458 23032824 23080168 23130838 23184484 23240898 23300468 23364098 
2692.833 23432182 23505278 23582932 23665116 23751828 23843424 23941202 
2696.208 24046286 24159486 24280530 24408302 24540632 24675460 24810752 
2699.583 24945136 25078020 25208974 25337126 25461660 25580994 25693224 
2702.959 25796692 25889636 25970920 26039412 26094616 26135892 26163656 
2706.334 26178614 26182484 26177452 26165978 26149826 26130718 26109254 
2709.709 26085996 26060980 26034804 26008278 25982316 25957834 25935360 
2713.084 25915170 25897654 25883060 25871910 25864876 25862698 25865580 
2716.460 25873564 25886190 25903458 25925438 25952734 25985764 26024742 
2719.835 26068790 26116150 26164676 26211942 26256676 26298530 26338452 
2723.210 26377426 26416720 26455808 26493456 26527726 26556078 26577212 
2726.585 26590880 26598102 26600250 26599300 26596762 26593804 26591232 
2729.961 26589824 26590106 26592466 26596904 26603034 26609690 26615680 
2733.336 26620118 26622584 26623500 26623606 26623924 26625262 26627728 
2736.711 26631392 26635654 26640446 26646012 26652706 26661516 26673106 
2740.086 26688080 26706966 26730116 26758272 26791716 26831154 26876800 
2743.462 26929006 26987426 27051882 27121674 27196100 27274242 27354798 
2746.837 27436814 27518706 27599660 27679394 27758116 27837208 27918184 
2750.212 28002712 28092416 28187902 28289740 28397650 28511672 28631244 
2753.587 28756018 28885222 29017756 29152740 29289078 29426630 29565502 
2756.963 29706654 29850652 29997932 30148246 30300210 30452440 30603584 
2760.338 30753076 30900660 31047088 31192958 31338270 31482458 31624410 
2763.713 31762992 31897012 32026294 32150730 32270704 32386356 32497786 
2767.088 32604710 32706552 32803270 32895152 32982334 33065602 33145272 
2770.464 33221558 33294604 33364404 33431496 33496202 33559340 33620700 
2773.839 33680776 33738860 33795228 33850100 33905192 33962480 34024616 
2777.214 34093852 34171844 34258924 34354848 34458892 34570248 34688560 
2780.589 34813868 34946352 35085784 35231864 35383784 35541044 35703356 
2783.965 35870956 36044268 36223768 36409292 36599904 36794352 36990328 
2787.340 37186108 37379340 37568500 37752248 37929672 38100156 38263864 
2790.715 38421592 38574852 38725372 38874968 39024832 39175076 39325696 
2794.090 39475792 39625248 39773920 39922564 40071596 40221036 40369984 
2797.466 40516692 40659124 40796028 40926784 41052376 41174288 41294520 
2800.841 41414056 41533336 41651296 41766772 41878520 41985448 42087140 
2804.216 42183124 42273176 42356712 42432768 42501168 42561900 42616248 
2807.591 42665484 42710924 42753080 42791360 42824892 42852208 42873200 
2810.967 42888304 42899644 42909808 42921292 42936072 42954760 42977404 
2814.342 43003344 43031692 43062320 43094812 43128912 43163932 43198776 
2817.717 43232048 43262644 43289844 43313088 43332528 43348088 43359660 
2821.092 43366796 43368956 43365920 43357388 43343844 43325500 43302692 
2824.468 43275532 43244452 43209684 43172756 43135572 43100736 43071100 
2827.843 43048816 43035024 43030012 43032756 43042268 43057708 43078816 
2831.218 43106224 43140588 43183368 43235560 43298336 43372728 43459732 
2834.593 43560600 43676072 43806532 43951616 44110176 44280168 44459844 
2837.969 44647192 44841232 45041688 45249180 45464908 45690304 45926912 
2841.344 46175808 46437824 46713132 47001244 47301220 47611464 47929880 
2844.719 48253644 48579352 48902484 49217396 49517204 49794580 50041392 
2848.094 50249576 50412760 50525156 50583260 50585460 50531520 50422656 
2851.469 50260812 50049384 49791464 49491208 49152384 48779164 48374444 
2854.845 47941168 47481520 46997736 46492104 45967908 45429000 44879920 
2858.220 44325332 43769988 43217952 42672688 42137996 41617492 41115020 
2861.595 40635072 40181456 39757720 39366724 39009860 38688100 38401356 
2864.970 38148992 37929892 37741764 37582516 37448716 37337556 37246428 
2868.346 37173184 37117060 37077440 37054380 37047268 37055096 37076284 
2871.721 37108184 37148136 37193400 37241372 37289932 37337700 37383780 
2875.096 37428092 37471216 37514128 37557912 37603580 37651348 37701324 
2878.471 37752536 37804192 37855232 37904868 37952708 37998384 38041632 
2881.847 38082144 38119328 38152716 38182204 38208000 38230216 38249936 
2885.222 38267700 38284240 38299836 38314568 38328460 38341164 38352384 
2888.597 38361324 38367336 38369508 38367296 38360672 38350288 38337364 
2891.972 38323288 38309100 38295132 38280836 38264916 38245520 38221492 
2895.348 38191824 38156808 38117160 38074184 38029264 37983916 37939584 
2898.723 37897384 37858596 37823928 37793776 37768368 37747224 37729876 
2902.098 37715744 37704652 37696808 37692544 37692544 37697532 37707940 
2905.473 37724600 37748560 37781380 37825044 37882200 37955528 38047784 
2908.849 38161148 38297264 38457868 38643552 38854388 39089144 39344776 
2912.224 39617112 39899936 40186068 40468536 40740524 40996224 41231556 
2915.599 41443728 41631056 41792968 41929792 42042644 42133356 42204484 
2918.974 42259224 42300788 42332236 42356052 42374024 42386592 42393092 
2922.350 42391268 42377312 42346664 42294360 42215328 42106380 41965628 
2925.725 41792892 41589160 41355996 41094660 40806036 40491376 40152852 
2929.100 39794688 39424412 39051804 38688388 38346344 38035956 37764972 
2932.475 37538152 37357308 37221916 37130016 37078628 37064120 37081552 
2935.851 37126264 37192388 37274732 37369048 37472120 37581900 37697672 
2939.226 37818648 37944176 38073100 38203800 38334292 38463188 38589116 
2942.601 38711680 38830692 38946976 39061156 39174752 39289136 39405796 
2945.976 39526484 39652760 39786444 39929544 40084460 40253168 40437224 
2949.352 40636416 40848188 41066180 41280968 41480764 41651772 41781076 
2952.727 41858200 41875460 41829084 41719316 41548868 41323016 41048080 
2956.102 40732152 40383188 40010372 39622308 39227480 38833404 38446864 
2959.477 38072992 37715928 37378724 37063612 36771384 36501796 36253484 
2962.853 36024072 35810932 35611784 35424912 35249332 35085136 34931844 
2966.228 34788988 34655148 34528628 34407528 34290408 34176576 34066184 
2969.603 33960044 33859196 33764680 33677268 33597288 33524904 33460412 
2972.978 33403978 33356174 33317928 33290632 33275892 33275966 33292848 
2976.354 33328124 33382616 33455436 33545092 33649124 33765288 33892224 
2979.729 34029308 34177008 34335840 34505884 34686368 34875112 35069296 
2983.104 35265860 35461940 35654544 35841664 36020508 36187756 36339900 
2986.479 36473004 36583720 36670024 36731424 36768788 36783644 36777836 
2989.854 36752520 36708244 36644932 36562632 36461900 36344692 36214404 
2993.230 36076056 35935772 35799488 35672924 35560356 35464060 35384108 
2996.605 35319088 35266796 35225036 35192840 35170924 35161260 35166396 
2999.980 35188136 35227048 35281600 35348880 35425124 35506988 35592360 
3003.355 35679908 35770128 35863108 35959488 36059240 36162364 36268684 
3006.731 36378776 36493184 36612452 36736404 36863928 36992640 37119912 
3010.106 37243252 37361068 37473276 37581000 37685932 37790088 37895180 
3013.481 38002324 38112200 38225440 38342108 38462572 38586728 38714216 
3016.856 38844384 38976264 39109124 39242600 39376704 39511752 39648224 
3020.232 39786588 39927220 40070068 40215296 40362824 40512400 40663268 
3023.607 40814300 40963888 41110504 41253236 41392224 41528196 41662820 
3026.982 41797344 41931800 42065236 42195464 42320364 42438796 42551520 
3030.357 42661208 42771980 42888120 43012232 43145124 43285120 43429300 
3033.733 43574080 43717256 43857880 43997008 44136692 44279580 44427980 
3037.108 44584108 44749032 44923900 45109616 45306804 45515640 45735768 
3040.483 45965804 46203740 46447004 46692508 46936932 47176876 47408084 
3043.858 47626140 47826400 48004108 48155900 48279712 48376444 48449008 
3047.234 48502468 48543740 48579388 48615332 48655876 48703576 48759220 
3050.609 48822204 48891656 48966200 49045020 49127564 49213760 49303764 
3053.984 49397308 49494140 49593672 49694896 49796960 49898788 49999712 
3057.359 50099544 50197872 50294852 50390696 50485408 50578980 50671240 
3060.735 50761580 50849484 50934380 51016056 51094728 51171176 51246744 
3064.110 51322772 51400456 51479868 51560752 51641348 51719836 51794456 
3067.485 51864084 51928644 51989104 52047000 52103592 52159892 52216052 
3070.860 52271656 52326224 52379860 52433584 52489292 52549308 52615916 
3074.236 52690236 52772508 52861416 52954720 53050404 53146296 53241456 
3077.611 53335672 53429412 53523476 53618652 53715192 53812956 53911380 
3080.986 54009488 54106040 54199840 54288668 54370788 54443648 54504644 
3084.361 54552056 54584740 54603040 54608936 54605556 54597252 54588532 
3087.737 54583428 54585192 54595448 54614988 54643732 54681196 54726784 
3091.112 54779968 54840564 54907824 54981264 55060168 55143864 55231904 
3094.487 55324628 55422340 55525836 55635384 55750684 55870688 55992912 
3097.862 56114716 56232820 56344508 56447924 56542416 56628664 56708696 
3101.238 56785048 56860576 56937936 57018672 57103728 57193032 57286028 
3104.613 57382332 57481908 57585252 57693504 57808064 57930608 58062460 
3107.988 58205196 58361120 58533332 58726628 58947600 59204072 59504468 
3111.363 59858200 60274488 60761488 61327668 61981072 62728620 63576572 
3114.739 64528956 65586396 66744348 67991920 69310080 70668552 72027424 
3118.114 73335944 74531296 75548496 76320896 76786768 76901296 76637832 
3121.489 75993560 74988912 73666376 72085312 70310200 68411000 66453116 
3124.864 64490980 62572844 60735460 59005060 57400744 55932004 54601388 
3128.240 53404568 52332768 51374236 50516296 49747428 49057560 48438340 
3131.615 47882892 47384804 46937820 46536028 46173668 45844900 45544712 
3134.990 45268044 45010224 44767324 44535644 44312348 44095468 43883576 
3138.365 43675744 43470828 43268024 43066304 42865556 42665592 42467880 
3141.740 42274056 42085828 41904392 41729564 41560464 41395252 41232212 
3145.116 41069856 40907560 40745108 40582572 40419732 40256300 40091728 
3148.491 39925836 39758848 39591596 39424520 39257800 39090668 38921536 
3151.866 38748376 38569564 38384924 38195664 38004168 37813368 37625872 
3155.241 37443044 37265060 37090824 36919004 36748268 36577632 36407056 
3158.617 36236376 36065436 35894096 35722064 35548632 35373608 35196936 
3161.992 35018900 34839820 34660636 34482136 34305284 34131020 33960260 
3165.367 33792792 33628360 33465386 33302758 33139120 32974220 32808776 
3168.742 32644286 32482788 32325596 32172960 32024514 31878542 31733580 
3172.118 31588740 31444128 31300594 31159424 31021536 30886930 30755068 
3175.493 30624632 30494132 30362850 30230864 30098384 29966124 29834824 
3178.868 29704666 29575716 29447620 29320308 29193528 29067282 28941496 
3182.243 28816136 28691380 28567260 28444026 28321958 28201302 28082202 
3185.619 27964298 27847204 27730072 27612300 27493536 27373642 27252332 
3188.994 27129788 27005656 26879514 26751188 26620612 26488314 26354964 
3192.369 26221516 26088492 25956322 25824648 25692908 25561208 25429408 
3195.744 25298350 25169052 25042812 24920080 24801000 24684616 24569910 
3199.120 24455340 24339926 24223418 24105544 23987420 23869572 23753334 
3202.495 23639294 23528502 23421132 23317352 23216430 23117418 23018778 
3205.870 22919008 22816536 22710424 22600112 22486168 22369808 22253202 
3209.245 22138614 22028552 21924966 21828548 21739188 21655174 21574242 
3212.621 21494056 21412700 21329410 21244676 21159472 21075082 20992172 
3215.996 20910736 20829802 20748328 20665758 20581986 20498058 20415360 
3219.371 20335526 20259144 20186418 20116204 20047218 19977790 19907088 
3222.746 19834320 19759136 19681362 19601318 19519170 19435760 19352294 
3226.122 19270370 19191368 19116572 19046496 18980966 18919774 18862186 
3229.497 18807792 18756516 18707842 18661352 18615938 18570116 18521532 
3232.872 18468804 18410068 18345428 18275234 18200838 18124174 18047004 
3236.247 17971542 17899336 17831840 17770254 17714960 17665748 17621888 
3239.623 17581966 17544394 17507550 17469570 17429456 17385896 17338444 
3242.998 17286928 17232144 17175748 17119736 17066314 17017210 16972692 
3246.373 16931452 16891008 16848192 16800316 16746074 16685816 16621122 
3249.748 16554305 16487740 16422903 16360521 16300933 16244382 16191345 
3253.124 16142132 16096570 16053934 16011955 15968023 15919900 15865838 
3256.499 15806010 15742203 15677067 15612731 15551494 15493632 15438867 
3259.874 15386444 15335434 15285905 15237825 15191465 15146482 15102430 
3263.249 15058348 15013997 14969204 14924998 14882992 14844624 14811265 
3266.625 14783188 14760323 14740990 14723817 14706234 14685874 14659827 
3270.000 14625522 14581249 14526874 14463975 14395879 14326561 14260301 
3273.375 14199426 14144722 14094919 14048476 14003303 13958785 13915401 
3276.750 13874689 13837642 13804907 13775048 13746080 13715643 13681858 
3280.125 13644041 13602842 13559596 13515773 13472570 13430977 13391063 
3283.501 13353715 13319172 13288116 13260479 13235576 13212416 13189668 
3286.876 13166614 13143629 13122523 13105584 13094692 13090491 13091721 
3290.251 13095442 13097526 13094247 13083115 13063412 13036165 13003661 
3293.626 12968020 12931220 12893946 12856094 12817086 12776375 12733996 
3297.002 12690632 12647511 12606508 12569432 12537987 12513330 12495972 
3300.377 12485811 12482162 12484173 12490823 12501292 12514114 12527380 
3303.752 12538738 12544842 12541773 12526392 12496177 12450176 12389556 
3307.127 12316910 12235755 12149709 12061705 11974264 11889087 11807741 
3310.503 11731856 11662927 11601973 11549705 11505710 11468796 11437158 
3313.878 11409367 11384195 11360862 11339265 11319097 11300392 11282913 
3317.253 11266998 11252784 11241632 11234559 11232485 11235647 11243195 
3320.628 11253669 11265400 11277132 11288354 11299610 11311513 11324675 
3324.004 11338380 11351271 11361305 11366610 11366406 11361134 11352631 
3327.379 11343958 11337496 11335421 11338687 11346951 11358822 11372801 
3330.754 11387052 11399944 11410761 11419265 11425796 11431511 11437804 
3334.129 11446071 11456753 11469409 11482030 11492339 11496831 11492985 
3337.505 11478628 11452875 11415966 11369093 11313927 11252547 11186686 
3340.880 11118490 11049184 10979820 10910570 10841024 10770063 10696873 
3344.255 10621012 10542857 10463594 10385500 10310679 10240822 10176506 
3347.630 10117625 10062856 10010704 9959170 9906488 9851202 9791655 9726761 
3351.488 9655982 9579794 9499388 9417133 9336181 9259203 9188230 9124509 
3355.345 9068072 9017798 8972368 8930461 8890653 8851864 8813079 8773214 
3359.203 8731799 8688224 8643200 8597166 8551341 8506804 8464536 8425176 
3363.060 8389401 8358156 8332452 8313267 8301210 8295469 8293949 8293139 
3366.917 8289017 8277569 8256125 8223640 8180824 8129236 8070868 8008054 
3370.775 7942347 7875400 7809139 7745384 7686124 7632875 7586881 7547568 
3374.632 7514394 7486110 7461940 7441143 7423649 7408920 7395944 7383609 
3378.490 7369589 7352503 7331441 7307045 7281032 7255661 7233021 7214390 
3382.347 7199736 7188248 7178715 7169822 7160861 7151564 7142167 7132937 
3386.205 7124955 7119195 7116636 7118185 7123877 7132331 7140853 7145771 
3390.062 7142941 7129569 7104409 7068878 7026513 6981829 6938530 6899242 
3393.919 6864232 6832625 6802972 6774533 6747778 6724491 6707228 6697604 
3397.777 6695922 6700666 6708776 6715742 6717727 6711670 6695787 6670080 
3401.634 6635695 6594852 6550112 6503762 6458325 6415381 6376073 6341408 
3405.492 6312091 6288928 6272220 6262001 6257631 6257867 6260690 6263816 
3409.349 6265228 6263615 6258640 6250673 6240219 6228152 6214102 6197902 
3413.207 6178576 6155958 6130552 6103669 6077392 6053166 6032469 6014999 
3417.064 5999982 5985772 5971092 5954732 5936257 5915902 5894305 5872407 
3420.921 5851551 5833349 5819346 5810951 5808869 5812596 5820689 5830495 
3424.779 5839696 5845909 5847991 5846111 5840872 5832812 5822167 5808130 
3428.636 5790064 5767735 5741613 5713679 5686587 5662752 5643921 5630091 
3432.494 5619954 5611831 5603977 5595754 5587329 5579744 5573435 5568534 
3436.351 5564306 5559037 5551385 5539907 5524034 5503329 5477928 5447897 
3440.208 5413608 5376135 5337122 5299253 5265445 5237508 5216079 5199380 
3444.066 5183954 5165814 5141773 5110224 5072442 5032551 4995278 4965482 
3447.923 4946245 4938537 4940849 4950065 4962767 4975235 4984921 4989714 
3451.781 4989144 4982944 4972018 4957572 4940782 4922954 4904723 4886427 
3455.638 4868031 4849267 4830203 4811340 4793014 4775828 4759681 4743971 
3459.496 4727691 4709938 4690210 4669276 4648311 4629221 4613616 4601929 
3463.353 4593658 4587530 4581670 4574236 4564592 4552806 4539413 4525619 
3467.210 4512059 4499203 4486983 4474898 4462645 4449958 4436334 4422208 
3471.068 4407413 4392418 4377490 4362931 4348674 4334852 4320863 4306507 
3474.925 4291816 4277093 4263206 4251294 4241825 4234698 4228542 4220947 
3478.783 4209237 4191405 4166849 4137177 4105667 4076434 4052988 4037169 
3482.640 4028407 4024160 4020649 4014295 4002657 3985268 3963600 3939993 
3486.498 3917124 3897432 3881718 3870385 3862964 3858417 3855743 3854038 
3490.355 3852467 3850093 3846048 3839563 3830036 3817367 3801891 3784577 
3494.212 3766763 3749550 3734110 3720876 3709580 3699455 3689530 3678502 
3498.070 3665671 3650634 3633126 3613146 3590427 3565003 3536508 3505342 
3501.927 3472843 3441548 3414931 3396697 3389852 3395395 3411558 3434668 
3505.785 3459249 3479356 3491113 3492683 3485034 3471975 3458615 3450232 
3509.642 3450766 3461721 3482896 3511121 3542755 3573856 3601051 3622167 
3513.500 3636066 3642582 3642448 3636367 3625341 3610072 3591563 3571150 
3517.357 3550639 3532266 3518069 3509317 3505910 3506278 3507313 3506144 
3521.214 3499798 3487606 3470806 3452403 3436138 3425417 3421911 3425785 
3525.072 3435637 3449397 3465629 3483965 3504975 3529727 3558690 3591930 
3528.929 3628214 3666640 3706339 3746910 3788956 3832711 3877506 3921002 
3532.787 3960055 3991087 4011252 4019813 4018408 4010717 4001855 3995668 
3536.644 3995434 4002122 4014863 4031952 4051417 4071751 4091686 4109815 
3540.501 4124131 4132326 4131825 4119883 4095398 4058239 4010382 3954806 
3544.359 3895827 3838594 3788254 3749751 3727426 3723817 3738889 3769537 
3548.216 3809412 3850595 3884159 3903048 3903149 3884360 3850662 3808911 
3552.074 3767164 3732105 3707508 3694075 3689396 3689764 3691234 3690866 
3555.931 3686756 3677834 3663532 3643217 3615986 3581006 3538045 3488107 
3559.789 3432664 3374791 3317494 3263342 3213202 3165471 3116010 3058412 
3563.646 2985209 2890236 2769507 2625209 2465697 2307244 2169526 2073167 
3567.503 2033384 2054723 2130900 2245890 2381299 2516784 2637677 2734395 
3571.361 2802854 2843841 2860884 2859183 2843508 2818361 2786680 2750366 
3575.218 2711055 2669780 2627109 2584142 2541646 2500654 2462065 2426878 
3579.076 2395525 2368239 2344453 2323199 2302680 2281362 2257713 2229204 
3582.933 2193436 2146417 2083654 2000395 1893324 1762724 1614803 1461414 
3586.791 1321738 1216063 1161607 1167322 1230052 1335397 1461879 1587965 
3590.648 1693764 1765918 1798922 1793200 1755206 1694296 1622020 1548859 
3594.505 1483223 1431294 1395326 1375482 1369034 1371626 1377742 1381565 
3598.363 1378739 1366873 1347496 1324596 1304655 1294785 1299438 1320441 
3602.220 1354409 1395359 1434818 1463575 1474679 1462511 1424612 1361754 
3606.078 1277836 1180146 1078957 987256 916957 876384 867320 883389 911711 
3610.417 936050 943256 925059 882161 822270 758304 703508 665974 646130 
3614.757 636208 624462 596855 543871 461106 351694 225535 97690 -13717 
3619.096 -92699 -128077 -116119 -61492 24022 124403 224077 309515 371293 
3623.436 405418 412018 392650 347980 274834 166397 13783 -189021 -436487 
3627.776 -706836 -957412 -1136004 -1201103 -1138053 -967330 -732274 -483189 
3631.633 -259196 -84019 34792 103987 139251 159602 179126 204949 235912 
3635.973 265849 287963 298242 296816 287765 275497 263661 252985 241945 
3640.312 228022 210319 189999 169778 152111 137030 120392 93282 45031 -34159 
3645.134 -150833 -305256 -490669 -694166 -900477 -1093866 -1261335 -1393698 
3648.991 -1483062 -1521695 -1501389 -1415991 -1265696 -1062137 -827396 
3652.367 -590742 -381966 -228299 -146891 -141923 -202070 -301779 -404974 
3656.224 -474121 -483388 -425265 -310719 -161299 -2849 142897 262467 349306 
3660.564 403793 431453 440010 438352 433974 433045 438584 451122 468171 
3664.903 484557 494210 489997 464887 413212 331533 220795 89404 -43602 
3669.243 -149905 -194817 -146792 8217 262401 586669 944086 1296480 1614471 
3673.583 1881577 2091545 2247722 2357745 2427611 2454668 2427778 2331761 
3677.440 2157006 1905172 1592388 1247131 905834 606610 375139 221159 136268 
3681.780 100838 91459 89404 85096 74955 57922 30650 -15274 -92467 -212535 
3686.601 -381768 -595110 -834837 -1070730 -1270652 -1409056 -1474807 
3689.977 -1470217 -1407173 -1300318 -1162276 -1004654 -839070 -677063 
3693.352 -531277 -412720 -328201 -279230 -261017 -265057 -281018 -300653 
3697.209 -320652 -343000 -373856 -419473 -484844 -569697 -667700 -766310 
3701.067 -850314 -904643 -918497 -888342 -818401 -719538 -605665 -491298 
3704.924 -389680 -310321 -259560 -240618 -253500 -297276 -369221 -466309 
3708.781 -584223 -716925 -855969 -989281 -1101964 -1177576 -1201202 -1163664 
3712.639 -1064583 -913538 -727709 -528530 -338199 -175044 -52613 22233 49438 
3716.979 35355 -9376 -73982 -148978 -229392 -314560 -405536 -502088 -601165 
3721.318 -694695 -772793 -826900 -853092 -854480 -839765 -820550 -805668 
3725.176 -798623 -795250 -786419 -760654 -710805 -637660 -551033 -468031 
3729.033 -407158 -386104 -416824 -502319 -636072 -802923 -984224 -1161714 
3732.890 -1324466 -1470118 -1601394 -1720485 -1822617 -1893881 -1915159 
3736.266 -1870623 -1755467 -1579638 -1365623 -1140036 -924845 -735019 
3739.641 -576977 -452441 -362964 -314493 -318731 -392626 -550438 -793563 
3743.498 -1095453 -1397562 -1625426 -1716162 -1654177 -1472859 -1235796 
3746.874 -1006934 -835201 -751095 -760885 -850909 -988389 -1134616 -1254067 
3750.731 -1323046 -1333418 -1286641 -1189240 -1049014 -877628 -690031 
3754.106 -504272 -339954 -213827 -135298 -106380 -120193 -163618 -220020 
3757.964 -274362 -315652 -335981 -330386 -294064 -224226 -121816 4970 140378 
3762.303 264854 358757 407574 407541 366683 303613 239592 192949 170276 
3766.643 165536 164342 151084 116879 63191 2551 -46782 -65732 -43834 18290 
3771.465 109820 215358 318733 407242 474174 518061 540885 546425 538231 
3775.804 518326 486514 441403 382369 311505 235945 167922 121850 111178 
3780.144 141936 210286 302320 399283 482666 538994 563544 560824 542411 
3784.483 521644 509933 513284 530833 557705 587996 617394 643907 667733 
3788.823 689005 707557 721894 730523 732714 729030 720732 708121 689270 
3793.163 659271 611587 541681 449695 343769 239094 153934 104384 95502 
3797.502 119464 154862 175811 155293 74491 -71331 -267011 -477397 -656816 
3801.842 -761117 -767931 -683778 -539683 -378292 -239426 -155172 -140896 
3805.699 -192201 -284197 -378457 -434401 -423643 -342073 -206773 -47114 
3809.557 109919 244001 346521 418585 465484 491987 496863 473113 410293 
3813.896 300132 144090 -41117 -225617 -371009 -447708 -448171 -389911 
3817.754 -307573 -240420 -222868 -273534 -392096 -555534 -722979 -844990 
3821.611 -881199 -818269 -671703 -477894 -276316 -101875 24652 98286 127883 
3825.951 132158 132026 144223 174883 217712 258058 280006 272082 231304 
3830.290 164077 84002 8117 -50327 -83556 -92102 -82827 -66461 -55562 -60763 
3835.112 -92301 -157192 -257838 -389978 -540411 -689171 -811092 -884605 
3838.969 -898261 -853125 -761580 -641861 -513803 -392295 -286415 -198394 
3842.827 -124864 -59438 5003 73166 147073 224508 301226 371060 427506 465716 
3847.649 482434 476032 446578 393114 312168 196860 37045 -177893 -452772 
3851.988 -777192 -1119216 -1424347 -1627076 -1681705 -1581025 -1357366 
3855.364 -1062500 -746695 -446880 -182828 36614 209192 335810 417192 453775 
3859.703 447142 401803 325730 229082 123839 19947 -76499 -160504 -228200 
3864.043 -273203 -286713 -261680 -197566 -105121 -5235 74690 107599 77209 
3868.382 -16864 -153747 -296614 -401001 -434203 -388985 -285488 -158616 
3872.240 -41117 43739 91625 113101 129971 163613 225900 314821 415368 505720 
3877.062 563179 572104 525923 430127 300397 161724 43606 -29620 -43834 -1093 
3881.883 82776 180485 262467 304940 293733 231071 134777 37708 -24452 -26407 
3886.705 37509 151415 285543 405418 483927 504891 466579 382037 275630 
3891.045 178761 117210 106572 147637 230210 335678 444986 542842 617195 
3895.384 660764 670421 645466 587134 499252 388372 263429 135340 16169 
3899.724 -84218 -160504 -212767 -246314 -268468 -285985 -301481 -311348 
3903.581 -307143 -279064 -218795 -124301 -99 143129 291975 434571 561454 
3907.921 667633 751666 815398 861942 894877 917721 933560 944385 951657 
3912.260 955542 954413 945248 924329 889067 838802 776859 710178 648220 
3916.600 600007 571772 565203 577512 602695 634549 668728 702877 735933 
3920.940 767166 794120 812776 819116 810253 786784 753591 719637 694149 
3925.279 684823 694547 720168 754255 786651 808925 815099 803049 774900 
3929.619 735402 691427 649747 617261 600505 603790 630302 679746 748347 
3933.958 828976 912740 990942 1055906 1104236 1135429 1152637 1159913 
3937.816 1161176 1157654 1148352 1129848 1097957 1050525 988817 917787 
3941.673 846073 784128 741177 722458 728300 753524 789340 825755 853542 
3946.013 867353 865262 849990 827116 804477 788975 785821 797672 823730 
3950.353 861211 905801 952819 997983 1038269 1071018 1095167 1110481 1117158 
3954.692 1116958 1112075 1105099 1098788 1095034 1094602 1096861 1100283 
3958.550 1102608 1101811 1096629 1087627 1076001 1064242 1054876 1050093 
3962.407 1051289 1058795 1071882 1089653 1110381 1132671 1154897 1175462 
3966.264 1193204 1206660 1215266 1218821 1218024 1214103 1208986 1204600 
3970.122 1202739 1204201 1208886 1215897 1223805 1231182 1236897 1240685 
3973.979 1242878 1245005 1248161 1253378 1260855 1270060 1279265 1286643 
3977.837 1290298 1288869 1282123 1270658 1255638 1239289 1223838 1211644 
3981.694 1204700 1204500 1211843 1226762 1248294 1274513 1303226 1331974 
3985.552 1358431 1381232 1399515 1413243 1422884 1429300 1433355 1435882 
3989.409 1437544 1438907 1440536 1442231 1443761 1444425 1443694 1441334 
3993.266 1438076 1435117 1434419 1437477 1445356 1457059 1471022 1484354 
3997.124 1494162 1498750 1498052 1493298 1486847 1481328 1478203 1477837 
##END=
