
##TITLE=Z244_1_a
##JCAMP-DX=5.01  $$ Nicolet v. 1
##DATATYPE=INFRARED SPECTRUM
##ORIGIN=UniL
##OWNER=Nicolet
##LONGDATE=2011/09/20
##TIME=11:41:51
##SPECTROMETER/DATA SYSTEM=Nicolet iS5
##DATA PROCESSING=
Ratio against background
%Transmittance->Absorbance
Truncated
ElementMultiply or ElementDivide
##COMMENTS=
Number of sample scans: 32
Collection length: 51.17 sec
Sample gain: 2.0
Background collected on: Mar Sep 20 11:38:25 2011 (GMT+02:00);
Number of background scans: 32
Background gain: 2.0
Sample spacing:  1.000
Number of scan points: 12415
Resolution points: 8192
Number of FFT points: 65536
Apodization: N-B fort;
Phase correction: Mertz;
Laser frequency: 15798.0 cm-1
Number of rejected sample scans: 0
Number of rejected background scans: 0
Bench serial number: ASB1000141;
##RESOLUTION=4.000
##XUNITS=1/CM
##YUNITS=ABSORBANCE
##FIRSTX=649.893372
##LASTX=4000.122314
##FIRSTY=0.076124
##MAXX=4000.122314
##MINX=649.893372
##MAXY=0.277591
##MINY=0.006769
##XFACTOR=1.000000
##YFACTOR=1.000000E-009
##NPOINTS=6950
##DELTAX=0.482117
##ZPD=6100
##XYDATA=(X++(Y..Y))
649.893 76123992 76725008 77393176 78133840 78939632 79792912 80671720 
653.268 81563224 82468264 83405464 84403760 85495048 86706624 88056464 
656.643 89556440 91219288 93061248 95104816 97373144 99884472 102649312 
660.018 105669432 108940968 112445120 116134216 119915664 123626184 
662.911 127050296 129966248 132169472 133527008 133968744 133448120 
665.803 131915328 129316032 125660640 121124312 116137816 111312080 
668.696 107171080 103966096 101648256 100005088 98792120 97811784 96943112 
672.071 96129824 95366848 94674712 94080448 93599608 93233576 92974472 
675.446 92814712 92754080 92802408 92975336 93287376 93746864 94352152 
678.820 95093144 95956384 96932624 98021464 99234608 100591352 102115792 
682.195 103831408 105756712 107911008 110319752 113018176 116059240 
685.088 119507008 123426128 127879712 132921096 138596112 144951008 
687.981 152028960 159852272 168373728 177419536 186614560 195304896 
690.873 202643760 207637440 209327488 207089520 200742864 190663552 
693.766 177677136 162951904 147770640 133250744 120331776 109615464 
696.659 101348056 95517056 91895160 90154696 89935848 90948272 93011576 
700.034 96046240 100038296 104951120 110613864 116667432 122519592 127379608 
703.408 130474032 131169704 129173968 124626680 118065696 110299976 
706.301 102156712 94395472 87540728 81833048 77299496 73805376 71155224 
709.676 69145744 67618920 66468792 65619072 65014288 64604700 64342252 
713.051 64189420 64123280 64133764 64218848 64374028 64585976 64832412 
716.425 65089264 65339104 65578648 65818444 66076956 66369488 66702580 
719.800 67070424 67460872 67862048 68270928 68694200 69146592 69643072 
723.175 70192136 70793888 71440440 72119072 72814624 73512200 74194584 
726.550 74840552 75427336 75933616 76348032 76678000 76953944 77228008 
729.925 77557816 77998128 78583120 79319904 80192016 81170328 82228440 
733.300 83351344 84541496 85813184 87184304 88664760 90254568 91945896 
736.674 93733168 95622800 97639320 99820424 102209320 104843920 107745960 
740.049 110923240 114375664 118106920 122133016 126487656 131218912 
742.942 136395632 142110832 148489008 155708064 163979856 173501488 
745.835 184373008 196463376 209290016 221863328 232805824 240510160 
748.727 243487808 240959552 233123200 221229968 207133632 192943216 
751.620 180544176 171182272 165525136 163586448 164877968 168528688 
754.513 173496656 178807872 183583552 187208080 189337216 189821920 
757.405 188658096 185902736 181625552 175895248 168803168 160507616 
760.298 151256368 141407888 131428104 121799768 113010184 105483016 99493064 
763.673 95174072 92484720 91236336 91115552 91746088 92769624 93849752 
767.048 94728824 95239832 95284600 94840224 93943120 92685040 91195176 
770.423 89623312 88127616 86835448 85831960 85152344 84785304 84692232 
773.797 84828040 85161056 85674528 86363648 87224080 88243144 89397032 
777.172 90659536 92007200 93428824 94924360 96498440 98151496 99873296 
780.547 101642264 103432984 105225072 107006608 108774800 110528296 
783.440 112257928 113942040 115545768 117026696 118348224 119483064 
786.332 120415408 121138416 121644264 121919128 121943216 121693024 
789.225 121150728 120311848 119186456 117797264 116170112 114329744 
792.118 112293840 110074840 107686256 105146896 102482352 99723864 96899448 
795.493 94030992 91133336 88218576 85305112 82424800 79621056 76945832 
798.867 74448768 72163080 70104904 68272976 66656916 65243832 64022788 
802.242 62984580 62115080 61392588 60788772 60269996 59808040 59384784 
805.617 58992800 58632872 58307308 58015236 57752008 57513756 57304592 
808.992 57140876 57053240 57082188 57265952 57635380 58205196 58970748 
812.367 59904712 60954936 62047308 63075796 63914976 64438820 64529464 
815.742 64113832 63178756 61779332 60026744 58065868 56052924 54114184 
819.116 52338072 50772380 49428532 48298156 47363108 46603860 45997780 
822.491 45519140 45140456 44833336 44575480 44354508 44167944 44019192 
825.866 43911216 43841824 43801948 43780396 43768192 43764088 43774388 
829.241 43809424 43876612 43975960 44099208 44234416 44371752 44509320 
832.616 44653692 44817024 45010300 45238480 45498388 45782192 46082436 
835.990 46396232 46727192 47081964 47466884 47883708 48329296 48798848 
839.365 49290584 49808368 50362304 50964224 51623476 52343492 53121956 
842.740 53954296 54838536 55778676 56783576 57863144 59022104 60255420 
846.115 61546456 62870292 64193456 65476620 66677816 67744528 68618520 
849.490 69242576 69563840 69551824 69209000 68578128 67735824 66780976 
852.865 65822452 64950100 64228720 63692732 63347712 63178756 63158832 
856.239 63256980 63440160 63675888 63938244 64206556 64470688 64731480 
859.614 64999088 65288656 65614604 65988624 66417588 66905304 67455640 
862.989 68071984 68754208 69491792 70257648 71003528 71658520 72143792 
866.364 72380584 72305240 71886096 71126920 70069672 68782624 67357744 
869.739 65896868 64494520 63240960 62209208 61448272 60988568 60838936 
873.113 60994668 61444188 62177552 63191944 64493904 66098220 68024704 
876.488 70293296 72915096 75882744 79153480 82641488 86198304 89606936 
879.863 92617240 94950704 96355416 96669568 95842840 93969280 91262248 
883.238 88041000 84661952 81448864 78686456 76568944 75202792 74628704 
886.613 74830720 75757120 77324160 79427624 81932992 84661832 87407720 
889.987 89924064 91938936 93208648 93530064 92787344 90978584 88217968 
893.362 84722520 80757664 76621712 72583432 68840464 65525936 62693216 
896.737 60336620 58413428 56866052 55637000 54670900 53920496 53342940 
900.112 52896928 52548748 52271508 52047780 51868716 51730400 51628288 
903.487 51555604 51502144 51457972 51417388 51381288 51355588 51348392 
906.862 51365136 51405344 51463752 51531612 51603140 51676952 51757016 
910.236 51849188 51957732 52082520 52219076 52361356 52505260 52651148 
913.611 52803560 52968980 53151612 53351328 53564408 53786176 54014516 
916.986 54252508 54507200 54787000 55097108 55437136 55801168 56180100 
920.361 56567172 56959468 57359908 57774000 58208300 58667648 59155432 
923.736 59676184 60237148 60849112 61523016 62263128 63060200 63885576 
927.110 64695096 65430240 66031784 66454812 66674880 66697060 66552280 
930.485 66294752 65990204 65702864 65494536 65412788 65489760 65743492 
933.860 66177160 66781172 67534872 68409720 69368736 70365832 71352536 
937.235 72277648 73094592 73773256 74304056 74705440 75019824 75311664 
940.610 75654056 76111400 76735720 77554848 78572648 79772560 81122032 
943.985 82578536 84086088 85581112 86991888 88236152 89235792 89922280 
947.359 90245304 90184992 89752640 88991456 87964072 86749144 85431072 
950.734 84086288 82786880 81594216 80551640 79689672 79020944 78542744 
954.109 78240952 78095928 78088672 78202712 78426512 78751432 79168912 
957.484 79669256 80241840 80876720 81567584 82313616 83118288 83988064 
960.859 84929400 85947280 87045008 88227184 89502648 90885360 92396376 
964.233 94060248 95898736 97929080 100158416 102583888 105193448 107972096 
967.608 110907288 113993904 117238832 120660104 124282472 128124776 
970.501 132186312 136427120 140761472 145045008 149076752 152638144 
973.394 155501536 157477984 158463200 158454448 157570384 156021824 
976.286 154105808 152147056 150438288 149235360 148701280 148894144 
979.179 149761280 151141952 152786816 154363632 155528544 155959520 
982.072 155394608 153697264 150861568 147017536 142388432 137263872 
984.964 131951528 126713976 121773800 117289184 113346392 109981488 
987.857 107183336 104911288 103104648 101696792 100626656 99836928 99281128 
991.232 98921928 98725488 98664024 98712880 98850616 99061552 99334392 
994.607 99661800 100038800 100460176 100919128 101408312 101919752 102447408 
997.982 102988800 103543784 104114464 104702600 105308032 105928536 
1000.874 106560800 107201408 107848944 108503968 109169088 109847648 
1003.767 110542664 111256672 111992536 112753616 113545072 114372480 
1006.660 115241288 116155040 117114200 118116712 119158640 120236320 
1009.552 121347408 122491208 123668208 124878832 126122224 127396672 
1012.445 128700312 130033504 131399720 132807360 134268048 135794720 
1015.338 137400560 139096336 140889920 142787168 144792208 146908128 
1018.231 149137248 151480704 153937648 156503760 159170656 161921888 
1021.123 164730352 167557456 170343392 173009888 175466688 177610256 
1024.016 179344944 180601984 181350096 181610864 181455296 181000048 
1026.909 180379552 179724656 179150048 178727152 178482496 178391200 
1029.802 178384000 178347184 178128816 177566320 176484944 174723424 
1032.695 172165648 168744720 164465312 159402176 153700576 147558512 
1035.588 141195312 134852528 128751088 123067912 117938048 113430280 
1038.481 109556480 106283296 103549208 101281024 99404664 97858520 96590672 
1041.856 95558096 94727048 94068144 93557152 93176080 92910776 92750552 
1045.232 92686272 92707192 92801712 92958664 93168936 93428072 93736088 
1048.607 94095096 94505520 94961800 95449104 95943984 96417304 96835592 
1051.982 97169152 97394336 97496216 97471256 97328120 97088480 96782880 
1055.357 96451224 96136768 95877464 95704288 95635976 95678224 95827384 
1058.733 96073440 96403688 96801640 97245464 97705880 98140448 98498336 
1062.108 98725200 98767544 98587592 98167488 97513560 96653344 95631720 
1065.483 94505064 93328488 92156376 91036888 90005712 89089120 88301080 
1068.858 87644432 87114248 86701728 86399024 86200536 86104048 86108256 
1072.234 86210352 86403992 86679560 87024800 87429240 87884432 88385064 
1075.609 88927608 89508632 90123496 90767288 91437184 92135152 92869816 
1078.984 93656704 94516552 95469912 96537376 97737080 99085024 100599544 
1082.359 102301488 104214320 106365016 108779232 111477664 114474552 
1085.252 117772408 121359800 125203224 129249232 133419288 137608800 
1088.146 141705936 145595216 149173264 152368688 155140304 157477232 
1091.039 159384336 160865040 161905296 162471456 162516064 162004736 
1093.932 160943376 159405040 157537472 155543952 153677408 152181856 
1096.825 151259472 151054480 151618176 152907424 154776640 157003040 
1099.718 159290272 161287360 162656688 163082064 162320480 160249984 
1102.611 156870256 152308560 146779520 140568016 133979040 127288488 
1105.504 120751976 114568488 108873432 103754320 99244312 95334784 91987952 
1108.879 89149656 86759064 84751720 83068784 81653824 80451864 79414768 
1112.254 78498320 77665456 76890024 76154312 75448904 74770416 74119080 
1115.630 73497560 72909608 72361712 71861424 71416576 71033720 70716048 
1119.005 70462040 70266808 70123632 70027152 69973312 69960584 69988424 
1122.380 70055184 70157632 70291232 70451712 70637248 70849304 71092616 
1125.755 71372848 71695488 72063800 72479192 72942768 73456664 74025320 
1129.131 74654752 75350520 76115144 76945760 77833288 78763984 79718336 
1132.506 80675144 81612328 82506008 83334928 84080744 84731696 85286152 
1135.881 85755096 86164128 86548184 86951616 87420648 87995760 88712840 
1139.256 89598952 90672232 91944136 93418584 95092480 96954832 98986176 
1142.632 101160640 103442608 105791296 108159624 110490184 112720024 
1145.525 114776968 116577456 118038608 119077384 119619112 119611736 
1148.418 119026520 117863368 116147680 113927264 111265664 108233552 
1151.311 104911208 101382656 97728152 94029144 90357736 86772816 83325368 
1154.686 80054144 76988400 74152952 71564872 69233752 67161496 65341264 
1158.061 63759120 62396420 61233236 60248492 59420004 58725492 58139312 
1161.437 57634552 57186192 56771680 56374688 55986616 55604048 55227504 
1164.812 54858800 54499612 54151872 53818208 53503652 53214676 52958612 
1168.187 52741492 52566100 52432352 52337996 52281564 52262988 52284588 
1171.562 52349696 52461136 52619284 52822496 53068560 53356388 53687932 
1174.938 54068440 54504608 55002288 55565148 56193752 56886792 57642872 
1178.313 58461796 59344256 60290400 61296688 62353576 63444836 64550184 
1181.688 65647752 66718264 67749376 68736512 69683328 70599984 71502864 
1185.063 72413192 73353160 74346800 75414488 76568472 77809424 79122432 
1188.438 80478024 81829888 83122664 84298544 85298624 86074400 86589960 
1191.814 86822664 86764808 86420936 85804792 84935080 83833552 82523080 
1195.189 81026392 79369616 77586768 75719728 73824656 71966808 70208888 
1198.564 68608120 67200944 65997532 64983040 64123856 63379496 62710016 
1201.939 62087516 61498048 60939572 60418484 59944800 59529508 59181364 
1205.315 58907524 58712820 58598856 58563404 58600600 58702580 58860736 
1208.690 59069020 59325600 59632280 59993456 60413612 60895960 61442012 
1212.065 62052428 62728740 63474632 64295216 65196516 66183336 67258160 
1215.440 68421864 69675080 71020536 72464160 74015336 75685888 77488496 
1218.816 79434304 81534040 83797904 86236584 88862400 91688168 94724040 
1222.191 97975128 101437272 105094632 108915760 112853584 116846312 
1225.084 120808864 124639664 128218008 131396712 134021656 135933664 
1227.977 136981536 137055216 136095552 134111672 131181088 127446384 
1230.870 123100376 118349448 113417888 108519488 103832496 99511312 95665544 
1234.245 92357240 89613408 87427168 85770312 84599664 83866264 83519752 
1237.621 83506248 83775888 84281328 84977952 85829496 86803160 87868008 
1240.996 88993616 90143600 91274192 92339328 93289392 94080120 94680560 
1244.371 95074544 95264008 95266408 95113152 94844840 94505768 94147240 
1247.746 93819272 93567304 93429840 93429392 93570344 93838440 94205688 
1251.122 94635408 95088856 95534976 95951176 96325960 96659224 96960672 
1254.497 97249480 97551592 97900768 98333592 98882480 99573192 100416248 
1257.872 101404880 102512808 103696720 104901128 106056000 107086952 
1260.765 107917080 108465976 108662656 108447304 107776920 106634024 
1263.658 105026568 102987960 100567840 97830496 94848176 91692144 88440376 
1267.033 85172576 81962408 78882016 75990720 73329624 70926624 68795088 
1270.409 66939712 65360440 64053700 63012048 62221524 61662648 61311532 
1273.784 61141720 61131348 61263416 61525920 61912092 62415548 63028940 
1277.159 63743772 64551756 65446376 66425428 67490552 68645880 69896240 
1280.534 71246248 72700584 74264984 75948808 77763968 79723792 81838096 
1283.910 84107328 86518016 89037744 91619056 94199840 96707032 99069080 
1287.285 101216856 103089072 104639144 105832848 106649312 107080632 
1290.178 107127616 106795976 106091112 105013944 103560184 101724176 
1293.071 99505936 96922192 94012808 90848888 87525416 84152568 80854728 
1296.446 77748744 74942368 72533856 70597168 69185568 68326064 68015408 
1299.822 68222272 68889392 69946848 71312160 72899696 74630944 76425264 
1303.197 78204488 79896088 81424440 82720896 83729232 84404608 84720864 
1306.572 84668272 84252560 83494448 82432648 81134176 79691624 78228576 
1309.947 76892200 75818192 75115096 74830912 74934488 75309968 75771720 
1313.323 76116416 76146224 75724544 74804384 73425632 71700464 69773280 
1316.698 67802824 65920628 64215468 62736704 61494420 60474732 59652616 
1320.073 59004416 58511800 58161020 57942456 57845992 57860604 57975628 
1323.448 58181136 58469452 58835052 59272276 59773664 60329232 60925464 
1326.823 61547408 62181104 62814312 63437624 64044936 64631380 65193704 
1330.199 65729960 66239640 66724912 67190272 67643000 68090584 68540104 
1333.574 68996880 69463824 69942760 70435040 70942928 71469664 72018816 
1336.949 72593304 73194624 73822736 74477248 75158904 75870592 76617008 
1340.324 77404736 78239248 79123464 80057616 81039808 82067936 83141568 
1343.700 84263264 85439416 86678552 87989392 89378480 90849216 92400976 
1347.075 94030456 95733648 97507792 99351880 101265712 103248488 105295624 
1350.450 107398536 109546080 111726880 113935104 116173184 118453936 
1353.343 120798360 123230840 125777616 128461528 131301656 134313648 
1356.236 137504544 140868608 144375648 147969792 151560304 155028880 
1359.129 158257648 161138480 163601600 165628960 167252832 168543792 
1362.022 169583968 170459488 171239376 171970832 172686416 173403472 
1364.916 174127856 174855568 175575440 176275360 176950704 177615088 
1367.809 178306624 179086880 180023136 181177232 182590368 184277520 
1370.702 186235072 188451552 190920912 193642896 196620320 199849088 
1373.595 203306368 206951968 210740512 214640160 218646464 222778048 
1376.488 227058112 231482656 235994656 240461600 244696960 248474848 
1379.381 251550912 253706848 254738720 254460640 252734336 249488784 
1382.274 244774016 238770688 231777152 224125840 216071136 207758000 
1385.167 199191728 190292320 180976336 171246256 161231248 151167440 
1388.060 141323328 131922824 123117368 114981320 107549736 100851912 
1390.953 94904904 89717720 85277488 81539960 78439536 75901328 73864136 
1394.328 72275888 71091288 70262792 69723008 69393536 69203248 69101456 
1397.704 69079040 69171192 69453064 70013096 70924248 72231592 73942536 
1401.079 76041088 78497808 81277184 84326152 87550376 90813432 93918232 
1404.454 96621632 98689928 99922000 100195768 99487936 97863952 95460336 
1407.829 92447544 89027208 85404768 81768848 78302736 75152600 72416280 
1411.205 70146616 68348752 66999324 66063688 65512604 65326208 65487832 
1414.580 65977128 66761508 67795112 69033400 70439208 71994728 73705720 
1417.955 75591000 77666088 79920736 82316888 84798072 87312912 89834496 
1421.330 92360192 94898304 97444632 99968296 102404488 104650736 106597344 
1424.706 108149296 109239864 109834808 109913192 109450064 108416040 
1427.599 106787032 104571480 101825616 98664976 95246432 91728400 88259136 
1430.974 84956880 81907432 79179240 76817416 74838272 73231368 71957848 
1434.349 70964824 70199808 69635328 69279888 69174496 69365664 69871176 
1437.724 70661464 71669744 72815608 74024768 75244360 76434712 77567208 
1441.100 78622560 79583560 80437544 81177320 81801288 82314008 82722136 
1444.475 83032072 83244896 83356720 83361056 83257776 83061400 82808816 
1447.850 82553128 82350896 82245016 82249936 82354184 82532288 82763544 
1451.225 83042384 83382704 83807504 84336360 84969856 85686920 86443904 
1454.601 87186088 87863136 88434888 88887192 89234288 89515512 89768696 
1457.976 90011296 90240656 90445776 90622096 90777656 90929272 91096256 
1461.351 91292016 91520784 91778704 92059288 92361336 92694560 93081480 
1464.726 93549504 94127936 94840512 95703952 96735352 97951544 99366416 
1468.102 100986096 102802608 104795504 106925696 109146512 111404392 
1470.995 113628832 115736336 117627416 119196216 120352680 121036080 
1473.888 121214448 120877176 120024112 118670128 116855504 114654944 
1476.781 112172120 109510816 106758736 103963736 101134328 98260256 95332472 
1480.156 92359456 89378112 86442816 83609872 80925536 78412656 76074408 
1483.531 73901800 71881008 69998576 68243944 66609444 65091340 63692004 
1486.906 62419180 61284780 60300412 59473272 58803448 58287264 57922692 
1490.282 57711972 57661340 57773508 58040796 58440568 58939552 59496072 
1493.657 60072096 60639592 61182040 61699008 62200032 62695936 63186728 
1497.032 63656592 64075544 64412616 64644492 64765364 64787940 64741328 
1500.407 64664952 64598388 64578632 64632000 64770520 64990856 65272712 
1503.783 65581428 65864676 66064572 66131784 66050684 65862708 65664744 
1507.158 65571368 65648748 65897180 66266812 66695168 67127464 67527288 
1510.533 67880448 68188344 68464568 68727696 68995568 69279264 69580216 
1513.908 69890920 70197864 70487880 70753752 71002120 71255856 71551312 
1517.284 71922304 72385832 72932856 73529696 74127096 74672376 75132272 
1520.659 75508552 75849048 76225032 76703456 77309232 78018520 78775744 
1524.034 79519216 80203176 80803280 81323376 81788128 82232880 82688584 
1527.409 83173864 83699096 84271672 84901760 85602128 86381400 87237528 
1530.785 88152040 89098512 90049288 90992552 91944792 92955096 94090576 
1534.160 95398752 96894320 98551552 100326072 102167152 104032856 105901808 
1537.535 107760688 109615208 111489024 113427176 115484248 117704880 
1540.428 120119568 122723400 125490128 128394632 131415320 134539808 
1543.321 137754656 141037520 144344880 147612320 150770352 153751088 
1546.214 156497920 158966016 161096688 162811744 164024080 164651008 
1549.107 164664176 164115216 163134544 161873312 160435552 158846832 
1552.000 157057184 154993760 152627872 150025984 147355408 144838464 
1554.894 142642704 140825296 139302544 137887760 136324880 134351696 
1557.787 131793424 128660616 125233336 121965680 119251112 117221000 
1560.680 115771024 114690064 113773352 112861488 111826576 110577280 
1563.573 109060640 107276560 105284600 103189904 101110160 99118200 97219592 
1566.948 95347824 93394920 91248312 88841216 86192856 83417352 80689112 
1570.323 78168120 75951096 74050704 72421024 70992248 69696712 68478424 
1573.698 67292088 66103504 64897196 63695228 62572844 61653140 61075856 
1577.074 60936216 61263452 62031976 63193128 64704904 66547064 68724552 
1580.449 71256552 74163448 77453008 81106096 85068264 89252144 93522584 
1583.824 97703880 101598184 104981496 107647496 109435824 110239064 
1586.717 110027072 108846704 106832672 104191488 101190168 98139320 95322816 
1590.093 92984528 91305800 90387232 90271376 90951128 92387032 94513176 
1593.468 97245080 100490992 104141456 108077768 112182672 116334792 
1596.361 120426784 124372296 128094600 131523264 134581200 137169904 
1599.254 139183760 140524112 141117744 140939872 140015552 138415200 
1602.147 136233680 133587496 130609720 127432792 124194432 121017912 
1605.040 117989608 115161760 112547424 110132944 107894184 105810272 
1607.933 103871640 102076728 100425264 98912024 97524504 96248416 95075208 
1611.308 94006800 93053688 92226720 91525864 90931232 90400816 89873128 
1614.684 89285400 88588088 87773504 86892360 86051616 85377176 84958328 
1618.059 84825504 84948656 85266760 85708752 86215000 86745664 87278312 
1621.434 87813128 88370200 88986656 89705752 90564584 91585752 92768440 
1624.809 94095264 95537248 97063408 98641816 100241840 101839064 103414056 
1628.185 104957952 106472080 107968360 109463880 110974912 112514880 
1631.078 114091448 115708952 117366376 119064136 120807632 122609928 
1633.971 124500304 126527968 128764136 131276112 134108336 137270736 
1636.864 140728496 144436176 148357376 152473920 156783680 161292784 
1639.757 166013584 170948720 176089632 181418672 186899920 192484288 
1642.650 198118496 203729552 209244496 214605056 219771360 224749136 
1645.543 229589344 234386864 239222224 244128624 249080288 253994912 
1648.436 258779472 263345456 267619488 271481856 274707392 276936800 
1651.329 277590624 275969312 271573632 264604416 256188240 247791536 
1654.222 240385056 234088336 228505456 223103024 217480384 211432176 
1657.115 204933648 198083488 191032176 183930176 176853760 169807088 
1660.008 162739056 155576480 148264448 140798896 133245024 125738576 
1662.901 118465640 111615472 105337424 99705856 94713488 90294056 86344776 
1666.277 82754288 79427184 76302648 73366032 70654520 68243240 66218256 
1669.652 64644724 63544504 62893920 62636108 62706648 63045568 63605608 
1673.027 64359924 65300056 66439756 67809608 69447768 71380112 73601840 
1676.402 76087552 78804736 81734728 84878520 88251184 91868432 95720512 
1679.778 99768720 103953512 108204984 112484280 116795624 121186152 
1682.671 125732688 130503592 135505600 140621520 145635008 150303344 
1685.564 154433040 157903312 160632704 162564528 163638176 163815696 
1688.457 163097584 161521488 159159664 156103216 152468656 148393280 
1691.350 144029520 139538160 135029376 130525928 125945016 121106400 
1694.243 115804720 109939952 103656592 97379608 91661328 86892192 83160304 
1697.618 80262760 77864880 75614544 73270000 70789200 68352400 66265264 
1700.993 64747596 63799912 63230000 62788084 62241288 61425564 60238136 
1704.369 58626424 56591784 54187300 51513556 48691460 45843644 43076516 
1707.744 40462244 38042972 35828168 33798812 31921904 30167176 28522038 
1711.119 26996594 25615544 24398768 23347596 22435396 21616728 20841378 
1714.494 20078136 19325030 18605044 17947610 17368100 16854942 16380340 
1717.870 15921721 15482747 15094094 14793644 14602323 14511216 14485146 
1721.245 14476855 14447874 14380021 14283380 14187000 14123910 14110013 
1724.620 14136370 14175017 14195558 14182378 14140067 14088963 14051145 
1727.995 14037627 14041117 14041528 14018429 13965834 13895182 13829911 
1731.371 13788353 13772107 13758666 13711027 13595423 13409858 13194348 
1734.746 13014860 12920229 12917327 12974984 13045998 13088988 13079325 
1738.121 13016704 12921423 12825379 12753104 12710522 12683910 12652662 
1741.496 12602688 12534611 12460338 12394499 12343225 12300207 12249183 
1744.872 12174618 12071210 11948243 11824322 11717287 11634407 11567059 
1748.247 11495741 11399502 11269582 11114446 10957664 10825499 10733721 
1751.622 10681998 10657005 10642913 10631199 10623049 10625087 10642098 
1754.997 10670758 10698978 10710831 10696500 10659891 10618533 10593748 
1758.373 10600334 10637310 10689028 10731004 10742416 10717181 10666887 
1761.748 10616463 10590183 10600640 10642472 10698876 10751688 10791395 
1765.123 10818807 10842179 10869833 10904487 10940538 10968097 10979583 
1768.498 10976150 10967009 10964461 10974960 10993787 11005546 10991952 
1771.874 10943936 10870173 10795742 10748530 10745948 10785246 10849110 
1775.249 10914273 10964562 10995792 11016591 11040415 11077700 11128179 
1778.624 11181077 11220108 11234219 11224529 11205386 11196682 11212560 
1781.999 11253974 11308044 11356134 11382937 11385419 11374127 11368379 
1785.375 11384501 11427939 11491046 11558927 11618819 11666535 11707244 
1788.750 11751328 11806106 11869847 11929953 11968031 11970892 11938502 
1792.125 11887759 11843151 11826705 11844718 11887895 11938740 11982506 
1795.500 12014388 12039732 12069575 12112468 12168246 12227098 12274132 
1798.875 12297140 12294413 12276007 12259204 12258829 12280233 12316637 
1802.251 12355396 12384987 12402579 12414956 12433572 12467942 12519434 
1805.626 12580518 12639050 12685957 12719358 12746211 12777740 12822478 
1809.001 12880873 12945182 13002501 13044257 13070788 13092028 13121772 
1812.376 13170576 13239606 13320880 13401554 13472501 13532591 13590329 
1815.752 13658606 13747004 13856525 13978186 14097623 14202063 14286872 
1819.127 14356184 14419033 14482439 14545752 14600678 14635392 14640601 
1822.502 14614386 14562986 14498164 14431570 14370055 14314541 14263280 
1825.877 14216100 14176832 14151534 14144482 14153006 14166151 14168343 
1829.253 14145818 14095843 14029790 13969837 13936614 13939727 13973190 
1832.628 14020448 14062096 14084651 14086739 14077943 14073664 14084719 
1836.003 14112820 14149891 14183918 14206719 14219763 14233458 14262185 
1839.378 14315774 14393104 14482850 14568057 14634226 14673673 14688205 
1842.754 14686217 14678060 14670931 14666338 14664043 14665208 14675627 
1846.129 14703148 14753090 14824156 14906824 14987656 15054060 15101023 
1849.504 15133479 15163706 15204985 15263392 15335640 15410749 15477493 
1852.879 15529722 15571035 15611872 15663566 15730727 15808208 15882574 
1856.255 15940076 15973385 15985554 15988030 15994526 16013158 16041970 
1859.630 16071264 16088901 16089074 16075183 16058989 16053108 16065864 
1863.005 16095847 16134256 16170023 16196882 16215971 16235026 16261855 
1866.380 16298492 16338434 16369570 16381338 16372219 16353536 16345004 
1869.756 16365958 16423764 16511418 16610829 16703306 16776448 16827972 
1873.131 16864724 16896210 16927938 16957498 16976104 16975000 16952192 
1876.506 16914778 16877470 16855010 16855148 16875162 16904306 16929488 
1879.881 16943888 16949954 16958048 16978962 17018348 17071864 17129282 
1883.257 17178814 17215390 17243210 17274000 17319926 17385310 17465156 
1886.632 17546120 17614746 17663712 17696876 17726904 17769220 17833740 
1890.007 17919226 18015436 18109422 18192236 18263314 18328874 18396308 
1893.382 18469600 18546048 18618154 18679338 18729290 18775546 18830800 
1896.758 18905376 19001908 19112832 19225204 19325826 19409598 19480842 
1900.133 19552062 19635980 19738954 19858216 19983758 20105030 20215472 
1903.508 20316430 20413520 20511638 20608982 20695782 20757400 20783086 
1906.883 20770364 20728658 20674826 20627188 20597098 20585216 20584834 
1910.259 20586954 20588344 20593138 20611030 20650816 20715660 20799908 
1913.634 20892726 20982712 21064648 21139956 21214788 21294436 21379008 
1917.009 21462096 21535662 21595448 21646260 21700348 21771412 21866632 
1920.384 21981846 22102006 22208110 22287450 22338306 22373016 22410416 
1923.760 22467916 22550586 22650446 22750958 22837350 22904372 22959004 
1927.135 23015528 23087610 23180324 23285992 23389974 23477506 23542528 
1930.510 23590804 23636740 23693808 23768732 23857530 23948868 24031400 
1933.885 24100850 24162218 24226048 24300958 24387272 24475706 24552308 
1937.260 24606342 24637482 24656384 24678618 24716952 24772550 24833520 
1940.636 24880254 24897554 24880816 24841658 24800578 24777740 24782020 
1944.011 24807770 24839308 24861272 24868290 24866290 24869026 24888886 
1947.386 24929134 24981738 25031790 25066856 25085004 25096308 25118530 
1950.761 25165506 25240262 25331998 25422768 25496200 25546484 25579870 
1954.137 25611360 25653890 25710450 25772328 25824084 25854504 25863190 
1957.512 25863364 25874864 25914888 25987522 26081174 26175516 26253158 
1960.887 26310042 26356444 26410700 26487538 26589824 26706578 26820086 
1964.262 26915048 26990564 27058372 27138428 27245066 27379182 27524850 
1967.638 27659618 27762884 27827882 27862926 27884972 27907760 27934014 
1971.013 27953344 27950800 27916912 27857380 27790366 27740350 27725552 
1974.388 27747520 27793684 27844378 27887022 27924332 27972990 28051026 
1977.763 28165630 28303426 28434758 28525506 28553566 28519490 28444238 
1981.139 28360792 28295044 28260918 28253562 28259186 28264314 28266010 
1984.514 28271950 28295788 28346574 28421632 28507460 28586510 28646180 
1987.889 28686284 28717964 28757080 28814012 28886922 28961684 29019774 
1991.264 29049638 29051764 29040712 29035998 29052614 29091550 29142146 
1994.640 29186300 29211070 29214506 29205860 29199976 29207880 29231554 
1998.015 29262850 29291028 29309320 29320876 29338316 29374760 29435848 
2001.390 29514218 29591144 29646482 29668726 29661738 29643078 29636656 
2004.765 29659040 29711158 29777014 29833760 29862898 29858710 29831310 
2008.141 29797668 29771762 29755936 29741210 29713110 29665072 29601644 
2011.516 29540212 29499748 29493648 29519288 29562558 29603276 29628108 
2014.891 29636336 29640310 29656592 29694482 29750578 29808420 29850618 
2018.266 29866836 29863148 29858390 29877486 29936090 30034362 30156236 
2021.642 30278572 30382216 30459724 30516736 30566114 30618838 30675122 
2025.017 30726224 30758908 30765880 30748950 30721210 30697206 30687320 
2028.392 30691198 30699518 30701224 30691766 30676902 30670358 30686074 
2031.767 30727006 30784480 30840326 30875510 30880738 30860746 30830402 
2035.143 30807174 30800416 30806534 30813080 30807280 30782630 30744362 
2038.518 30705172 30677542 30664634 30658410 30642232 30600990 30530850 
2041.893 30440960 30350982 30280170 30239282 30224860 30223190 30217258 
2045.268 30197900 30168276 30141746 30134254 30154744 30200776 30258430 
2048.644 30310050 30340286 30344800 30326856 30294736 30254876 30210900 
2052.019 30162914 30112126 30064258 30029532 30018632 30038054 30084818 
2055.394 30147074 30207100 30251360 30274168 30281310 30284896 30298184 
2058.769 30327744 30370950 30417824 30456918 30482470 30495374 30502518 
2062.145 30511264 30524628 30539130 30547094 30541762 30522104 30494486 
2065.520 30470068 30458304 30462390 30477746 30494414 30503514 30501808 
2068.895 30493064 30486524 30490328 30506784 30530032 30549050 30554238 
2072.270 30541086 30513964 30482400 30457024 30443234 30439148 30437618 
2075.646 30430760 30415194 30393588 30373368 30360646 30357734 30360646 
2079.021 30361074 30350910 30328064 30295732 30262728 30237258 30222942 
2082.396 30216584 30211148 30198076 30173072 30137306 30096680 30057014 
2085.771 30021648 29988986 29954656 29914862 29869286 29822190 29780102 
2089.146 29748130 29726840 29712046 29696008 29673054 29642758 29610726 
2092.522 29586358 29578448 29590826 29621048 29661666 29704240 29743092 
2095.897 29776304 29804944 29829218 29846536 29851186 29837486 29803204 
2099.272 29752742 29696150 29646128 29612144 29596892 29594976 29597248 
2102.647 29594514 29582384 29562344 29540248 29521630 29508400 29497514 
2106.023 29483330 29461558 29432408 29400606 29373412 29356820 29351608 
2109.398 29353772 29356254 29353912 29346290 29338032 29335904 29345016 
2112.773 29365188 29390572 29412446 29423296 29420602 29407802 29392130 
2116.148 29380006 29374334 29373270 29372100 29366322 29355544 29342888 
2119.524 29333954 29332324 29336934 29342004 29339592 29323640 29292728 
2122.899 29252322 29209830 29173718 29147568 29130062 29116812 29103950 
2126.274 29089992 29077840 29071816 29074438 29083968 29094666 29099520 
2129.649 29094170 29080496 29066714 29063810 29080990 29121594 29182012 
2133.025 29254484 29330728 29406206 29480564 29555854 29633038 29709348 
2136.400 29777618 29831098 29866376 29886500 29899952 29916530 29942054 
2139.775 29975070 30007448 30028466 30032124 30019802 30000808 29987034 
2143.150 29988064 30005388 30032870 30059962 30079172 30088830 30094940 
2146.526 30106374 30130168 30165684 30206426 30242090 30264824 30273706 
2149.901 30274204 30273954 30277756 30283724 30282942 30266210 30228662 
2153.276 30173426 30111240 30055416 30015188 29992252 29982916 29983484 
2156.651 29998252 30042562 30137450 30299392 30528788 30803084 31084672 
2160.027 31330474 31511102 31618320 31663970 31670670 31659442 31642764 
2163.402 31621810 31591128 31547658 31493646 31439248 31395256 31367120 
2166.777 31351198 31334958 31304442 31249212 31169568 31073886 30976590 
2170.152 30889242 30815604 30753006 30695606 30639068 30585914 30544072 
2173.528 30522708 30526476 30551502 30585594 30613254 30622250 30607068 
2176.903 30569454 30515456 30450628 30377988 30298006 30212534 30128356 
2180.278 30056874 30011744 30002264 30027650 30074664 30122958 30153786 
2183.653 30155064 30127576 30082688 30035746 29997826 29972370 29954408 
2187.029 29937048 29914790 29889554 29867690 29857042 29861086 29876670 
2190.404 29894806 29905776 29904462 29892038 29875286 29861302 29852604 
2193.779 29845294 29829572 29795750 29738514 29661560 29574546 29488756 
2197.154 29412908 29348276 29290886 29235770 29180664 29129602 29090486 
2200.530 29071568 29076068 29100018 29133820 29167374 29193812 29212912 
2203.905 29229960 29251862 29281988 29318960 29356644 29388834 29413262 
2207.280 29433544 29457088 29491698 29539824 29597566 29655246 29702218 
2210.655 29731346 29742312 29740466 29732874 29725316 29718644 29710414 
2214.031 29697676 29680540 29662980 29652478 29655848 29674224 29702820 
2217.406 29732660 29753382 29758490 29747704 29726060 29700302 29675396 
2220.781 29651768 29626688 29596326 29559650 29519110 29480030 29447266 
2224.156 29422410 29402946 29383020 29357742 29325660 29290000 29257250 
2227.531 29233042 29218900 29211106 29202814 29186264 29158338 29120566 
2230.907 29078900 29039152 29004968 28975250 28946030 28913128 28875058 
2234.282 28834264 28796168 28764976 28741894 28723556 28703732 28676974 
2237.657 28641368 28600030 28559758 28527452 28507602 28498968 28497166 
2241.032 28496492 28493166 28486090 28477068 28468258 28460052 28450710 
2244.408 28437586 28419014 28396518 28374976 28360650 28357466 28365638 
2247.783 28380564 28394782 28401824 28397862 28384490 28367016 28351206 
2251.158 28341196 28337872 28339288 28343390 28349262 28358032 28371970 
2254.533 28391954 28416538 28440666 28458530 28465252 28459698 28444132 
2257.909 28423012 28401328 28380952 28361428 28340172 28315024 28285178 
2261.284 28252150 28218168 28184084 28148482 28107970 28058908 28000132 
2264.659 27934756 27869074 27811526 27768430 27741340 27727848 27722126 
2268.034 27718418 27712944 27705032 27696062 27687480 27678722 27667244 
2271.410 27649906 27624800 27593374 27560152 27530816 27510056 27499044 
2274.785 27495548 27494348 27491136 27483724 27472394 27459862 27448534 
2278.160 27439426 27431132 27420826 27405898 27385500 27360830 27334082 
2281.535 27307124 27279852 27250780 27217372 27178214 27133702 27086266 
2284.911 27039294 26995500 26955272 26917020 26878314 26837216 26793302 
2288.286 26748406 26704816 26664334 26626532 26590176 26552134 26510924 
2291.661 26466338 26420560 26376196 26335952 26300538 26269348 26240206 
2295.036 26211344 26181744 26151516 26121428 26092154 26063372 26034346 
2298.412 26005112 25976372 25950552 25930364 25917982 25913622 25915170 
2301.787 25919038 25921534 25921150 25918686 25917032 25919918 25930258 
2305.162 25948338 25972466 25999800 26027908 26055244 26082124 26109148 
2308.537 26136208 26162284 26185230 26203038 26215110 26222852 26229152 
2311.913 26237318 26249004 26264350 26281212 26297018 26309972 26319688 
2315.288 26327678 26335988 26345810 26356796 26367392 26375314 26379574 
2318.663 26380630 26380630 26382144 26386300 26392462 26397110 26395876 
2322.038 26384152 26358204 26316098 26257416 26182730 26093736 25993010 
2325.414 25885134 25775914 25672626 25582330 25510008 25457094 25421468 
2328.789 25398212 25381420 25366736 25352756 25340112 25330908 25326554 
2332.164 25326590 25329048 25331928 25333720 25334808 25336774 25341164 
2335.539 25348436 25357148 25364032 25366456 25363014 25354512 25343344 
2338.915 25332384 25322760 25313488 25301792 25284442 25260000 25228640 
2342.290 25191944 25151814 25107856 25058150 24999990 24932432 24858850 
2345.665 24786966 24728352 24694118 24692014 24724564 24788720 24877552 
2349.040 24981564 25091920 25200512 25300844 25388024 25458428 25509974 
2352.416 25542126 25556710 25557764 25550068 25538576 25526876 25515384 
2355.791 25502630 25486010 25462750 25431796 25394136 25351526 25306146 
2359.166 25259298 25211222 25161784 25110840 25058818 25006834 24955314 
2362.541 24904536 24853236 24800016 24743854 24685876 24628258 24574398 
2365.917 24527206 24487872 24455516 24427614 24401642 24375600 24349178 
2369.292 24322894 24297664 24273592 24249556 24224258 24196758 24167612 
2372.667 24138468 24111812 24089606 24072410 24059034 24047160 24034378 
2376.042 24019670 24003176 23986264 23970612 23957552 23947014 23938856 
2379.417 23932240 23927022 23923590 23922366 23923486 23926218 23928984 
2382.793 23930314 23929334 23926182 23922470 23920124 23921174 23926182 
2386.168 23934898 23946242 23959688 23975128 23993756 24016624 24044534 
2389.543 24076438 24110238 24142812 24171606 24195216 24213926 24229166 
2392.918 24242234 24254216 24264866 24273556 24279688 24283158 24284980 
2396.294 24286486 24288272 24290480 24292092 24291742 24288972 24284454 
2399.669 24279722 24276850 24277166 24280212 24284172 24286836 24286100 
2403.044 24281650 24274818 24268056 24263920 24263710 24267530 24274362 
2406.419 24282842 24292092 24301800 24312310 24323524 24334808 24344796 
2409.795 24352330 24356748 24359130 24361022 24364526 24370834 24379596 
2413.170 24389620 24399118 24407284 24414646 24422812 24433642 24448048 
2416.545 24465576 24484050 24501016 24514690 24524786 24532570 24539758 
2419.920 24547610 24555780 24562476 24565282 24562722 24555114 24544980 
2423.296 24535200 24528958 24527556 24530710 24536356 24542350 24547400 
2426.671 24550662 24552518 24553186 24551922 24547926 24540002 24528258 
2430.046 24514058 24500210 24489728 24485102 24486784 24493234 24502384 
2433.421 24511534 24519002 24524400 24527696 24528958 24527590 24522542 
2436.797 24512620 24497618 24478334 24456776 24434588 24413104 24391898 
2440.172 24369888 24345672 24318934 24291076 24264726 24242652 24226816 
2443.547 24217568 24213328 24212032 24211822 24211786 24212032 24213118 
2446.922 24214940 24216518 24216272 24212804 24205972 24197248 24189190 
2450.298 24184392 24183658 24186072 24188490 24187300 24179838 24165686 
2453.673 24146104 24124106 24102320 24082778 24065582 24050416 24036724 
2457.048 24024644 24015118 24009410 24007834 24009970 24014524 24019634 
2460.423 24024154 24028180 24032768 24038896 24047020 24056686 24066666 
2463.799 24075632 24083304 24090764 24100220 24113878 24133074 24157350 
2467.174 24184708 24212768 24239324 24263466 24285048 24304742 24322578 
2470.549 24338066 24350052 24357482 24360322 24359690 24357622 24356184 
2473.924 24356256 24357588 24358954 24358604 24356080 24351594 24346794 
2477.300 24342940 24340486 24338628 24335648 24330218 24321912 24311820 
2480.675 24302604 24296646 24295456 24299100 24306354 24315604 24325942 
2484.050 24337788 24352050 24370098 24391828 24416256 24441284 24464594 
2487.425 24485170 24503296 24520230 24537302 24554902 24571874 24586142 
2490.801 24595716 24599468 24598380 24594558 24590176 24586950 24585162 
2494.176 24583548 24580850 24576396 24570542 24565316 24562194 24562194 
2497.551 24565210 24569768 24574186 24577658 24580182 24582988 24586916 
2500.926 24592316 24598452 24603676 24607006 24607780 24607216 24607148 
2504.302 24609040 24613390 24619104 24624050 24626120 24624364 24619492 
2507.677 24613354 24607812 24603990 24601222 24597962 24591824 24581796 
2511.052 24567946 24552240 24536460 24522472 24510378 24499474 24488396 
2514.427 24476372 24463298 24450082 24437570 24426388 24416012 24405812 
2517.802 24394982 24383312 24371956 24362354 24355520 24351560 24349386 
2521.178 24347108 24342658 24335788 24326818 24317602 24309402 24302640 
2524.553 24296368 24288622 24277586 24262344 24243704 24223104 24202398 
2527.928 24182780 24163968 24144632 24123230 24099170 24072306 24044220 
2531.303 24016344 23989696 23964134 23939380 23914558 23889806 23865722 
2534.679 23843634 23824698 23808700 23794630 23780770 23765058 23746402 
2538.054 23724778 23701086 23676732 23652520 23629148 23606932 23586360 
2541.429 23567890 23552638 23541200 23533504 23528046 23522696 23515526 
2544.804 23505278 23492056 23477892 23464846 23454774 23447884 23443478 
2548.180 23440120 23436728 23433230 23430958 23431062 23434840 23442042 
2551.555 23451730 23462084 23472086 23481948 23493210 23507760 23526928 
2554.930 23550644 23577334 23604378 23629602 23651924 23671798 23690588 
2558.305 23709694 23729746 23750288 23770202 23788436 23804606 23819482 
2561.681 23834218 23850074 23867366 23885642 23904580 23923836 23944176 
2565.056 23967180 23994248 24026080 24061904 24099064 24134756 24166562 
2568.431 24193150 24215150 24233824 24251202 24267984 24284488 24300256 
2571.806 24315254 24330078 24345918 24364210 24385730 24409878 24434904 
2575.182 24458460 24478686 24494356 24505924 24514408 24520616 24524856 
2578.557 24526854 24526188 24522718 24517564 24512552 24509396 24509326 
2581.932 24512024 24515740 24518300 24517670 24513566 24506452 24498702 
2585.307 24492218 24488502 24487872 24490254 24495232 24502770 24513076 
2588.683 24526574 24542946 24561144 24579518 24596138 24610478 24622822 
2592.058 24634780 24648036 24663852 24682336 24702010 24720740 24736630 
2595.433 24748764 24757184 24763078 24767216 24770162 24771672 24771180 
2598.808 24768550 24764094 24758832 24754134 24750800 24748554 24746380 
2602.184 24742978 24737366 24729648 24720810 24712076 24704676 24698784 
2605.559 24693978 24689174 24683808 24677846 24671710 24666448 24662344 
2608.934 24659188 24655820 24651156 24644354 24635938 24626680 24617984 
2612.309 24610338 24603500 24596068 24586424 24573590 24557638 24539862 
2615.685 24522542 24507678 24496636 24489590 24486048 24485066 24485522 
2619.060 24486784 24488502 24489868 24489974 24487662 24481840 24471990 
2622.435 24458460 24442090 24424284 24405918 24387552 24369152 24350964 
2625.810 24333302 24317286 24304216 24295000 24290236 24288972 24289464 
2629.186 24289744 24288482 24284804 24279338 24272856 24266338 24260242 
2632.561 24254810 24250010 24246052 24243774 24244334 24248890 24258070 
2635.936 24271770 24289464 24309684 24331796 24354820 24378614 24402832 
2639.311 24427192 24450714 24472586 24492006 24509116 24524506 24539580 
2642.687 24555744 24573662 24593262 24613846 24634640 24654946 24674864 
2646.062 24694890 24715830 24737962 24760692 24783352 24804506 24823416 
2649.437 24839554 24853204 24864676 24874256 24881692 24886606 24888604 
2652.812 24887692 24884464 24879904 24874922 24870324 24865974 24861800 
2656.188 24857448 24853026 24849448 24847590 24848572 24852816 24860150 
2659.563 24869658 24880500 24892642 24906150 24922152 24941382 24964262 
2662.938 24990128 25017750 25045444 25072016 25096940 25120672 25143948 
2666.313 25167612 25191840 25216384 25240052 25262176 25282018 25299508 
2669.688 25314716 25327784 25338530 25346750 25352334 25355530 25357394 
2673.064 25359254 25362662 25368738 25377838 25389500 25402814 25417006 
2676.439 25431904 25447678 25465244 25485378 25508322 25533938 25561700 
2679.814 25590658 25620358 25650514 25681236 25712700 25744762 25777354 
2683.189 25809810 25842018 25873704 25905076 25936588 25968704 26001560 
2686.565 26035226 26069564 26104750 26140922 26178400 26217608 26258508 
2689.940 26301312 26345564 26391228 26438624 26488102 26540756 26597468 
2693.315 26658872 26725394 26797002 26873380 26954426 27039822 27129788 
2696.690 27224534 27323992 27427814 27535368 27645844 27758152 27871194 
2700.066 27983806 28094290 28201126 28302294 28396410 28482412 28559898 
2703.441 28628838 28689752 28742956 28788202 28824918 28852146 28869216 
2706.816 28875696 28872544 28860894 28843118 28821058 28796522 28770852 
2710.191 28745186 28720018 28695770 28672902 28651560 28632058 28614362 
2713.567 28598932 28586122 28577134 28572852 28574196 28581698 28595146 
2716.942 28613832 28636340 28661966 28689822 28719838 28752020 28786608 
2720.317 28823536 28862096 28901618 28941566 28981058 29020164 29058708 
2723.692 29096332 29132154 29164966 29193316 29215924 29232050 29242328 
2727.068 29247610 29249700 29250198 29250338 29251082 29252500 29254556 
2730.443 29257284 29260404 29263878 29267954 29272312 29277276 29282734 
2733.818 29289042 29296382 29305100 29315026 29325838 29336756 29346930 
2737.193 29355828 29363238 29369548 29375682 29382770 29392166 29404896 
2740.569 29421808 29443684 29470598 29502728 29540036 29581994 29628320 
2743.944 29678518 29732164 29788832 29848774 29911668 29977270 30044836 
2747.319 30113584 30182270 30250330 30317546 30384348 30451478 30519794 
2750.694 30590608 30664278 30741590 30822968 30909164 31000682 31098196 
2754.070 31201858 31310886 31424358 31540636 31658162 31776178 31894158 
2757.445 32012242 32130926 32250396 32370716 32491356 32611530 32730882 
2760.820 32849014 32965892 33081584 33195950 33308592 33418686 33526410 
2764.195 33631404 33734312 33835844 33936508 34036332 34134424 34229240 
2767.571 34319092 34402472 34478696 34548004 34611436 34670756 34727104 
2770.946 34781844 34835692 34888724 34941148 34992360 35041920 35089088 
2774.321 35133488 35175164 35214832 35254212 35295904 35342880 35397624 
2777.696 35461904 35535648 35618112 35707136 35801180 35898844 36000060 
2781.072 36105400 36215704 36331724 36453580 36580800 36712968 36848920 
2784.447 36988636 37131824 37278956 37430008 37584864 37742924 37902556 
2787.822 38062248 38220156 38374504 38524084 38667708 38805216 38936684 
2791.197 39063224 39185920 39306512 39426588 39547136 39669240 39792980 
2794.573 39918280 40044560 40171168 40296868 40420604 40540992 40656828 
2797.948 40767308 40872212 40972116 41068364 41162628 41256624 41351188 
2801.323 41446532 41542124 41636272 41727964 41815732 41899288 41978256 
2804.698 42053080 42123828 42190864 42254188 42313496 42368580 42418956 
2808.073 42464516 42504676 42539204 42567932 42591140 42609816 42625276 
2811.449 42639640 42654844 42672724 42694400 42720500 42750992 42785324 
2814.824 42822772 42862596 42903848 42945252 42985784 43023904 43058768 
2818.199 43089356 43115444 43137000 43154640 43168800 43179924 43188380 
2821.574 43194604 43198192 43199656 43199032 43196136 43190612 43182452 
2824.950 43171252 43157748 43142672 43127960 43116068 43109188 43109228 
2828.325 43117164 43133228 43156832 43187540 43224796 43268720 43319864 
2831.700 43378992 43446844 43524044 43611336 43709272 43818736 43941240 
2835.075 44078524 44232324 44404308 44595124 44805012 45033380 45279372 
2838.451 45541660 45820080 46114196 46424624 46751988 47097508 47461968 
2841.826 47846156 48250640 48675300 49119732 49582568 50061768 50553444 
2845.201 51052132 51550308 52037660 52501964 52929716 53305472 53614528 
2848.576 53843412 53980520 54018192 53952796 53785464 53521676 53171160 
2851.952 52746988 52263248 51734992 51176620 50599568 50013692 49425300 
2855.327 48838704 48255792 47677872 47105376 46538940 45979252 45427452 
2858.702 44885028 44353664 43835776 43334616 42853924 42397732 41970156 
2862.077 41574208 41211740 40882988 40587372 40323444 40089764 39885156 
2865.453 39708960 39560708 39439396 39344200 39273064 39224140 39195164 
2868.828 39184248 39189364 39208728 39240280 39281664 39330340 39383340 
2872.203 39438272 39492372 39544268 39592832 39637804 39679332 39718148 
2875.578 39755324 39791856 39829148 39868632 39911200 39958024 40009464 
2878.954 40066108 40127812 40193992 40264004 40336496 40409728 40482288 
2882.329 40552416 40619060 40681464 40739684 40794280 40845892 40895076 
2885.704 40942440 40988540 41033440 41077396 41120812 41164236 41207912 
2889.079 41252144 41296780 41341236 41384792 41426740 41466548 41503840 
2892.455 41539240 41572640 41604328 41634084 41661216 41684776 41703344 
2895.830 41716216 41723512 41726140 41726140 41726504 41730044 41739272 
2899.205 41755320 41778300 41807012 41839776 41875204 41912528 41952088 
2902.580 41995340 42043992 42100028 42164392 42238372 42322848 42419432 
2905.956 42530800 42660988 42814616 42997272 43213928 43469472 43768232 
2909.331 44113368 44507452 44951612 45444452 45981572 46554432 47151316 
2912.706 47756680 48353332 48924956 49455972 49933840 50349580 50697192 
2916.081 50973616 51178744 51314756 51385948 51398292 51359696 51278252 
2919.457 51162268 51019560 50855664 50675040 50480196 50271972 50049308 
2922.832 49810264 49551740 49269724 48960372 48620780 48249052 47845344 
2926.207 47411556 46951032 46467984 45967020 45452768 44930224 44404712 
2929.582 43882880 43372620 42882124 42420384 41995264 41613224 41279032 
2932.958 40994912 40761268 40576568 40437548 40339332 40275856 40240632 
2936.333 40226964 40228596 40241136 40260440 40283852 40309048 40333700 
2939.708 40355768 40373656 40386312 40393696 40396928 40398240 40399624 
2943.083 40403368 40411184 40424132 40443336 40469812 40504912 40550232 
2946.458 40607640 40678844 40765964 40870792 40995020 41139936 41304944 
2949.834 41487800 41682660 41880128 42068780 42234904 42365584 42450412 
2953.209 42481764 42456152 42373696 42236876 42049724 41817408 41546132 
2956.584 41242268 40913388 40567656 40212676 39855448 39502028 39156544 
2959.959 38822284 38501996 38197836 37912212 37646868 37402952 37180044 
2963.335 36976476 36789520 36615512 36451488 36294872 36144252 35998976 
2966.710 35859224 35725264 35597432 35475852 35360636 35251556 35148436 
2970.085 35050864 34958384 34870516 34787480 34709516 34637456 34572364 
2973.460 34515356 34467392 34429372 34402076 34386332 34383032 34393400 
2976.836 34418216 34457780 34512020 34579684 34659632 34750328 34850556 
2980.211 34959532 35076800 35201432 35332744 35469092 35608760 35749768 
2983.586 35890316 36028572 36162872 36291236 36411236 36520176 36615228 
2986.961 36694072 36755512 36799400 36826380 36837848 36834816 36817940 
2990.337 36786744 36740624 36678820 36601344 36509512 36405620 36293432 
2993.712 36177380 36062268 35952436 35851704 35762900 35687964 35627460 
2997.087 35581248 35548808 35529176 35521552 35525364 35540288 35566000 
3000.462 35601784 35646992 35700844 35761856 35829248 35902192 35979792 
3003.838 36061080 36145008 36230108 36315264 36399780 36484068 36568944 
3007.213 36656180 36747724 36844484 36946784 37053404 37162756 37272748 
3010.588 37381796 37489024 37594004 37696988 37797972 37896624 37992956 
3013.963 38086664 38177932 38267740 38357380 38448308 38541644 38637972 
3017.339 38736820 38837320 38938420 39039224 39139468 39239664 39340896 
3020.714 39444620 39552180 39664488 39781544 39902660 40025924 40148964 
3024.089 40269420 40385148 40495452 40600836 40702680 40803524 40905268 
3027.464 41008824 41113892 41218988 41322324 41422440 41518936 41612824 
3030.840 41706224 41801468 41900200 42002892 42108568 42215696 42322556 
3034.215 42428200 42533140 42638948 42747628 42861608 42982784 43112008 
3037.590 43249652 43395428 43548732 43709160 43875916 44048380 44225832 
3040.965 44407064 44590900 44776028 44960684 45143216 45320928 45490660 
3044.341 45648492 45790328 45912512 46012732 46090468 46147652 46188300 
3047.716 46218040 46242660 46267504 46296548 46332268 46375328 46425656 
3051.091 46482740 46546024 46615072 46689556 46768740 46851776 46937044 
3054.466 47022916 47107960 47191100 47271592 47349256 47424420 47497044 
3057.842 47567392 47635348 47701208 47765264 47828216 47890736 47953412 
3061.217 48016656 48079980 48142980 48204992 48265864 48325816 48385372 
3064.592 48445228 48505764 48566492 48626156 48683524 48737012 48785612 
3067.967 48829548 48869444 48906492 48942088 48977104 49012224 49047800 
3071.343 49084412 49122592 49163368 49207860 49256772 49310480 49368796 
3074.718 49431168 49496888 49565552 49636720 49710204 49785736 49863072 
3078.093 49941276 50019380 50096496 50171804 50245076 50316352 50385708 
3081.468 50453100 50518084 50579504 50635756 50685092 50725380 50755136 
3084.844 50773312 50780092 50776628 50765528 50749776 50733240 50718980 
3088.219 50709704 50706876 50710788 50721028 50737076 50758900 50786384 
3091.594 50820352 50861476 50910164 50966272 51028872 51096816 51169016 
3094.969 51245068 51324824 51408848 51497628 51591048 51688412 51787844 
3098.344 51886936 51982792 52072808 52154884 52227972 52292140 52348464 
3101.720 52399152 52446892 52494524 52544748 52599756 52661100 52729332 
3105.095 52805060 52887836 52977476 53073652 53176100 53284532 53399512 
3108.470 53521900 53654376 53801028 53967616 54161744 54391668 54665752 
3111.845 54992280 55378112 55829128 56350392 56945380 57616804 58365712 
3115.221 59190780 60086668 61043056 62044284 63065640 64075896 65036304 
3118.596 65899528 66617204 67140728 67425576 67440128 67166832 66606164 
3121.971 65776036 64710984 63457756 62066264 60589148 59074752 57562024 
3125.346 56084820 54669024 53333124 52091560 50952788 49920236 48992236 
3128.722 48163268 47424864 46766672 46179304 45653868 45182996 44760636 
3132.097 44381336 44039908 43731732 43452372 43198152 42965956 42753624 
3135.472 42558832 42379760 42213760 42058376 41910672 41767724 41626824 
3138.847 41486088 41344080 41200224 41055036 40910108 40766980 40627868 
3142.223 40494216 40366640 40244556 40126724 40010952 39895688 39779108 
3145.598 39660784 39540528 39418788 39296100 39172644 39048940 38925520 
3148.973 38802864 38681508 38561668 38442768 38323760 38202896 38078708 
3152.348 37949960 37816948 37680364 37542304 37404256 37267584 37132940 
3155.724 36999856 36867604 36735540 36603080 36470048 36336624 36202700 
3159.099 36068316 35933864 35799380 35665768 35533852 35404416 35277824 
3162.474 35153680 35030680 34907432 34782740 34656224 34528416 34400640 
3165.849 34274916 34152776 34035220 33922212 33813064 33706736 33601760 
3169.225 33496808 33391166 33284158 33175528 33065706 32955344 32845904 
3172.600 32738812 32635678 32537136 32443404 32353404 32266028 32179274 
3175.975 32091684 32002148 31910348 31816360 31720604 31624090 31527706 
3179.350 31432514 31339768 31250100 31163908 31080756 30999614 30918806 
3182.726 30836876 30752792 30666234 30577916 30489012 30400836 30314670 
3186.101 30231004 30150094 30071218 29993708 29916672 29839084 29759874 
3189.476 29678624 29594658 29508046 29419466 29329558 29239528 29150260 
3192.851 29062038 28974896 28888550 28802894 28717644 28633084 28549390 
3196.227 28466492 28384136 28301620 28218414 28133846 28048376 27962638 
3199.602 27877800 27794392 27712944 27633486 27555420 27478322 27402792 
3202.977 27329178 27258222 27190632 27125838 27062602 26999484 26934964 
3206.352 26868198 26799610 26730292 26661832 26595460 26531774 26470670 
3209.728 26412038 26355634 26301560 26250378 26202616 26157990 26115728 
3213.103 26074350 26032164 25988226 25941936 25893752 25844552 25795322 
3216.478 25746344 25697372 25647632 25596562 25543884 25489910 25435170 
3219.853 25380436 25326448 25273450 25222002 25172528 25125552 25081388 
3223.229 25040388 25001814 24964298 24926432 24886570 24843624 24797806 
3226.604 24750064 24701660 24654068 24608480 24565316 24525312 24488958 
3229.979 24456602 24429298 24407074 24389236 24374620 24360600 24344376 
3233.354 24323630 24296786 24263466 24224540 24181764 24136962 24092268 
3236.729 24049822 24011230 23978104 23951634 23931854 23918058 23908748 
3240.105 23901464 23893972 23884240 23870972 23853612 23832538 23807968 
3243.480 23781088 23752774 23723902 23695698 23669314 23645136 23623094 
3246.855 23602734 23582268 23560230 23535638 23508216 23478522 23447848 
3250.230 23417284 23387528 23358678 23330220 23301864 23273862 23246316 
3253.606 23220170 23195914 23173266 23151108 23128286 23103720 23076814 
3256.981 23048930 23021434 22996070 22973886 22954638 22937066 22919496 
3260.356 22900636 22880134 22858478 22836860 22816152 22796842 22778404 
3263.731 22759862 22740240 22719816 22699042 22679702 22663572 22652052 
3267.107 22645978 22644896 22647830 22653066 22658930 22663190 22663504 
3270.482 22657778 22644584 22623046 22593970 22559278 22521760 22484422 
3273.857 22449178 22417290 22388472 22361680 22335516 22309286 22282846 
3277.232 22256096 22229348 22202460 22174738 22145588 22114452 22081820 
3280.608 22048632 22017016 21988364 21963828 21943716 21927442 21913886 
3283.983 21901828 21889946 21877400 21863184 21847050 21829036 21809874 
3287.358 21791200 21775524 21765212 21761970 21765802 21775036 21785974 
3290.733 21794266 21796146 21789354 21773782 21751554 21725638 21698886 
3294.109 21673494 21649636 21626686 21603458 21578490 21551330 21522152 
3297.484 21491618 21460426 21429512 21399752 21372254 21348726 21331186 
3300.859 21321616 21321684 21331290 21348586 21370966 21393834 21413222 
3304.234 21425546 21428642 21422064 21405946 21381582 21349736 21310582 
3307.610 21264092 21210056 21148582 21080962 21009282 20937266 20869086 
3310.985 20808148 20757400 20717780 20688936 20668850 20654882 20644248 
3314.360 20635110 20626248 20617598 20609606 20603004 20598732 20597098 
3317.735 20598592 20603354 20611518 20622948 20637578 20655194 20675312 
3321.111 20697624 20721604 20746556 20772136 20797196 20821390 20843602 
3324.486 20863140 20879586 20893178 20904790 20915082 20925304 20935978 
3327.861 20947176 20958372 20969082 20978854 20988172 20997978 21009698 
3331.236 21024410 21042702 21063850 21086212 21107848 21126318 21140234 
3334.612 21148616 21151506 21149140 21141834 21129276 21110944 21085414 
3337.987 21051814 21009698 20959138 20901418 20838216 20771338 20702316 
3341.362 20632748 20562946 20493646 20425118 20357470 20291430 20227240 
3344.737 20165142 20105412 20047496 19990800 19934700 19878854 19823186 
3348.113 19767736 19712774 19658064 19602530 19544958 19483788 19417776 
3351.488 19346856 19271962 19195006 19118546 19044592 18974286 18907936 
3354.863 18844642 18784090 18725934 18670864 18619882 18574472 18534914 
3358.238 18500336 18468664 18436720 18401806 18361812 18316396 18266422 
3361.614 18214002 18161590 18111046 18063928 18021272 17983664 17951478 
3364.989 17924716 17902826 17884594 17868194 17851174 17830872 17805432 
3368.364 17773466 17734670 17689628 17639004 17583554 17524386 17462292 
3371.739 17398588 17334926 17273516 17216528 17165508 17121596 17084478 
3375.115 17053634 17027444 17004634 16983924 16964390 16945372 16926492 
3378.490 16907440 16888044 16868134 16847640 16826422 16804104 16780410 
3381.865 16754683 16726825 16697142 16666258 16635651 16606767 16580535 
3385.240 16557265 16536923 16518611 16501643 16486328 16472906 16462548 
3388.615 16455665 16452223 16450364 16447680 16441178 16428169 16407901 
3391.991 16380649 16348446 16313870 16279330 16246103 16214836 16184742 
3395.366 16155269 16126176 16097944 16071709 16049154 16031381 16018797 
3398.741 16011165 16006697 16002983 15997587 15987994 15972354 15950045 
3402.116 15921103 15886631 15848346 15808379 15768178 15729217 15692079 
3405.492 15656663 15623000 15590681 15560115 15531576 15505994 15483743 
3408.867 15465373 15450643 15439039 15429494 15420705 15411505 15400931 
3412.242 15388366 15373467 15356304 15337939 15318821 15299806 15281787 
3415.617 15265005 15249115 15234084 15219019 15203235 15186215 15167652 
3418.993 15146962 15124009 15098553 15070595 15040820 15010601 14981859 
3422.368 14956892 14937619 14924725 14918038 14915671 14915054 14913511 
3425.743 14908881 14899863 14886387 14869174 14849184 14827276 14803928 
3429.118 14779211 14753090 14726147 14698795 14672165 14647420 14625077 
3432.494 14605853 14589542 14575253 14561753 14547842 14532389 14514402 
3435.869 14493710 14470928 14447019 14423520 14401359 14381185 14362417 
3439.244 14343375 14321663 14295296 14262938 14224898 14183473 14141744 
3442.619 14102996 14069420 14041528 14017675 13995364 13971377 13943764 
3445.995 13911946 13877495 13842876 13811440 13785685 13766464 13753057 
3449.370 13743720 13735821 13726997 13715097 13699468 13679875 13656897 
3452.745 13631732 13605235 13578569 13552452 13527531 13503946 13481867 
3456.120 13461052 13441264 13422058 13402852 13383375 13363282 13342337 
3459.496 13320880 13299014 13277150 13255833 13235268 13215251 13195952 
3462.871 13176552 13156845 13136285 13115044 13093052 13070856 13049413 
3466.246 13029200 13010933 12994887 12980787 12968020 12955525 12941666 
3469.621 12925348 12905619 12881828 12854763 12825413 12795007 12764944 
3472.997 12736248 12708987 12683262 12658871 12635093 12612137 12590511 
3476.372 12570456 12552243 12536043 12520492 12504362 12486117 12464191 
3479.747 12437868 12407318 12373532 12338147 12303513 12271678 12244241 
3483.122 12222055 12204709 12190873 12178640 12165214 12148381 12126846 
3486.498 12100339 12069983 12038302 12007678 11980327 11957575 11939353 
3489.873 11924266 11911018 11897839 11883128 11866578 11847782 11826944 
3493.248 11804029 11779347 11753166 11726409 11700403 11676474 11656393 
3496.623 11640873 11629778 11622223 11616811 11612013 11606330 11598911 
3499.999 11589076 11576553 11560423 11540313 11516020 11488529 11459338 
3503.374 11431817 11409367 11394876 11390113 11394739 11406032 11420252 
3506.749 11433451 11442125 11444064 11439336 11429164 11415897 11402053 
3510.124 11389773 11380454 11374161 11370386 11367597 11364638 11359910 
3513.500 11352495 11341985 11328688 11313282 11297434 11282607 11270637 
3516.875 11262986 11260708 11264448 11274275 11289748 11309473 11331884 
3520.250 11354740 11375420 11391951 11402835 11407870 11407971 11405420 
3523.625 11402427 11400896 11402189 11405727 11410557 11415149 11418585 
3527.000 11421000 11423585 11428280 11437158 11451412 11471041 11494721 
3530.376 11520919 11547391 11572402 11595167 11615178 11632331 11646863 
3533.751 11658435 11667114 11673003 11676985 11680661 11685698 11694276 
3537.126 11707347 11725524 11747753 11772878 11799127 11825276 11850200 
3540.501 11873559 11894911 11913572 11928319 11937242 11938196 11929204 
3543.877 11908941 11877441 11835660 11786734 11734817 11684746 11641860 
3547.252 11610073 11591731 11586422 11590914 11599524 11605820 11603267 
3550.627 11587408 11556783 11513196 11461448 11407699 11357563 11314948 
3554.002 11281314 11255675 11235817 11219122 11203958 11188420 11171795 
3557.378 11153743 11133482 11111216 11087184 11062576 11039056 11018834 
3560.753 11003337 10993210 10987976 10985088 10981485 10972582 10953994 
3564.128 10920933 10869119 10795845 10700710 10587025 10462169 10337348 
3567.503 10225861 10137974 10080490 10053666 10052412 10068282 10092461 
3570.879 10117015 10136584 10148862 10153271 10150558 10142112 10128241 
3574.254 10109079 10085102 10056786 10025522 9993820 9963780 9937709 9916556 
3578.111 9900114 9887675 9878285 9870930 9865066 9861066 9858998 9859676 
3581.969 9863371 9870049 9878420 9887098 9892556 9890149 9875133 9842221 
3585.826 9788029 9712733 9621968 9525770 9437687 9371052 9334792 9331441 
3589.684 9357408 9404063 9460172 9514967 9560251 9589720 9601271 9595207 
3593.541 9574816 9544670 9509717 9474869 9444222 9420316 9404198 9396039 
3597.398 9393364 9392856 9390587 9382970 9367226 9343155 9312754 9280528 
3601.256 9251419 9231110 9222683 9227353 9243532 9267632 9295117 9320472 
3605.113 9338076 9342816 9330324 9297893 9245427 9176724 9099266 9022771 
3608.971 8957891 8910843 8883281 8870734 8864782 8856294 8838101 8808243 
3612.828 8770442 8733625 8706580 8696404 8704213 8724530 8747384 8760062 
3616.686 8751813 8714355 8646174 8551577 8441562 8331033 8234648 8164753 
3620.543 8127683 8122956 8145441 8187340 8240219 8297326 8355217 8413082 
3624.400 8471800 8531910 8590238 8638130 8662162 8644079 8567325 8424399 
3628.258 8225159 8000157 7792103 7641271 7567392 7566313 7615475 7687271 
3632.115 7756144 7804551 7825670 7822836 7806069 7786807 7774258 7771526 
3635.973 7776350 7782692 7785120 7780567 7769165 7753817 7737694 7723561 
3639.830 7712363 7703763 7697625 7694994 7698637 7712296 7739246 7779959 
3643.688 7831473 7887750 7939883 7978556 7995803 7985610 7945654 7876480 
3647.545 7781747 7667002 7538735 7406022 7280055 7174167 7102860 7076927 
3651.402 7100637 7169249 7270284 7385564 7493964 7575956 7617127 7610754 
3655.260 7560413 7482301 7400899 7339563 7314997 7331307 7380677 7448457 
3659.117 7518708 7578553 7620567 7643126 7649601 7646262 7640766 7638607 
3662.975 7644610 7661269 7689227 7728486 7778070 7836195 7899660 7963978 
3666.832 8022567 8067662 8092439 8092877 8072826 8045587 8035797 8074143 
3670.689 8185618 8382274 8657565 8990263 9347996 9692403 9986123 10189090 
3674.547 10269353 10213072 10032880 9765900 9458445 9147790 8851661 8572597 
3678.404 8307391 8055645 7823949 7624512 7468817 7363692 7306775 7288849 
3682.262 7296700 7319243 7350751 7389945 7438109 7495144 7556165 7610619 
3686.119 7644711 7643834 7598581 7508090 7383205 7243431 7110404 7001729 
3689.977 6926242 6884194 6871369 6882881 6913988 6960651 7017926 7079924 
3693.834 7139270 7189393 7226114 7248889 7260917 7269037 7280257 7299328 
3697.691 7326993 7359614 7390114 7410201 7412830 7394394 7356143 7304416 
3701.549 7249260 7203071 7175717 7173796 7198658 7246868 7311796 7384721 
3705.406 7457592 7523563 7578114 7618948 7645689 7659144 7659212 7645116 
3709.264 7615306 7567156 7499830 7416369 7323186 7231909 7155876 7105824 
3713.121 7088647 7104072 7146209 7205092 7270183 7332048 7383677 7422537 
3716.979 7449165 7467300 7481896 7497200 7515236 7535127 7553468 7566415 
3720.836 7571034 7566988 7556536 7544466 7534891 7530609 7531048 7532801 
3724.693 7531250 7523192 7508629 7491975 7481626 7487492 7516247 7569180 
3728.551 7640496 7718907 7789573 7837646 7852997 7832789 7783130 7716614 
3732.408 7648926 7590893 7544027 7500673 7448727 7378520 7289557 7193604 
3736.266 7109798 7058673 7051399 7087468 7156785 7246194 7344921 7446974 
3740.123 7551613 7659111 7765589 7860555 7923483 7928342 7852829 7690576 
3743.980 7466693 7235614 7065779 7002436 7049917 7177300 7337945 7486649 
3747.838 7585566 7613384 7566449 7458435 7314222 7162445 7026311 6918027 
3751.695 6843699 6806574 6809670 6854268 6936915 7047762 7171236 7289894 
3755.553 7388800 7457727 7493931 7501179 7487121 7459716 7424559 7384452 
3759.410 7342596 7304012 7277393 7272272 7294779 7343842 7410774 7480446 
3763.268 7535970 7566010 7566381 7543657 7511427 7485469 7475660 7482570 
3767.125 7496695 7504044 7492481 7455064 7394327 7321366 7252359 7201757 
3770.982 7178378 7183566 7212234 7256436 7307483 7358805 7406393 7448693 
3774.840 7486177 7520428 7552220 7581554 7605527 7619386 7618206 7598278 
3778.697 7560953 7512877 7465850 7432851 7422301 7436188 7468378 7507449 
3782.555 7540487 7557817 7555895 7537993 7511865 7487323 7471682 7467199 
3786.412 7472154 7482368 7493931 7505291 7516551 7529092 7543994 7561020 
3790.270 7579126 7597738 7617465 7640496 7669329 7704539 7743428 7779622 
3794.127 7804180 7809982 7794060 7760833 7721740 7692701 7686293 7707507 
3797.984 7750174 7799019 7832856 7829786 7774798 7664203 7513146 7351088 
3801.842 7217152 7143514 7142402 7205732 7309538 7423750 7517360 7566583 
3805.699 7558997 7497841 7402416 7303338 7231808 7206204 7228438 7286356 
3809.557 7363220 7443435 7518203 7586409 7652501 7720695 7792002 7859543 
3813.414 7909986 7927026 7897163 7817641 7701166 7576800 7479132 7434469 
3817.271 7450614 7514899 7600840 7675433 7709902 7684101 7593962 7455064 
3821.129 7300912 7173325 7103028 7102186 7160962 7257312 7364096 7457962 
3824.986 7524440 7558963 7567392 7562335 7559570 7571000 7601076 7646026 
3828.844 7696849 7742517 7773719 7785998 7780398 7762418 7740224 7721943 
3832.701 7713713 7717862 7733444 7755706 7778037 7791463 7786369 7755638 
3836.559 7695568 7609641 7508460 7408482 7326623 7274563 7256537 7267521 
3840.416 7298014 7335923 7371308 7397967 7413740 7420043 7420953 7421964 
3844.273 7428166 7444581 7474547 7519046 7577676 7647645 7725484 7807284 
3848.131 7890820 7974574 8058109 8139161 8211787 8262912 8273483 8220533 
3851.988 8083325 7856372 7560885 7249125 6985298 6819633 6769114 6817849 
3855.846 6932437 7077466 7226552 7362681 7477480 7570090 7642216 7696444 
3859.703 7735535 7761170 7775405 7780161 7777395 7767175 7748791 7719885 
3863.561 7679750 7632200 7587859 7561020 7565471 7607989 7683662 7775540 
3867.418 7858463 7907455 7903338 7841493 7735468 7615879 7518708 7467705 
3871.275 7467772 7504449 7554277 7593456 7607955 7596727 7571067 7549186 
3875.133 7548242 7577811 7636348 7713477 7793284 7859678 7900234 7907084 
3878.990 7880124 7827087 7763060 7706124 7673714 7676479 7714859 7778273 
3882.848 7848207 7903372 7923382 7895510 7820575 7715028 7607483 7528317 
3886.705 7499628 7525687 7594636 7683494 7767006 7823713 7839671 7812007 
3890.563 7749601 7670847 7596592 7545005 7526463 7541634 7584352 7645251 
3894.420 7715130 7786166 7852997 7911841 7959861 7994655 8013791 8015412 
3898.277 7999076 7966137 7921188 7870103 7819260 7773280 7733714 7698131 
3902.135 7662281 7621915 7575619 7525687 7478997 7443974 7428435 7435918 
3905.992 7465278 7511022 7565707 7621511 7672533 7716107 7751287 7779184 
3909.850 7801583 7820407 7837748 7855224 7874388 7896860 7923010 7951559 
3913.707 7979400 8001574 8012812 8008965 7988749 7954563 7911909 7868180 
3917.564 7830393 7802628 7786234 7779824 7781308 7788325 7799491 7814098 
3921.422 7830697 7847363 7861432 7869799 7870508 7863591 7851918 7840345 
3925.279 7833970 7836871 7850467 7873072 7900841 7929455 7954698 7973393 
3929.137 7984193 7986589 7980784 7967420 7947847 7923921 7898952 7876716 
3932.994 7861364 7855528 7860454 7874962 7896050 7919738 7942617 7962156 
3936.852 7977882 7990369 8001405 8012070 8022499 8031241 8035562 8032254 
3940.709 8019192 7995904 7964383 7929590 7897804 7875130 7866088 7871959 
3944.566 7890482 7916059 7942515 7963168 7973360 7971031 7957363 7936069 
3948.424 7912145 7890517 7874793 7867134 7867302 7873882 7885388 7899424 
3952.281 7914743 7929625 7943359 7955035 7964113 7970660 7974946 7977949 
3956.139 7980717 7984530 7990099 7997962 8007481 8018280 8029182 8038937 
3959.996 8046801 8051966 8053822 8052675 8048793 8043055 8036709 8031106 
3963.854 8027461 8026584 8028845 8033908 8040996 8048860 8056083 8061384 
3967.711 8063645 8062261 8057535 8050413 8042210 8035190 8031073 8031680 
3971.568 8037216 8047409 8060540 8074716 8088253 8100136 8110500 8120222 
3975.426 8130687 8142807 8156514 8170999 8184437 8194972 8201252 8202805 
3979.283 8200408 8195410 8189569 8184876 8182479 8182782 8185686 8190649 
3983.141 8196964 8203885 8210875 8217392 8223268 8228907 8234580 8240794 
3986.998 8247716 8255382 8262946 8269700 8274563 8276995 8277502 8276725 
3990.855 8276117 8277097 8280372 8285539 8291821 8297359 8300939 8301852 
3994.713 8300332 8297124 8293679 8291078 8290099 8290842 8293104 8296042 
3998.570 8299014 8301412 8302831 8303067 8301919 
##END=
