
##TITLE=Z244_2_e
##JCAMP-DX=5.01  $$ Nicolet v. 1
##DATATYPE=INFRARED SPECTRUM
##ORIGIN=UniL
##OWNER=Nicolet
##LONGDATE=2011/09/20
##TIME=14:05:53
##SPECTROMETER/DATA SYSTEM=Nicolet iS5
##DATA PROCESSING=
Ratio against background
%Transmittance->Absorbance
Truncated
ElementMultiply or ElementDivide
##COMMENTS=
Number of sample scans: 32
Collection length: 51.16 sec
Sample gain: 2.0
Background collected on: Mar Sep 20 13:32:44 2011 (GMT+02:00);
Number of background scans: 32
Background gain: 2.0
Sample spacing:  1.000
Number of scan points: 12415
Resolution points: 8192
Number of FFT points: 65536
Apodization: N-B fort;
Phase correction: Mertz;
Laser frequency: 15798.0 cm-1
Number of rejected sample scans: 0
Number of rejected background scans: 0
Bench serial number: ASB1000141;
##RESOLUTION=4.000
##XUNITS=1/CM
##YUNITS=ABSORBANCE
##FIRSTX=649.893372
##LASTX=4000.122314
##FIRSTY=0.066721
##MAXX=4000.122314
##MINX=649.893372
##MAXY=0.390811
##MINY=0.001769
##XFACTOR=1.000000
##YFACTOR=1.000000E-009
##NPOINTS=6950
##DELTAX=0.482117
##ZPD=6100
##XYDATA=(X++(Y..Y))
649.893 66720896 67482464 68230136 68978280 69745304 70547392 71395256 
653.268 72295304 73256192 74291872 75420600 76661440 78028304 79527528 
656.643 81164376 82951176 84913120 87092336 89541616 92307608 95428464 
660.018 98925048 102800040 107035696 111578800 116325136 121086040 125602944 
663.393 129593520 132778568 134955056 135996480 135813920 134333648 
666.285 131495552 127341944 122131216 116437152 111026680 106511208 
669.178 103125152 100734280 99040736 97740440 96612608 95541536 94490240 
672.553 93479272 92550040 91744976 91086736 90578056 90209544 89970208 
675.928 89854792 89865792 90010888 90298416 90735432 91324768 92067080 
679.302 92962896 94014168 95227912 96617336 98199432 99994328 102023968 
682.677 104307968 106870728 109745464 112977048 116631720 120791352 
685.570 125540864 130969736 137159120 144183264 152119152 161041008 
688.463 170998512 181959136 193732272 205867136 217539344 227644464 
691.355 234850080 237846048 235766592 228366784 216174400 200323232 
694.248 182365664 163945840 146439872 130955888 118166552 108315472 
697.141 101350272 96982792 94824352 94459184 95556360 97914096 101447568 
700.516 106149704 111990656 118785280 126123104 133304480 139368864 
703.408 143351248 144435520 142216096 136829760 128920688 119480440 
706.301 109530088 100007552 91560632 84489856 78837240 74449008 71095976 
709.676 68537464 66581832 65093308 63967688 63122964 62487320 61996092 
713.051 61607356 61304852 61094620 60993104 61010528 61139932 61356676 
716.425 61626372 61918552 62218080 62525624 62851912 63207344 63594676 
719.800 64006852 64433940 64869532 65318732 65796004 66322312 66913732 
723.175 67577424 68310248 69102624 69943424 70822120 71727736 72644448 
726.550 73545912 74399456 75170880 75837880 76402232 76896592 77380424 
729.925 77920696 78579112 79392216 80364056 81473200 82686424 83977368 
733.300 85335800 86772568 88310424 89973096 91773384 93710064 95774176 
736.674 97961504 100282120 102768472 105466200 108426384 111691320 115284928 
740.049 119216752 123491296 128121080 133137496 138594016 144559568 
742.942 151123968 158401152 166538752 175746928 186280000 198383808 
745.835 212195984 227579792 243962400 260115536 274276448 284337376 
748.727 288314592 285164704 275174720 260043408 242230672 224454144 
751.620 209067856 197572544 190740848 188552208 190390720 195184752 
754.513 201651312 208581776 214869616 219723776 222687824 223551696 
757.405 222294000 218978992 213696736 206545984 197660896 187262304 
760.298 175680192 163373696 150921488 138910160 127920224 118448800 
763.191 110811480 105159344 101440664 99434616 98779688 99043152 99815000 
766.566 100710624 101435808 101797768 101680120 101047184 99929304 98418360 
769.940 96652144 94795624 93028648 91498376 90304736 89489664 89039536 
773.315 88907936 89040432 89398464 89962504 90727024 91687312 92828248 
776.690 94122752 95540512 97058728 98671464 100388688 102225800 104190440 
780.065 106271992 108439816 110654048 112878464 115088072 117273904 
782.958 119433544 121560312 123634728 125621704 127475768 129156040 
785.850 130630704 131880912 132896528 133665232 134165512 134367680 
788.743 134236720 133745208 132883696 131662608 130109456 128257496 
791.636 126139400 123779488 121196008 118409192 115445040 112337520 
794.528 109125640 105841680 102507768 99135224 95731088 92311256 88910944 
797.903 85581712 82389872 79400768 76659816 74191664 71997736 70065352 
801.278 68377184 66917172 65670916 64619496 63736400 62988372 62337284 
804.653 61751296 61210768 60707872 60244036 59822452 59442876 59101140 
808.028 58795212 58533104 58336868 58244292 58302380 58551876 59023244 
811.402 59726024 60647820 61751832 62976500 64237280 65416680 66376360 
814.777 66976592 67086628 66624628 65575376 63999824 62020896 59798116 
818.152 57503240 55274276 53208420 51360216 49746908 48366664 47208976 
821.527 46259984 45500228 44902884 44435800 44063968 43758776 43504708 
824.902 43297936 43142380 43041352 42990540 42977588 42986768 43005720 
828.277 43032792 43076404 43151088 43268208 43429740 43626464 43843988 
831.651 44068548 44294660 44526284 44773492 45044664 45341856 45658764 
835.026 45984960 46312952 46642924 46984040 47349548 47752204 48197436 
838.401 48683636 49205224 49758836 50347460 50980920 51671504 52428648 
841.776 53255204 54147968 55101920 56115960 57196440 58355892 59607992 
845.151 60958940 62403308 63920772 65482096 67048348 68574792 70013408 
848.525 71304040 72377920 73165288 73598936 73637016 73276128 72560216 
851.900 71575840 70437368 69272736 68189544 67266592 66548728 66046096 
855.275 65745348 65617724 65629288 65742724 65921708 66137148 66367440 
858.650 66603728 66849648 67119072 67429600 67795928 68227656 68727888 
862.025 69296904 69936416 70649568 71437600 72290448 73179568 74051248 
865.400 74824968 75410824 75717752 75671256 75232584 74401464 73220472 
868.774 71762208 70127760 68432104 66785464 65296324 64055420 63125184 
872.149 62544940 62326840 62464172 62942140 63748716 64882228 66355824 
875.524 68195168 70433944 73107608 76241424 79838104 83857104 88203072 
878.899 92700176 97081392 101030248 104183744 106202128 106853352 106043056 
882.274 103863304 100565712 96544200 92249248 88097416 84461272 81602048 
885.648 79670088 78732688 78782056 79760656 81566704 84067840 87091208 
889.023 90406280 93746696 96795880 99206504 100669552 100931160 99852440 
892.398 97441968 93856664 89381000 84354752 79152008 74102920 69443928 
895.773 65329052 61815088 58888440 56493396 54558440 53013788 51792624 
899.148 50837824 50096644 49518612 49062304 48696200 48399668 48163452 
902.523 47983016 47852668 47763152 47701056 47653392 47612680 47579704 
905.897 47561404 47566320 47599264 47657384 47731348 47809832 47885112 
909.272 47957152 48033088 48122768 48233464 48366704 48518064 48680452 
912.647 48849312 49024952 49212572 49419320 49648608 49899088 50164068 
916.022 50436468 50712236 50993776 51288056 51604036 51946832 52314752 
919.397 52700224 53093984 53489596 53886884 54291932 54713892 55162264 
922.771 55643404 56161848 56723536 57338352 58020424 58784060 59634976 
926.146 60561760 61528744 62481468 63348828 64059032 64558448 64817988 
929.521 64843260 64670184 64361848 63993724 63640176 63372636 63246360 
932.896 63298992 63552020 64009844 64663032 65489800 66459948 67534024 
936.271 68661760 69788568 70854768 71803608 72595928 73215688 73680272 
939.646 74036632 74359584 74735344 75241160 75939928 76866408 78027080 
943.020 79403952 80960472 82647464 84399464 86140328 87783760 89230336 
946.395 90386296 91169952 91522264 91421064 90881560 89954800 88714064 
949.770 87249968 85659392 84029792 82444832 80975320 79672872 78573352 
953.145 77692120 77025904 76559064 76269312 76135640 76140144 76269984 
956.520 76515160 76864712 77306464 77827816 78418256 79072904 79793424 
959.894 80587024 81461688 82424160 83477296 84622048 85860672 87202088 
963.269 88663176 90270520 92054784 94044200 96260824 98714720 101404088 
966.644 104316680 107436208 110749432 114252112 117956040 121889384 
969.537 126094176 130610928 135461648 140623296 146012256 151463504 
972.429 156727072 161513184 165503120 168412544 170061344 170398752 
975.322 169537104 167721184 165316960 162735968 160356896 158515776 
978.215 157434848 157205088 157782944 158990528 160541952 162050208 
981.108 163112448 163349904 162454688 160265936 156775760 152135008 
984.000 146602832 140514448 134225120 128037152 122207552 116917912 
986.893 112267064 108295448 104989176 102300224 100157792 98485160 97211264 
990.268 96269304 95603808 95168840 94922344 94829096 94860256 94992064 
993.643 95209512 95503728 95869816 96304208 96801888 97355232 97955536 
997.017 98594744 99267552 99972264 100709872 101481640 102287360 103124152 
1000.392 103987224 104872432 105776912 106701376 107648264 108621424 
1003.285 109623776 110656824 111721736 112820368 113956512 115136232 
1006.178 116365896 117650528 118991440 120386080 121828328 123311368 
1009.070 124829984 126381264 127964672 129580352 131227616 132904080 
1011.963 134606608 136332624 138082608 139861616 141678624 143545344 
1014.856 145473520 147474288 149556256 151726864 153993184 156362832 
1017.748 158843232 161442336 164165728 167016320 169991856 173085344 
1020.641 176279488 179543328 182830320 186067568 189156784 191985024 
1023.534 194422704 196350624 197682624 198378208 198460384 198011264 
1026.427 197168368 196091760 194941040 193861504 192952640 192264528 
1029.320 191790192 191467424 191178544 190754064 190004112 188717136 
1032.213 186690848 183773520 179869936 174971424 169157712 162596368 
1035.106 155522624 148198640 140912272 133923456 127435104 121596392 
1037.999 116476672 112078216 108353064 105224440 102606080 100413080 
1040.892 98575992 97035776 95741456 94651064 93727008 92937736 92261096 
1044.267 91681096 91187608 90773080 90428440 90143520 89908056 89714712 
1047.643 89561320 89450944 89389432 89380432 89420608 89496864 89586936 
1051.018 89662128 89689536 89639512 89487216 89215480 88818976 88305384 
1054.393 87698320 87033752 86360984 85734544 85202856 84806008 84568104 
1057.768 84497056 84589000 84832712 85213376 85710768 86297808 86937408 
1061.144 87575872 88149768 88591984 88836664 88836736 88567808 88032192 
1064.519 87257048 86289080 85189192 84019304 82842336 81715576 80681856 
1067.894 79772280 79002384 78373768 77878832 77506880 77249264 77101680 
1071.269 77063928 77136744 77318304 77602224 77978224 78434568 78961336 
1074.645 79552400 80204608 80915560 81681184 82494744 83349136 84239896 
1078.020 85169152 86147280 87192648 88328688 89577776 90961792 92500384 
1081.395 94212392 96121144 98254600 100643904 103323976 106326888 109678536 
1084.770 113397320 117489336 121945064 126730784 131787720 137025104 
1087.663 142317488 147526688 152506656 157122928 161278272 164910848 
1090.556 167993312 170517792 172473792 173831232 174540448 174541040 
1093.449 173795248 172321408 170224416 167701248 165015296 162488512 
1096.343 160429440 159095040 158674464 159244896 160770032 163087600 
1099.236 165936432 168956432 171708848 173760208 174691728 174166800 
1102.129 171999248 168156816 162775056 156111904 148523952 140401952 
1105.022 132105720 123970840 116260088 109151192 102759024 97125768 92240152 
1108.397 88055048 84503576 81511976 79003616 76908776 75160792 73694680 
1111.772 72453792 71386472 70448952 69609736 68845592 68140624 67484864 
1115.147 66871220 66295988 65758416 65262356 64814828 64423912 64096400 
1118.523 63834912 63637680 63499324 63414312 63379192 63393452 63459216 
1121.898 63578300 63750556 63973256 64241820 64552376 64904040 65299132 
1125.273 65742760 66239832 66793384 67404368 68072176 68797608 69584184 
1128.648 70438624 71368896 72380816 73475192 74645432 75878920 77158344 
1132.024 78462080 79767744 81051112 82285016 83442848 84500192 85438648 
1135.399 86253272 86954976 87573568 88151432 88741904 89401112 90177448 
1138.774 91114040 92244088 93590440 95169000 96987056 99043608 101327344 
1142.149 103817392 106483936 109286216 112175632 115095848 117975088 
1145.042 120733384 123277264 125498352 127289336 128543704 129167360 
1147.936 129095600 128294272 126765920 124545416 121697016 118306152 
1150.829 114466872 110285752 105871448 101324872 96744584 92213808 87797832 
1154.204 83551272 79514792 75719728 72193408 68955096 66016628 63380764 
1157.579 61040924 58983388 57190088 55642580 54321292 53205352 52271692 
1160.954 51492404 50836144 50273496 49777640 49329152 48917392 48537296 
1164.330 48187332 47866984 47574712 47309644 47072432 46866984 46699924 
1167.705 46578408 46508072 46490924 46525848 46610128 46742060 46922496 
1171.080 47154344 47440900 47783052 48178184 48621372 49107156 49633008 
1174.455 50200776 50817040 51490052 52226736 53031532 53905604 54848912 
1177.831 55862588 56949532 58113936 59357736 60676548 62057816 63479616 
1181.206 64915316 66337252 67721456 69052744 70324576 71539936 72709744 
1184.581 73853376 74997816 76173624 77415704 78754848 80210744 81787008 
1187.956 83465736 85208864 86957888 88643880 90196688 91546032 92634880 
1191.332 93420272 93873520 93982240 93746824 93177928 92292160 91109624 
1194.707 89652192 87941464 86004592 83878560 81612040 79272888 76942592 
1198.082 74701344 72624352 70761952 69132032 67721992 66495784 65407820 
1201.457 64413188 63480764 62595576 61756836 60973316 60258348 59626312 
1204.833 59089520 58658056 58339404 58135940 58044852 58057540 58162308 
1208.208 58346380 58599804 58917620 59299812 59748684 60267260 60856124 
1211.583 61514768 62242400 63040324 63913292 64868920 65915384 67059712 
1214.958 68305552 69654464 71108064 72670224 74349792 76159376 78114640 
1218.333 80231984 82525960 85010472 87700584 90613280 93770056 97195888 
1221.709 100915032 104949016 109310384 113999632 118999368 124272152 
1224.602 129757480 135359408 140950608 146367408 151398160 155811360 
1227.495 159358176 161791872 162919408 162615648 160853712 157709936 
1230.388 153361088 148062144 142097376 135779408 129409224 123238184 
1233.281 117484088 112302376 107783120 103969968 100861608 98428256 96620976 
1236.656 95382656 94652008 94362536 94450744 94856176 95521640 96400920 
1240.031 97454168 98644016 99935184 101284416 102638648 103940792 105128112 
1243.407 106143192 106944000 107505720 107825968 107921752 107828176 
1246.300 107592352 107267736 106916160 106598744 106370144 106276600 
1249.193 106344488 106578792 106962272 107461792 108034128 108633464 
1252.086 109222304 109772432 110268624 110708944 111103752 111476680 
1254.979 111860096 112296760 112833264 113510784 114361960 115401512 
1257.872 116623352 117998696 119478784 120999744 122479216 123826768 
1260.765 124946512 125735072 126099272 125958248 125251992 123952856 
1263.658 122066168 119629096 116701248 113360968 109697264 105799280 
1266.551 101764008 97690648 93670520 89792528 86130392 82736488 79647992 
1269.927 76885752 74459744 72374008 70626768 69209544 68105080 67288216 
1273.302 66728936 66394852 66259472 66302896 66511728 66877516 67392176 
1276.677 68046480 68830456 69735032 70755008 71891024 73148312 74534992 
1280.052 76058816 77726512 79544240 81519728 83665264 85997648 88534616 
1283.427 91290552 94268256 97453296 100807696 104274224 107776024 111219096 
1286.803 114508968 117549096 120249392 122537120 124353848 125659224 
1289.696 126432416 126666112 126362248 125525520 124157696 122256552 
1292.589 119820384 116857496 113398568 109504128 105274344 100837584 
1295.482 96339616 91941920 87793608 84030600 80774904 78117224 76121272 
1298.857 74818272 74202720 74235104 74845720 75949792 77447784 79236024 
1302.232 81218424 83294984 85367904 87345160 89130976 90638592 91796792 
1305.608 92548520 92859808 92716952 92124664 91105744 89704480 87998680 
1308.983 86098232 84151000 82336160 80822680 79751264 79194632 79131296 
1312.358 79437088 79897952 80269264 80301464 79810944 78720008 77058472 
1315.733 74952016 72575248 70128000 67781248 65653840 63813956 62276360 
1319.109 61022580 60017956 59229020 58629608 58200724 57929280 57802272 
1322.484 57805488 57925040 58148972 58468392 58877888 59372060 59942712 
1325.859 60577420 61258800 61967388 62686056 63400088 64099932 64779520 
1329.234 65433860 66058136 66648536 67202616 67721992 68213464 68688224 
1332.610 69158992 69637232 70130680 70643056 71175008 71726920 72300344 
1335.985 72899344 73529192 74194928 74900312 75647872 76439928 77280536 
1339.360 78175936 79132808 80157384 81251496 82412056 83632088 84903656 
1342.735 86221464 87584592 88998744 90474064 92023616 93659248 95390128 
1346.111 97221296 99154336 101188784 103323560 105558128 107891504 110321248 
1349.486 112842112 115444088 118113408 120835952 123599144 126398680 
1352.379 129240496 132142648 135132624 138242752 141508720 144963392 
1355.272 148636480 152553072 156727264 161155088 165800752 170594832 
1358.165 175422912 180133584 184574656 188602960 192123104 195105760 
1361.058 197586624 199652112 201404128 202947584 204361056 205690928 
1363.951 206961872 208180352 209343216 210441888 211466672 212412080 
1366.844 213286512 214121328 214977504 215943456 217112448 218571280 
1369.737 220382784 222578368 225168256 228153520 231539504 235337184 
1372.630 239556816 244195280 249220208 254571376 260178176 265985248 
1375.523 271976192 278171360 284605120 291281472 298134848 304991776 
1378.417 311592032 317605248 322659072 326409280 328531616 328735488 
1381.310 326811680 322661216 316368480 308210752 298633472 288130624 
1384.203 277086688 265736784 254125360 242178496 229809904 217031344 
1387.096 204002128 191002736 178347952 166296400 155020544 144603120 
1389.989 135081024 126485136 118830232 112120384 106334080 101414000 
1392.882 97281480 93851560 91057560 88843768 87157128 85935616 85086528 
1396.257 84501160 84082512 83762424 83529704 83431680 83567256 84050264 
1399.632 84972792 86389200 88306848 90704688 93549344 96805032 100419088 
1403.008 104293600 108277208 112140376 115586448 118317944 120063560 
1405.901 120640896 119990256 118164728 115315088 111644912 107403576 
1408.794 102850592 98226600 93766728 89658944 86031248 82955624 80445472 
1412.169 78477992 77015976 76027272 75489312 75381424 75677328 76335232 
1415.544 77298432 78514872 79945872 81582456 83447904 85584008 88024280 
1418.919 90760672 93736416 96860936 100046512 103239792 106427416 109620232 
1422.295 112821536 116004144 119097608 121979544 124510024 126559224 
1425.188 128026648 128854184 129004968 128445448 127144336 125083672 
1428.081 122289440 118846440 114909392 110678376 106347880 102094128 
1430.974 98052608 94317448 90961016 88029232 85536880 83470272 81786448 
1434.349 80430448 79354464 78543584 78026800 77865320 78114296 78781304 
1437.724 79808672 81096480 82534376 84027264 85513080 86949632 88309320 
1441.100 89574352 90727152 91752176 92639104 93383824 93990176 94466680 
1444.475 94822872 95063824 95189216 95198168 95097440 94910968 94687488 
1447.850 94489576 94378056 94393416 94541520 94799784 95132912 95514912 
1451.225 95939608 96422424 96987800 97652768 98410968 99233112 100068536 
1454.601 100862824 101576280 102193264 102732504 103235040 103746280 
1457.494 104280080 104811192 105293464 105687984 105979280 106176744 
1460.387 106306864 106401640 106490416 106593320 106726152 106906328 
1463.280 107157592 107515232 108018872 108699848 109576184 110651272 
1466.173 111921536 113390480 115069672 116973904 119110952 121473656 
1469.066 124041952 126779272 129648360 132613464 135626880 138621728 
1471.959 141493488 144097376 146274576 147882832 148819360 149031408 
1474.852 148500864 147243776 145314000 142807664 139855392 136590448 
1477.745 133129624 129545616 125865264 122094088 118236888 114317248 
1480.638 110389944 106527896 102802312 99269216 95954112 92857264 89963080 
1484.013 87250448 84700448 82299072 80038088 77916856 75943480 74133144 
1487.389 72506920 71085552 69884528 68911408 68167448 67651832 67362032 
1490.764 67291896 67426200 67734928 68174344 68694240 69241800 69775696 
1494.139 70272728 70729624 71163960 71605144 72079640 72593424 73125992 
1497.514 73634424 74072312 74401896 74605808 74688952 74674544 74598528 
1500.890 74498840 74413216 74369576 74381400 74445472 74539240 74624496 
1504.265 74648696 74562136 74339688 74009920 73667088 73446000 73462632 
1507.640 73747848 74249336 74869848 75518448 76128608 76664200 77118064 
1511.015 77500024 77830112 78128568 78412336 78689624 78960696 79219288 
1514.391 79457296 79670408 79863552 80056176 80280976 80578688 80979352 
1517.766 81489984 82087912 82728912 83358416 83928528 84421104 84860584 
1521.141 85316240 85867616 86570552 87424296 88377952 89354864 90283368 
1524.516 91120904 91854312 92503176 93105424 93704392 94329968 94994128 
1527.892 95698256 96442456 97232480 98078856 98989336 99961672 100979616 
1531.267 102023168 103079904 104162304 105314584 106608056 108113168 
1534.160 109858576 111822200 113939928 116141840 118365632 120573976 
1537.053 122762120 124944832 127165120 129487888 132000592 134787488 
1539.946 137900016 141352464 145105168 149094176 153265104 157582800 
1542.839 162035488 166619904 171322832 176098288 180858176 185492624 
1545.732 189881936 193920272 197529808 200629920 203127760 204925808 
1548.625 205929600 206106000 205513648 204305648 202664016 200719632 
1551.518 198514112 196000272 193103680 189803952 186193088 182481296 
1554.411 178939216 175767200 173028928 170621616 168324000 165848400 
1557.304 162926384 159419344 155421920 151311488 147594960 144643648 
1560.198 142512480 141016160 139879088 138860528 137785696 136521584 
1563.091 134978736 133109808 130924584 128494080 125933768 123367848 
1565.984 120868288 118431952 115979480 113391896 110554192 107411936 
1568.877 104010552 100498888 97080936 93930696 91140192 88703488 86553000 
1572.252 84598544 82759384 80973800 79199840 77415664 75628424 73896464 
1575.627 72337808 71113496 70383288 70239424 70691168 71688968 73167488 
1579.002 75079176 77409688 80177712 83419112 87168832 91442752 96219968 
1582.378 101432632 106968376 112649632 118241240 123473104 128033776 
1585.271 131631656 134036360 135091776 134751872 133081544 130268872 
1588.164 126600656 122444208 118222840 114320864 111066472 108703816 
1591.057 107367944 107116464 107939720 109785696 112567784 116176912 
1593.950 120497096 125389680 130703448 136286608 141976784 147626416 
1596.843 153113472 158327392 163167408 167524512 171260608 174226128 
1599.736 176279584 177313440 177288336 176237456 174260192 171491728 
1602.629 168095808 164254576 160144752 155946320 151818832 147874512 
1605.522 144181616 140758128 137585840 134630560 131861688 129263472 
1608.415 126832424 124570928 122476664 120537936 118737848 117062440 
1611.308 115506984 114077488 112781752 111618688 110566248 109578528 
1614.201 108589392 107532800 106362736 105086280 103778344 102573688 
1617.094 101617144 100998976 100732232 100758088 100987768 101327176 
1619.988 101705208 102081968 102447408 102822216 103250552 103794248 
1622.881 104512168 105446432 106613648 108001504 109579464 111308056 
1625.774 113149680 115068896 117033160 119016848 120999128 122966664 
1628.667 124913512 126839576 128746760 130636256 132508296 134364288 
1631.560 136210976 138059904 139932848 141864464 143905632 146129136 
1634.453 148630000 151523248 154901728 158811040 163237696 168110848 
1637.346 173355120 178919952 184791888 190986128 197532544 204466192 
1640.239 211801648 219527312 227611440 235993552 244600384 253366384 
1643.132 262215520 271089824 279963264 288840576 297773280 306836896 
1646.025 316100864 325541600 335017600 344299808 353140096 361357184 
1648.918 368854176 375599552 381514208 386367008 389718560 390811328 
1651.811 388708352 382734912 373141120 361387712 349386976 338425056 
1654.704 328703744 319754144 310914144 301690976 291849696 281400224 
1657.597 270512032 259415152 248330800 237369232 226542128 215791696 
1660.490 205034736 194218480 183357792 172551168 161976880 151862352 
1663.384 142426944 133832272 126144368 119329472 113283120 107858928 
1666.277 102904640 98293448 93948632 89857192 86074400 82700696 79844192 
1669.652 77578728 75918976 74821192 74202992 73977384 74066896 74412864 
1673.027 74984032 75776496 76819544 78169384 79895608 82048928 84631432 
1676.402 87605264 90916040 94526728 98432336 102656608 107231432 112160320 
1679.778 117406320 122898944 128552256 134327952 140265536 146497184 
1682.671 153227712 160665216 168898352 177745200 186762160 195398416 
1685.564 203209616 209940336 215473488 219762240 222749792 224383712 
1688.457 224639456 223523920 221092528 217444288 212735216 207174688 
1691.350 201007872 194498016 187835712 181087184 174172880 166882576 
1694.243 158981072 150385040 141331536 132404152 124315072 117538672 
1697.136 112148568 107850600 104196296 100735736 97184864 93531912 90049864 
1700.511 87143888 85072944 83793200 83015192 82390744 81608480 80461224 
1703.886 78831800 76674208 74010072 70917808 67521872 63960776 60369096 
1707.262 56862620 53521116 50393000 47491240 44795828 42270148 39879852 
1710.637 37610552 35473732 33498026 31705740 30099130 28648340 27303420 
1714.012 26011198 24743048 23505908 22337958 21285702 20380216 19621178 
1717.387 18984636 18443220 17987772 17632414 17396346 17281654 17262276 
1720.763 17287618 17299170 17254554 17140106 16979032 16816194 16699210 
1724.138 16650764 16659407 16686952 16691323 16648183 16559022 16445719 
1727.513 16334718 16240323 16156266 16060982 15931964 15760826 15558328 
1730.888 15346384 15142639 14948661 14748428 14520707 14262116 14007409 
1734.264 13820710 13763796 13851975 14045908 14271087 14451779 14537700 
1737.639 14509538 14386700 14216202 14057852 13952660 13908080 13897679 
1741.014 13883926 13839626 13760889 13663598 13569612 13490616 13419597 
1744.389 13335025 13213270 13043984 12836197 12614320 12403840 12220283 
1747.765 12059798 11904581 11734136 11541947 11342632 11169211 11055574 
1751.140 11019309 11052174 11125629 11205624 11267339 11303045 11317465 
1754.515 11319199 11312772 11296243 11264550 11216776 11162004 11117470 
1757.890 11099047 11112270 11146332 11178561 11183014 11145414 11072194 
1761.266 10992835 10946552 10962625 11046329 11175331 11312465 11421612 
1764.641 11484004 11499484 11483289 11453896 11425456 11400590 11372834 
1768.016 11332837 11275908 11205556 11129980 11055778 10984068 10910910 
1771.391 10833992 10760349 10709913 10707706 10770063 10894736 11059720 
1774.767 11232417 11380658 11486385 11548957 11582406 11605717 11632671 
1778.142 11663983 11688524 11691655 11666195 11619738 11573695 11552087 
1781.517 11568148 11617254 11678244 11726409 11744111 11731584 11705917 
1784.892 11693833 11714665 11771788 11849961 11925117 11976307 11994155 
1788.268 11982711 11953419 11916705 11874342 11819249 11742715 11644821 
1791.643 11541743 11464884 11444098 11494789 11606568 11749865 11888474 
1795.018 11996029 12064703 12103030 12128210 12154821 12186647 12215307 
1798.393 12226656 12211218 12172233 12127324 12101565 12113048 12165418 
1801.769 12245366 12332078 12406568 12462315 12505862 12550197 12606133 
1805.144 12673914 12743549 12800160 12833159 12842203 12838416 12837869 
1808.519 12854081 12889748 12937979 12986284 13027766 13065154 13111527 
1811.894 13181232 13281591 13406201 13537376 13653785 13741259 13799503 
1815.270 13842568 13891384 13962549 14060899 14176832 14293139 14393927 
1818.645 14473567 14537426 14596943 14659553 14722617 14772081 14789530 
1822.020 14761351 14685497 14573642 14446265 14326047 14226918 14151808 
1825.395 14094371 14045738 13999471 13953789 13909653 13866274 13819650 
1828.771 13764993 13701486 13637681 13590569 13580210 13617816 13699229 
1832.146 13804702 13907395 13983866 14022398 14027976 14017607 14012302 
1835.521 14024554 14053917 14087868 14111759 14117817 14111314 14107412 
1838.896 14123191 14165877 14227843 14287352 14318992 14304644 14241230 
1842.271 14143182 14036497 13951702 13910030 13918001 13969016 14051110 
1845.647 14153828 14271395 14400092 14533931 14662295 14773315 14858099 
1849.022 14916631 14959156 15001820 15059206 15135846 15224544 15310103 
1852.397 15378926 15425375 15456378 15486456 15530890 15595455 15673803 
1855.772 15749933 15808070 15840339 15851336 15853981 15862813 15884327 
1859.148 15913988 15938770 15945783 15930694 15901133 15873468 15862606 
1862.523 15875358 15905017 15935676 15949976 15938736 15903573 15855802 
1865.898 15808208 15767284 15731072 15692011 15646219 15600813 15575397 
1869.273 15594458 15675109 15816078 15996657 16184639 16351335 16479066 
1872.649 16566835 16625805 16671078 16711501 16745696 16763534 16755408 
1876.024 16719628 16666602 16615236 16582808 16578298 16596714 16623635 
1879.399 16643018 16647218 16640160 16634410 16642537 16669253 16707852 
1882.774 16744766 16767632 16773762 16771972 16779170 16809444 16865174 
1886.150 16934346 16995434 17029202 17028306 17002910 16976138 16975896 
1889.525 17020312 17110118 17230524 17361204 17485644 17598080 17702330 
1892.900 17806432 17914426 18024070 18127318 18217146 18293378 18364680 
1896.275 18444914 18544492 18664672 18795680 18922542 19031818 19120692 
1899.651 19197360 19278128 19377482 19500110 19638476 19778034 19905042 
1903.026 20013630 20108536 20200580 20298584 20401434 20496806 20565552 
1906.401 20593138 20575664 20524492 20459712 20402962 20366672 20351220 
1909.776 20347298 20345352 20342192 20344762 20365214 20413450 20490068 
1913.152 20584072 20678928 20758374 20815308 20853232 20883826 20918454 
1916.527 20963066 21015854 21071638 21127258 21186920 21260298 21356696 
1919.902 21476510 21609064 21734208 21831510 21891792 21921552 21942916 
1923.277 21981812 22057626 22170796 22304890 22434594 22539944 22615784 
1926.653 22672894 22730952 22806338 22902836 23009520 23107250 23179696 
1930.028 23224050 23253028 23288544 23348470 23438930 23550154 23663402 
1933.403 23761454 23838070 23900696 23964976 24043834 24137838 24234806 
1936.778 24315884 24366384 24383838 24379106 24370028 24370344 24380998 
1940.154 24389236 24376232 24330218 24254634 24170344 24105264 24080920 
1943.529 24100710 24149116 24200402 24233018 24241532 24237292 24241148 
1946.904 24269598 24325522 24395858 24460178 24501226 24516758 24520616 
1950.279 24534990 24577412 24650176 24740030 24826012 24891518 24933556 
1953.655 24963666 24999990 25053938 25121934 25184044 25215646 25201390 
1957.030 25144546 25069206 25007360 24986442 25012380 25070576 25133592 
1960.405 25178392 25199494 25210660 25234118 25286268 25366808 25458394 
1963.780 25536152 25583524 25602960 25616420 25653678 25734918 25859744 
1967.156 26004162 26136032 26228412 26274138 26286456 26290012 26302790 
1970.531 26325744 26342784 26331096 26277832 26188960 26090076 26013310 
1973.906 25982562 25999414 26045710 26094932 26130260 26154366 26188538 
1977.281 26256430 26369082 26512404 26654680 26760034 26808316 26804932 
1980.656 26777548 26761162 26779416 26835454 26912332 26984746 27032770 
1984.032 27053928 27061298 27075862 27112224 27168692 27230248 27278122 
1987.407 27300314 27301234 27297704 27310018 27348940 27408828 27470628 
1990.782 27512598 27524318 27513552 27503526 27519130 27574346 27662372 
1994.157 27761330 27843390 27890836 27904156 27900200 27900836 27920480 
1997.533 27957230 27996034 28017168 28009744 27979564 27946488 27934120 
2000.908 27954190 28000874 28051308 28080080 28070500 28026072 27967866 
2004.283 27923556 27912532 27934898 27971648 27997094 27993982 27962708 
2007.658 27921930 27896032 27902108 27937902 27984124 28014304 28012182 
2011.034 27976772 27924298 27875892 27846110 27834064 27827386 27809864 
2014.409 27775672 27734276 27708034 27718840 27773800 27859570 27946560 
2017.784 28005010 28017274 27989564 27947726 27924722 27942000 28001686 
2021.159 28085876 28168528 28230014 28265656 28285744 28307068 28341798 
2024.535 28388168 28433376 28462208 28467374 28455560 28443460 28446926 
2027.910 28472328 28509832 28540580 28545922 28520410 28475512 28436100 
2031.285 28425594 28453648 28511530 28577806 28629580 28654816 28659772 
2034.660 28661506 28679062 28718424 28770818 28816278 28837380 28827466 
2038.036 28796664 28764304 28749186 28758214 28782252 28801938 28798928 
2041.411 28767242 28717078 28668478 28639880 28638428 28655312 28670566 
2044.786 28664904 28631386 28579398 28531592 28510362 28528796 28584280 
2048.161 28660480 28737114 28799070 28843154 28875058 28903778 28934872 
2051.537 28967704 28997778 29022680 29046344 29079290 29133784 29217164 
2054.912 29326192 29446946 29559614 29649000 29710590 29751926 29788440 
2058.287 29834078 29895126 29967010 30036810 30091068 30123314 30135566 
2061.662 30136384 30133578 30130948 30124842 30108754 30078462 30037876 
2065.038 29998572 29976098 29981458 30016714 30072498 30134642 30189978 
2068.413 30233208 30267986 30303016 30345794 30396394 30447180 30486382 
2071.788 30505184 30502696 30486950 30470280 30463030 30467722 30478028 
2075.163 30482400 30471062 30442168 30401974 30361996 30331938 30314884 
2078.539 30306142 30296444 30277720 30248554 30214132 30183942 30164618 
2081.914 30157196 30154780 30148494 30131128 30102822 30070900 30046468 
2085.289 30037238 30044694 30061240 30075408 30077434 30064010 30038906 
2088.664 30009720 29983198 29960300 29936338 29903930 29859172 29804872 
2092.040 29751004 29709952 29691006 29695938 29717544 29744406 29766190 
2095.415 29779426 29787518 29797456 29814418 29837060 29857538 29866092 
2098.790 29855338 29826414 29786844 29748342 29719390 29701152 29687530 
2102.165 29668902 29638394 29596216 29549754 29509644 29484322 29475386 
2105.541 29476770 29479144 29475954 29466592 29457408 29456698 29470422 
2108.916 29497230 29529148 29554720 29565998 29562310 29550534 29541064 
2112.291 29541596 29553300 29569794 29580966 29578696 29561352 29534218 
2115.666 29507090 29487728 29478754 29475882 29471698 29459784 29438934 
2119.042 29413262 29390038 29374724 29367102 29361464 29349552 29325272 
2122.417 29288300 29244632 29202246 29167660 29141968 29120318 29095800 
2125.792 29064552 29027886 28993526 28969724 28962144 28968662 28981484 
2129.167 28989842 28986088 28970396 28949962 28935086 28933810 28947232 
2132.542 28969440 28992144 29009360 29022716 29039436 29069230 29116740 
2135.918 29178396 29241584 29292552 29321868 29329702 29325412 29322152 
2139.293 29329914 29349518 29373378 29389118 29388656 29370788 29343386 
2142.668 29317222 29301166 29296026 29295424 29290462 29275928 29253174 
2146.043 29230242 29215322 29210360 29207916 29194556 29157028 29090380 
2149.419 29002558 28910542 28833344 28781756 28752904 28731416 28698494 
2152.794 28640058 28553636 28447174 28334336 28225204 28122216 28020524 
2156.169 27918010 27822440 27756280 27750274 27829506 28000272 28241294 
2159.544 28511494 28763880 28965260 29105154 29193422 29249028 29288724 
2162.920 29319350 29338350 29340230 29325128 29302158 29286420 29291452 
2166.295 29320024 29361996 29397946 29410000 29388692 29339450 29276920 
2169.670 29218830 29176376 29148346 29124394 29093888 29051552 29003870 
2173.045 28964446 28948226 28961578 28998522 29042022 29072416 29077024 
2176.421 29054066 29011450 28961046 28911392 28863090 28811922 28754426 
2179.796 28693750 28640730 28611566 28618078 28660480 28724830 28789228 
2183.171 28833664 28846978 28833416 28808062 28788944 28786218 28798928 
2186.546 28815994 28825060 28818154 28798044 28774606 28759984 28760196 
2189.922 28772126 28785050 28787670 28773792 28747204 28717998 28697114 
2193.297 28689574 28692016 28694882 28687238 28664266 28629652 28592492 
2196.672 28561986 28541322 28525824 28506046 28473566 28427928 28377558 
2200.047 28337732 28322488 28338014 28378690 28430760 28479402 28514890 
2203.423 28537218 28554556 28578196 28614222 28662108 28713716 28759100 
2206.798 28791740 28811852 28825060 28838796 28857848 28881716 28906186 
2210.173 28927258 28945108 28965260 28995970 29043190 29106324 29177296 
2213.548 29244172 29295708 29328176 29344520 29354834 29368944 29391102 
2216.924 29418404 29443544 29457514 29456450 29442230 29421632 29401776 
2220.299 29385254 29369230 29347000 29312686 29264940 29208484 29151996 
2223.674 29103454 29066572 29038762 29013824 28986514 28955132 28923646 
2227.049 28898998 28885894 28884514 28889400 28892516 28887594 28873464 
2230.425 28855722 28843082 28841276 28850872 28864788 28872756 28865424 
2233.800 28839506 28799246 28754178 28714212 28684228 28663204 28645118 
2237.175 28623352 28594332 28559652 28524514 28494758 28472928 28458034 
2240.550 28445654 28432174 28417034 28403238 28395632 28397012 28406314 
2243.926 28417706 28423578 28418238 28400798 28376214 28352764 28337908 
2247.301 28335078 28343072 28356830 28371014 28382686 28392590 28402954 
2250.676 28415724 28429876 28442256 28448836 28448164 28442822 28438648 
2254.051 28441620 28455134 28476998 28499852 28514960 28516164 28502542 
2257.427 28479438 28454144 28433766 28420324 28411408 28401010 28384066 
2260.802 28358494 28326484 28292674 28261024 28232312 28204590 28173442 
2264.177 28135966 28092168 28046218 28003418 27968362 27941894 27921930 
2267.552 27904582 27886846 27868262 27851232 27838584 27831590 27828128 
2270.927 27824030 27814280 27796900 27773870 27750170 27731980 27722796 
2274.303 27722090 27725586 27727070 27722302 27710682 27695320 27680592 
2277.678 27670106 27664138 27660146 27654214 27643728 27628932 27612972 
2281.053 27599448 27590022 27583454 27575510 27561070 27537310 27504904 
2284.428 27467310 27429862 27396016 27366054 27337188 27305220 27266902 
2287.804 27221638 27171690 27120548 27071560 27025648 26982102 26938914 
2291.179 26895376 26852338 26811910 26776596 26746854 26720672 26694494 
2294.554 26664650 26629350 26590316 26552062 26519376 26495710 26481376 
2297.929 26473628 26468592 26462852 26455104 26446654 26439680 26435772 
2301.305 26435104 26435878 26436334 26435736 26435208 26437602 26445562 
2304.680 26460106 26479580 26500076 26517230 26528042 26531880 26530964 
2308.055 26527936 26525188 26523322 26520962 26516524 26509620 26501416 
2311.430 26494722 26492646 26495956 26503424 26511980 26517756 26518848 
2314.806 26515854 26511628 26509726 26512296 26519306 26528324 26536214 
2318.181 26540686 26541180 26539100 26536530 26533924 26530118 26521172 
2321.556 26502682 26470916 26423940 26361302 26284064 26192938 26088916 
2324.931 25973278 25849194 25721734 25598672 25488364 25396946 25326974 
2328.307 25276084 25238014 25205042 25171088 25133662 25093886 25055412 
2331.682 25021822 24995182 24975316 24961138 24951594 24946470 24946716 
2335.057 24952646 24963106 24975038 24983670 24984934 24976966 24960648 
2338.432 24939240 24916712 24895870 24877238 24859764 24841694 24822468 
2341.808 24802962 24785072 24769778 24756658 24743188 24727580 24709796 
2345.183 24693978 24687736 24700188 24737996 24802472 24888850 24988022 
2348.558 25088516 25178884 25250762 25299016 25321636 25319424 25295048 
2351.933 25252904 25196966 25132644 25065522 25000024 24939346 24884290 
2355.309 24832922 24781214 24724984 24661572 24590318 24513216 24432768 
2358.684 24351806 24271664 24192870 24115560 24041172 23971978 23910182 
2362.059 23857250 23813040 23775276 23740524 23706894 23674038 23643878 
2365.434 23619246 23602278 23593148 23589508 23587690 23585520 23582548 
2368.810 23580520 23582688 23591364 23607282 23628728 23652450 23675928 
2372.185 23698498 23721032 23745704 23774088 23806496 23841044 23875280 
2375.560 23907136 23936228 23963260 23990116 24017780 24046146 24073636 
2378.935 24098502 24119658 24137732 24154826 24173848 24196408 24222544 
2382.311 24250292 24276744 24299450 24317392 24331900 24345250 24359654 
2385.686 24376268 24394982 24414224 24432942 24450608 24468274 24487134 
2389.061 24508204 24531028 24553922 24574572 24591334 24604342 24615038 
2392.436 24626012 24639270 24654946 24671954 24687700 24700080 24708184 
2395.812 24712708 24715268 24717196 24718356 24717654 24712744 24702396 
2399.187 24686754 24667640 24648070 24631028 24617598 24608024 24600976 
2402.562 24595226 24590528 24587302 24586846 24589544 24594804 24601082 
2405.937 24606270 24609708 24611916 24614932 24621244 24632254 24647264 
2409.313 24663992 24679214 24690506 24697136 24700292 24702150 24704394 
2412.688 24707658 24710778 24712532 24712042 24709656 24707588 24708218 
2416.063 24712954 24721756 24732736 24743504 24752518 24759606 24766164 
2419.438 24773916 24784020 24795420 24805840 24812190 24813068 24808858 
2422.813 24801910 24795560 24792124 24791982 24793140 24792228 24786862 
2426.189 24776162 24761430 24745574 24731086 24719444 24710288 24702150 
2429.564 24693628 24684580 24675846 24669008 24665394 24664834 24665606 
2432.939 24665430 24662414 24656066 24647054 24636778 24626398 24615984 
2436.314 24604554 24590738 24574152 24555324 24536040 24518090 24502526 
2439.690 24488748 24475004 24459126 24440022 24418044 24395228 24373744 
2443.065 24355064 24339294 24324890 24310034 24293668 24275730 24257614 
2446.440 24241042 24226572 24213714 24200892 24186844 24171080 24155106 
2449.815 24141060 24131182 24126314 24124878 24123582 24119448 24110412 
2453.191 24096682 24081060 24066316 24055530 24049122 24046110 24044078 
2456.566 24041486 24037564 24033538 24030772 24030526 24032626 24036060 
2459.941 24039140 24040858 24041522 24043028 24047020 24055040 24066632 
2463.316 24080606 24095000 24108276 24120570 24133108 24148100 24166980 
2466.692 24190242 24217148 24245842 24274678 24302114 24327240 24349036 
2470.067 24366454 24378264 24383592 24382574 24376408 24368136 24360566 
2473.442 24355940 24354574 24354994 24355204 24352680 24347178 24339540 
2476.817 24331864 24325978 24322368 24320194 24317602 24312838 24305724 
2480.193 24297700 24291286 24288834 24291076 24297454 24305968 24314798 
2483.568 24323174 24331934 24342622 24356886 24374864 24395438 24416432 
2486.943 24436026 24453412 24469748 24486608 24505364 24525874 24546172 
2490.318 24563144 24574012 24577274 24574152 24567174 24559146 24552518 
2493.694 24547714 24544348 24541160 24538038 24535444 24534604 24536460 
2497.069 24540528 24545120 24548100 24547856 24544280 24538530 24533586 
2500.444 24531378 24533130 24538002 24544174 24549924 24554412 24558058 
2503.819 24562162 24567350 24573030 24577308 24577940 24573276 24563598 
2507.195 24550836 24537970 24527556 24520194 24514374 24507678 24497792 
2510.570 24483594 24466732 24450082 24435780 24425474 24418396 24412158 
2513.945 24404340 24393686 24380438 24366384 24353346 24342168 24332356 
2517.320 24322262 24310034 24295246 24278988 24263044 24249730 24239920 
2520.696 24232668 24225836 24217218 24205132 24189576 24171606 24152338 
2524.071 24132444 24111288 24087366 24059416 24027058 23991866 23956292 
2527.446 23923100 23894184 23869782 23848886 23829458 23809892 23788856 
2530.821 23765758 23740384 23712250 23680860 23645906 23607736 23567856 
2534.197 23528014 23490412 23456522 23426376 23398960 23373016 23347280 
2537.572 23321724 23297320 23274772 23254530 23235934 23217722 23198498 
2540.947 23178122 23157188 23137582 23120772 23107250 23095402 23082682 
2544.322 23066610 23045750 23021014 22994986 22971126 22951494 22936856 
2547.698 22925678 22915724 22905070 22893370 22882368 22874334 22871646 
2551.073 22875384 22884918 22898784 22915340 22933678 22953798 22976332 
2554.448 23001414 23028140 23055114 23080588 23103684 23124932 23146074 
2557.823 23168896 23194374 23221988 23249426 23274492 23295362 23312074 
2561.198 23326372 23340882 23358016 23378750 23402282 23427042 23451208 
2564.574 23473520 23494330 23514546 23534974 23556416 23578874 23601964 
2567.949 23625928 23651260 23678726 23709310 23742344 23776572 23809716 
2571.324 23839818 23865758 23888090 23908430 23928562 23949708 23971522 
2574.699 23992776 24011790 24027760 24040962 24052834 24064846 24077770 
2578.075 24090974 24102916 24111674 24116086 24116718 24114824 24112760 
2581.450 24111706 24111884 24112234 24111252 24107926 24102496 24096298 
2584.825 24091254 24089256 24090658 24095316 24102110 24110552 24120358 
2588.200 24131954 24145578 24160956 24176756 24191608 24204080 24213926 
2591.576 24222158 24231198 24242970 24258946 24278708 24301132 24324226 
2594.951 24346548 24367470 24387376 24406828 24425792 24443808 24459476 
2598.326 24472026 24481104 24487662 24492848 24497828 24502526 24505784 
2601.701 24505294 24498984 24486362 24468624 24447980 24427544 24409388 
2605.077 24394210 24381348 24369292 24356676 24343358 24330006 24317532 
2608.452 24307124 24298504 24291076 24283822 24275974 24268090 24261012 
2611.827 24256212 24254074 24254460 24255862 24256702 24255582 24252184 
2615.202 24246824 24240412 24233966 24227798 24221598 24215010 24207514 
2618.578 24199142 24190384 24181694 24173498 24165862 24158470 24151220 
2621.953 24144354 24138188 24132968 24128346 24123266 24116190 24105822 
2625.328 24091638 24074546 24056440 24040156 24027374 24019004 24013998 
2628.703 24010566 24006678 24001042 23993968 23986158 23979226 23973974 
2632.079 23970368 23968020 23966060 23964800 23965046 23968266 23976250 
2635.454 23989730 24008500 24031576 24057036 24083548 24110376 24137242 
2638.829 24164494 24192204 24220336 24248330 24275798 24302746 24329166 
2642.204 24355590 24382224 24409248 24435956 24461684 24486118 24509640 
2645.580 24532780 24556480 24581410 24607498 24634044 24659960 24684438 
2648.955 24707166 24728492 24749010 24769392 24789246 24808120 24824818 
2652.330 24838432 24848852 24856290 24861412 24864746 24866148 24865414 
2655.705 24862078 24856114 24848642 24841520 24837064 24837064 24842396 
2659.081 24852992 24867518 24884780 24904008 24924922 24948506 24975494 
2662.456 25006482 25041442 25079212 25118600 25158202 25196826 25234082 
2665.831 25269936 25304216 25337090 25368528 25398632 25427194 25454316 
2669.206 25479194 25501188 25519180 25532322 25540088 25543320 25543672 
2672.582 25543638 25545746 25551684 25561876 25575758 25592206 25610270 
2675.957 25629322 25649918 25672660 25698288 25726586 25756682 25787270 
2679.332 25817122 25845852 25873740 25902016 25931594 25963498 25997336 
2682.707 26032798 26069072 26105558 26142190 26179176 26216728 26255022 
2686.083 26293778 26332750 26371724 26410876 26450774 26492082 26535438 
2689.458 26581018 26628926 26678778 26730856 26785866 26844688 26908454 
2692.833 26978012 27053400 27134266 27220300 27311148 27406990 27508540 
2696.208 27616714 27731556 27852928 27979812 28110656 28244156 28378760 
2699.583 28513406 28647242 28778960 28907002 29029658 29145334 29253032 
2702.959 29352248 29442834 29524572 29596714 29657764 29706156 29740254 
2706.334 29759450 29764700 29758066 29742454 29720704 29695192 29667236 
2709.709 29637402 29606080 29573836 29541526 29510316 29481734 29456486 
2713.084 29435530 29419326 29408334 29403158 29404292 29411490 29424218 
2716.460 29441452 29461876 29484216 29508614 29535744 29566742 29602888 
2719.835 29644532 29690686 29739152 29787804 29834540 29878230 29919016 
2723.210 29957496 29994204 30029034 30061098 30089186 30112056 30129068 
2726.585 30140574 30147854 30152224 30155136 30157480 30159752 30162274 
2729.961 30164868 30167958 30171332 30175238 30179144 30182590 30185396 
2733.336 30187492 30189304 30191540 30194348 30197830 30201026 30202800 
2736.711 30202232 30199000 30193922 30189018 30186390 30188486 30196798 
2740.086 30211894 30233634 30261378 30294630 30333074 30376388 30424648 
2743.462 30477638 30535044 30596544 30661860 30731096 30803832 30880026 
2746.837 30958764 31038760 31118772 31197764 31275880 31353798 31433512 
2750.212 31516944 31606418 31703320 31808052 31920406 32039602 32164362 
2753.587 32293652 32425660 32559316 32693192 32826394 32958884 33091132 
2756.963 33224062 33359214 33497312 33638564 33782976 33929664 34077724 
2760.338 34226840 34376936 34527732 34679048 34830196 34979752 35126124 
2763.713 35268196 35405568 35538200 35667136 35792836 35915688 36035120 
2767.088 36150232 36259968 36363428 36460748 36552076 36638228 36719636 
2770.464 36796912 36869984 36939280 37005268 37068704 37130596 37191520 
2773.839 37251628 37310840 37368900 37426360 37484256 37544980 37611060 
2777.214 37684880 37768076 37860980 37963160 38073788 38191756 38316700 
2780.589 38448092 38586076 38730156 38879532 39033424 39191068 39352508 
2783.965 39518356 39689752 39867792 40052556 40243392 40438460 40635216 
2787.340 40831336 41024624 41213708 41397836 41576504 41749700 41917568 
2790.715 42080496 42239028 42394444 42547648 42699484 42850524 43001036 
2794.090 43151232 43301336 43452044 43604116 43757784 43913124 44068660 
2797.466 44222528 44372488 44516848 44654940 44787416 44915708 45041576 
2800.841 45166120 45289556 45411304 45530064 45644776 45754400 45858600 
2804.216 45956820 46048908 46134352 46212772 46284052 46348488 46406852 
2807.591 46460240 46509436 46554136 46593640 46627028 46653144 46672588 
2810.967 46686716 46698484 46711104 46727484 46749292 46777008 46809776 
2814.342 46846460 46885844 46926928 46969604 47012984 47056924 47100168 
2817.717 47141456 47179460 47213484 47242664 47267420 47287516 47303252 
2821.092 47314520 47320912 47322208 47318104 47308500 47293832 47274324 
2824.468 47251012 47224676 47196748 47169456 47144888 47125504 47113240 
2827.843 47109324 47113908 47126316 47145520 47170524 47201108 47237604 
2831.218 47280864 47332184 47392860 47463964 47546396 47640780 47747768 
2834.593 47868352 48003260 48153200 48318668 48499764 48696088 48907156 
2837.969 49132352 49370912 49622608 49887340 50165520 50457828 50765120 
2841.344 51088580 51428652 51785980 52159816 52549008 52951464 53364328 
2844.719 53783740 54204908 54622052 55027860 55413720 55770124 56086740 
2848.094 56353676 56562044 56704204 56775456 56773188 56697784 56552152 
2851.469 56340924 56070720 55748348 55380636 54973820 54532484 54060108 
2854.845 53559312 53032172 52481440 51910048 51322436 50723332 50117360 
2858.220 49508700 48901184 48297968 47702460 47118632 46551300 46005736 
2861.595 45487348 45000668 44548680 44132988 43753684 43410336 43102128 
2864.970 42828328 42588288 42381076 42205108 42058596 41938952 41844152 
2868.346 41771880 41720848 41689628 41677048 41681604 41700824 41731720 
2871.721 41771112 41815368 41860972 41905088 41945560 41981360 42012604 
2875.096 42040416 42067320 42095828 42128208 42166328 42210656 42260576 
2878.471 42314632 42371028 42428348 42484980 42540412 42593660 42643992 
2881.847 42690892 42733992 42773296 42809644 42844092 42877664 42910724 
2885.222 42943056 42973676 43001476 43025620 43046148 43064072 43080832 
2888.597 43097664 43115044 43132460 43148564 43161848 43171252 43176596 
2891.972 43178392 43177400 43174584 43170048 43163456 43154124 43141680 
2895.348 43126204 43108052 43088332 43067988 43047572 43027488 43008132 
2898.723 42989768 42973052 42958784 42947740 42940240 42936692 42936656 
2902.098 42940204 42947444 42958784 42974880 42996428 43024232 43059352 
2905.473 43102824 43156760 43223956 43307744 43411580 43538844 43692340 
2908.849 43874228 44085968 44329408 44605256 44914164 45254916 45624348 
2912.224 46017636 46427388 46845280 47263464 47674140 48070800 48447860 
2915.599 48799740 49120960 49405960 49650092 49850216 50006180 50120556 
2918.974 50198096 50245000 50267320 50269628 50254600 50223092 50174484 
2922.350 50107244 50019304 49907972 49770168 49602436 49401316 49164148 
2925.725 48889208 48576684 48228504 47847492 47437648 47003904 46551960 
2929.100 46088332 45621772 45161596 44718364 44302768 43923496 43587816 
2932.475 43300204 43062464 42874444 42734248 42638508 42582624 42560880 
2935.851 42567128 42595232 42639348 42695388 42760132 42831912 42909368 
2939.226 42991452 43076516 43163312 43250600 43337508 43424068 43510712 
2942.601 43598036 43685928 43774132 43862204 43950040 44038848 44130788 
2945.976 44228912 44337080 44458664 44596332 44751936 44926364 45119100 
2949.352 45328504 45550820 45779100 46003712 46212880 46392584 46529720 
2952.727 46613672 46637020 46596220 46491808 46326444 46104212 45830060 
2956.102 45509756 45149760 44758288 44345260 43920932 43496284 43080648 
2959.477 42681276 42302832 41947892 41616652 41308624 41022476 40756464 
2962.853 40508836 40277964 40062220 39860060 39670368 39492228 39324284 
2966.228 39165504 39014212 38868808 38727872 38590456 38456524 38326616 
2969.603 38202104 38084352 37974548 37873740 37782428 37700928 37629200 
2972.978 37567200 37514744 37471760 37438424 37415416 37404220 37406712 
2976.354 37425132 37461824 37518104 37594328 37689652 37802020 37928952 
2979.729 38067856 38216284 38372440 38534908 38702804 38875260 39051732 
2983.104 39231468 39413380 39595808 39776024 39950028 40113312 40260876 
2986.479 40388236 40492252 40571512 40626012 40657556 40667748 40658360 
2989.854 40630304 40583952 40519240 40436568 40336680 40221728 40094852 
2993.230 39960380 39823704 39689972 39564740 39452568 39356132 39276476 
2996.605 39212644 39162204 39122424 39091608 39069240 39057096 39057532 
2999.980 39073484 39106580 39156692 39221784 39298640 39383560 39473756 
3003.355 39567208 39662928 39760664 39859984 39960308 40060984 40161572 
3006.731 40262296 40364096 40468244 40575732 40687064 40801704 40918484 
3010.106 41036024 41153232 41269596 41384972 41499396 41613152 41725956 
3013.481 41837512 41947636 42056696 42165524 42275844 42388928 42506100 
3016.856 42628092 42754540 42885160 43018780 43154272 43290648 43426776 
3020.232 43561956 43695860 43828888 43962324 44097336 44235592 44377628 
3023.607 44522720 44669188 44814452 44956312 45093476 45226384 45356604 
3026.982 45486576 45618020 45751160 45884816 46016972 46145516 46269604 
3030.357 46390036 46509144 46630120 46755236 46885584 47020628 47158852 
3033.733 47297968 47437168 47576304 47716736 47860696 48010104 48166712 
3037.108 48331408 48504688 48686752 48877900 49078480 49288692 49508176 
3040.483 49736172 49970864 50210336 50451984 50693136 50930768 51161224 
3043.858 51380168 51582876 51764256 51920316 52048864 52149916 52226180 
3047.234 52282868 52326524 52363864 52401096 52442776 52491796 52549308 
3050.609 52615388 52689304 52770224 52857108 52949068 53044900 53143412 
3053.984 53243368 53343688 53443352 53542068 53639680 53736488 53832648 
3057.359 53928488 54023968 54118880 54213168 54306800 54399776 54492628 
3060.735 54585156 54677628 54769556 54860380 54950012 55038204 55125584 
3064.110 55212904 55300956 55390008 55479488 55567896 55653464 55734148 
3067.485 55808292 55875508 55936412 55992232 56044780 56095752 56146688 
3070.860 56198540 56252356 56309348 56370388 56436564 56508828 56587368 
3074.236 56671924 56761676 56855444 56951912 57050296 57149644 57249508 
3077.611 57349696 57450248 57551128 57652788 57755528 57859772 57965516 
3080.986 58071928 58177576 58279796 58375636 58461832 58535608 58594948 
3084.361 58639092 58668484 58684604 58690252 58688736 58683920 58679560 
3087.737 58678800 58684492 58697612 58718436 58746124 58779812 58818432 
3091.112 58862104 58911472 58967868 59032732 59107136 59191656 59286060 
3094.487 59389572 59501312 59620380 59746096 59877556 60013312 60151092 
3097.862 60287620 60418980 60541232 60651252 60747348 60829820 60901372 
3101.238 60965692 61027804 61092292 61162588 61240868 61327976 61423692 
3104.613 61527368 61638588 61757024 61882712 62015888 62156560 62304812 
3107.988 62461076 62627032 62806344 63004428 63229232 63490696 63798644 
3111.363 64163268 64594240 65099312 65685944 66360572 67129048 67996448 
3114.739 68966240 70039024 71211040 72471992 73804240 75178680 76556336 
3118.114 77887120 79108160 80153872 80956040 81451056 81591736 81349104 
3121.489 80718760 79720088 78396112 76807528 75020416 73106984 71134688 
3124.864 69158680 67227752 65378704 63637256 62022156 60543592 59204108 
3128.240 58000392 56924148 55963964 55106360 54338868 53649912 53029288 
3131.615 52468916 51961768 51501764 51084068 50704192 50358248 50042320 
3134.990 49752632 49484708 49234432 48997464 48770228 48550224 48335520 
3138.365 48125212 47918520 47714852 47513680 47314340 47116788 46921316 
3141.740 46728924 46540416 46356232 46176472 46000396 45826892 45655152 
3145.116 45484664 45315340 45147440 44980824 44815116 44649540 44483296 
3148.491 44315904 44147368 43978380 43809792 43642072 43474748 43306832 
3151.866 43136488 42962224 42783168 42599436 42411908 42222308 42032132 
3155.241 41842728 41654868 41469536 41287012 41107664 40931264 40757372 
3158.617 40585192 40413224 40240084 40065052 39887804 39708672 39528556 
3161.992 39348116 39167680 38987676 38808044 38629352 38452724 38279536 
3165.367 38110936 37947720 37789368 37634512 37481292 37327988 37173440 
3168.742 37017464 36860316 36702728 36545192 36388176 36231764 36076812 
3172.118 35924328 35775888 35632748 35495808 35364624 35237468 35112040 
3175.493 34985568 34856408 34723552 34587220 34448596 34308980 34169624 
3178.868 34031784 33896276 33764144 33636024 33512380 33392958 33276502 
3182.243 33161506 33045720 32927644 32806240 32681402 32554350 32426302 
3185.619 32299042 32173316 32049876 31928644 31809512 31691592 31574096 
3188.994 31455670 31334926 31210652 31082358 30950970 30817846 30685756 
3192.369 30556836 30432538 30312680 30195768 30079032 29959804 29836066 
3195.744 29707362 29574724 29440210 29306164 29174568 29046662 28922938 
3199.120 28803000 28686036 28571046 28456726 28342188 28226408 28109102 
3202.495 27990590 27871900 27754336 27639454 27528096 27420156 27314500 
3205.870 27209574 27103406 26995146 26884590 26773214 26662958 26556360 
3209.245 26455492 26361230 26273256 26189804 26108234 26025482 25939052 
3212.621 25847788 25751970 25653398 25555270 25460536 25371690 25289218 
3215.996 25212028 25138050 25064012 24987600 24907518 24823944 24738172 
3219.371 24651402 24564966 24479038 24393370 24307230 24220790 24134544 
3222.746 24049786 23967952 23889982 23816508 23746614 23679182 23612844 
3226.122 23546378 23479080 23411024 23342422 23273724 23206014 23140448 
3229.497 23078350 23021014 22969030 22922118 22878490 22835080 22788006 
3232.872 22733886 22670660 22597984 22517538 22432850 22348250 22267746 
3236.247 22194580 22130280 22075090 22027648 21985540 21946366 21907438 
3239.623 21866736 21822906 21775556 21725186 21672624 21619026 21565536 
3242.998 21512822 21461608 21412248 21365154 21320502 21277768 21235978 
3246.373 21193008 21146808 21095222 21037208 20973114 20904964 20835572 
3249.748 20767758 20703738 20643588 20586502 20530466 20473812 20415674 
3253.124 20355944 20295702 20235780 20176944 20118912 20061304 20003428 
3256.499 19945142 19886798 19829358 19773214 19719120 19666524 19615010 
3259.874 19563916 19513142 19462996 19413722 19365632 19318448 19271304 
3263.249 19223404 19174088 19123912 19074228 19027040 18984358 18947358 
3266.625 18916450 18890702 18868624 18848206 18827202 18803292 18774230 
3270.000 18737766 18692034 18636622 18572570 18502272 18429462 18358390 
3273.375 18291928 18231624 18177206 18127420 18080612 18035366 17991812 
3276.750 17949888 17910248 17872338 17834844 17795972 17753964 17708300 
3280.125 17659502 17609742 17561610 17516934 17476744 17441184 17409212 
3283.501 17379448 17351306 17324132 17297894 17272482 17247452 17222628 
3286.876 17197532 17172818 17149654 17129800 17114600 17104432 17097954 
3290.251 17093162 17086718 17075930 17059768 17038092 17012284 16984200 
3293.626 16955258 16925872 16895142 16861796 16824562 16782820 16736915 
3297.002 16688295 16639093 16591482 16547455 16508389 16475556 16449437 
3300.377 16430853 16420495 16418569 16425347 16440075 16460929 16484916 
3303.752 16507633 16523946 16528662 16517133 16486706 16436599 16368676 
3307.127 16286451 16195197 16099870 16005183 15914986 15831301 15755156 
3310.503 15686652 15624958 15569318 15518527 15471451 15427503 15386615 
3313.878 15349198 15316007 15288034 15265348 15247743 15234153 15223035 
3317.253 15213151 15203714 15195068 15187759 15182990 15181411 15183092 
3320.628 15187588 15194107 15202205 15211675 15222520 15235216 15249458 
3324.004 15264593 15279076 15291363 15300080 15304577 15305161 15302689 
3327.379 15298845 15294760 15292118 15291500 15293868 15299428 15308421 
3330.754 15320469 15334748 15350194 15365195 15378720 15389671 15398322 
3334.129 15405119 15410646 15415247 15418646 15419573 15416346 15406698 
3337.505 15389293 15362655 15326544 15281101 15227598 15167686 15103254 
3340.880 15036841 14969821 14903635 14838487 14773349 14706816 14637517 
3344.255 14564528 14488606 14411806 14336698 14266190 14202268 14145270 
3347.630 14094439 14047175 14001249 13953516 13901647 13843936 13779392 
3351.006 13707642 13629373 13546333 13461530 13378215 13299971 13229052 
3354.381 13166614 13111732 13062695 13016976 12972902 12929445 12886573 
3357.756 12844524 12803572 12762930 12721406 12677668 12631000 12581848 
3361.131 12531576 12482878 12438447 12400227 12369406 12346191 12329862 
3364.507 12319432 12313773 12311216 12309819 12307536 12301604 12289470 
3367.882 12269326 12240117 12201369 12153969 12098806 12037518 11971471 
3371.257 11903049 11834878 11769712 11710479 11659150 11616369 11581283 
3374.632 11551815 11525581 11500369 11475532 11451038 11428109 11408006 
3378.008 11391032 11376984 11364399 11351679 11337394 11320798 11301821 
3381.383 11281042 11259246 11237144 11215382 11194438 11174889 11157211 
3384.758 11141947 11129810 11121108 11116281 11115805 11120088 11129675 
3388.133 11144394 11163296 11183694 11201646 11212832 11212934 11199334 
3391.509 11171523 11131816 11084091 11032734 10981995 10934558 10891135 
3394.884 10851827 10816769 10786096 10761504 10745133 10738476 10741906 
3398.259 10753862 10770539 10786605 10797136 10797713 10785994 10762387 
3401.634 10729068 10689605 10647939 10606853 10568080 10531891 10497572 
3405.010 10464205 10431554 10400263 10371519 10346612 10326762 10311900 
3408.385 10301484 10294155 10288523 10283331 10278107 10272475 10265995 
3411.760 10257920 10246759 10231324 10210528 10184918 10155883 10126240 
3415.135 10098667 10075166 10056820 10042679 10031151 10020300 10008907 
3418.510 9996464 9983716 9971679 9961339 9953236 9947405 9943472 9941031 
3422.368 9939981 9940014 9940795 9941845 9942219 9940862 9937472 9931946 
3426.225 9924963 9917268 9909776 9902555 9894759 9885641 9873946 9859405 
3430.083 9842560 9824800 9807515 9791892 9778167 9766035 9754276 9741772 
3433.940 9727743 9711886 9694369 9675937 9657100 9638433 9620817 9604218 
3437.798 9588704 9573833 9558455 9540707 9518794 9491429 9458512 9421603 
3441.655 9383308 9346675 9314515 9287569 9264789 9243803 9221566 9195709 
3445.512 9165962 9134221 9103835 9078763 9062049 9055215 9057042 9064587 
3449.370 9073383 9079947 9080759 9073857 9059140 9038198 9013232 8986914 
3453.227 8961949 8939863 8921125 8905196 8890382 8875367 8859202 8841956 
3457.085 8824676 8808649 8794921 8783730 8773992 8764052 8752015 8736870 
3460.942 8719121 8700292 8683085 8669869 8661926 8659491 8660574 8662669 
3464.800 8662939 8659356 8650873 8637623 8620791 8602135 8583513 8566345 
3468.657 8551375 8538804 8528058 8518158 8507784 8495823 8481260 8463657 
3472.514 8442913 8419264 8393725 8367073 8340693 8316274 8295097 8278548 
3476.372 8267201 8260987 8258421 8257475 8254807 8247683 8234175 8213273 
3480.229 8186159 8154827 8122721 8092439 8066615 8046397 8031613 8021082 
3484.087 8012914 8004983 7995566 7983586 7968534 7951188 7932695 7914777 
3487.944 7899020 7886771 7878302 7873241 7870845 7869866 7868753 7866155 
3491.802 7860824 7851243 7836533 7815650 7788798 7756819 7722381 7688552 
3495.659 7658706 7635235 7619049 7609169 7602897 7596895 7587893 7573697 
3499.516 7553670 7528216 7498852 7467064 7435109 7404775 7378621 7359243 
3503.374 7349302 7350212 7362141 7382868 7408482 7433997 7454221 7465918 
3507.231 7468042 7461940 7451525 7441008 7434941 7435682 7444345 7459446 
3511.089 7478626 7498549 7515776 7528081 7533442 7531452 7522485 7508022 
3514.946 7490223 7471379 7453850 7439559 7429885 7425874 7427694 7435143 
3518.803 7446974 7461738 7477008 7490189 7499122 7502156 7499560 7492987 
3522.661 7485166 7479536 7478289 7482098 7489717 7499088 7507550 7513483 
3526.518 7516922 7519417 7523934 7532700 7547804 7569078 7595614 7625557 
3530.376 7657222 7689261 7721707 7753581 7784446 7812918 7837309 7856000 
3534.233 7867775 7872768 7872870 7870407 7868416 7869597 7875637 7886332 
3538.091 7900841 7917308 7933876 7948994 7961447 7970390 7975418 7976161 
3541.948 7971942 7962054 7945384 7921289 7889571 7851006 7808127 7764915 
3545.805 7726799 7699345 7686698 7690475 7708654 7736108 7765589 7789236 
3549.663 7801043 7798311 7781916 7756144 7726968 7700762 7681335 7669667 
3553.520 7663664 7659651 7653108 7640901 7621241 7594131 7560784 7522586 
3557.378 7481424 7438177 7394226 7350582 7308696 7270149 7235951 7206608 
3561.235 7181174 7157527 7132197 7100536 7057596 6998227 6918566 6816570 
3565.093 6694071 6557445 6418676 6293264 6198406 6147724 6147288 6193700 
3568.950 6275145 6375602 6477562 6566561 6633642 6674959 6691850 6689327 
3572.807 6673849 6651743 6627519 6603868 6581194 6558757 6535548 6510455 
3576.665 6483414 6454962 6426108 6398534 6373652 6352402 6334885 6320596 
3580.522 6308292 6295920 6281935 6264623 6242774 6214371 6177467 6128267 
3584.380 6062977 5978012 5872273 5749671 5619585 5497960 5402805 5350405 
3588.237 5349533 5398545 5485209 5590518 5694980 5781334 5837547 5859477 
3592.094 5848797 5812025 5758770 5700015 5645565 5602702 5576187 5566857 
3595.952 5572831 5589243 5610119 5628413 5637677 5633582 5614718 5583571 
3599.809 5545076 5506752 5475881 5457762 5454507 5464875 5484740 5508464 
3603.667 5529403 5541753 5539404 5517557 5472089 5401363 5307168 5195523 
3607.524 5077370 4966554 4875805 4813786 4780954 4769999 4767252 4760083 
3611.382 4738477 4699956 4649617 4598480 4559235 4540752 4544904 4565228 
3615.239 4589740 4603570 4593725 4552505 4478547 4378193 4263975 4153769 
3619.096 4064895 4011753 4002155 4034527 4100449 4186286 4277427 4361056 
3622.954 4427932 4473492 4496458 4497161 4474596 4424317 4337763 4204720 
3626.811 4017271 3778427 3506645 3241976 3035923 2932566 2951380 3078167 
3630.669 3274258 3492984 3695612 3857582 3969151 4034427 4066701 4082722 
3634.526 4095800 4112993 4133497 4151896 4161798 4159054 4144269 4121489 
3638.384 4095800 4071350 4049510 4029176 4008074 3984700 3960256 3937018 
3642.241 3917859 3903449 3890344 3870653 3833279 3766829 3661995 3514261 
3646.098 3325908 3106332 2868822 2631043 2410952 2224774 2088249 2014909 
3649.956 2015941 2096838 2253983 2472962 2728460 2990013 3227555 3413762 
3653.813 3530963 3573422 3548935 3478888 3394694 3330782 3311617 3346342 
3657.671 3427054 3535706 3650200 3752090 3829869 3879144 3902012 3903483 
3661.528 3891313 3872525 3852901 3836522 3826192 3822783 3825858 3832777 
3665.385 3839396 3838828 3823317 3784310 3714760 3611776 3480892 3339998 
3669.243 3217775 3151987 3177620 3311985 3549403 3861460 4210307 4556121 
3673.100 4867495 5125847 5323839 5465077 5559607 5617873 5643081 5627741 
3676.958 5558332 5423371 5220808 4961125 4667769 4371934 4107507 3898167 
3680.815 3753862 3667943 3624138 3602722 3588456 3574992 3561128 3547465 
3684.673 3531664 3504674 3453171 3363472 3226988 3046500 2838005 2630309 
3688.530 2454701 2336225 2285759 2299649 2365074 2466664 2592309 2732060 
3692.387 2877861 3021375 3153889 3266814 3354623 3415566 3452837 3472910 
3696.245 3484433 3494153 3504607 3513593 3515564 3503505 3472041 3420341 
3700.102 3352619 3278965 3212634 3167073 3152554 3173081 3224985 3298830 
3703.960 3382071 3461086 3523848 3562331 3572186 3552877 3506612 3437273 
3707.817 3349013 3245448 3130060 3006528 2880530 2760670 2659145 2589142 
3711.675 2564177 2591375 2670980 2793816 2944909 3105965 3259035 3389852 
3715.532 3489076 3552409 3580939 3580705 3560560 3529393 3494687 3460919 
3719.389 3428423 3395696 3361101 3324739 3289048 3258334 3235867 3223717 
3723.247 3219811 3219778 3218209 3211933 3202187 3195110 3199883 3226387 
3727.104 3279633 3357728 3450065 3539381 3607232 3635365 3611074 3529994 
3730.962 3397699 3229692 3046233 2868122 2709054 2572943 2456034 2353148 
3734.819 2264442 2198565 2171125 2196667 2281995 2420014 2592242 2774542 
3738.677 2946176 3092583 3206492 3286811 3333153 3341100 3300433 3195811 
3742.534 3013268 2750933 2433275 2117215 1875121 1768646 1812830 1974133 
3746.391 2189706 2395692 2543513 2603442 2569510 2456434 2297883 2132831 
3750.249 1997399 1914590 1892093 1928568 2018537 2155174 2328796 2525049 
3754.106 2726426 2912651 3065820 3174816 3235700 3252859 3237136 3202453 
3757.964 3161666 3124086 3097021 3086276 3098289 3139071 3210732 3308512 
3761.821 3419072 3524048 3603457 3642014 3634529 3587788 3519439 3450532 
3765.678 3399402 3373122 3365976 3363438 3350015 3316225 3263075 3202620 
3769.536 3152754 3132196 3151787 3211232 3300767 3404979 3509251 3601118 
3773.393 3674660 3728161 3763688 3785112 3795641 3796476 3786583 3762719 
3777.251 3721578 3662396 3589057 3512123 3445422 3404478 3399703 3432364 
3781.108 3494219 3570215 3644419 3703966 3743134 3764256 3775486 3786449 
3784.966 3804498 3831674 3864401 3896763 3922206 3938188 3945745 3948252 
3788.823 3949623 3952465 3957916 3964971 3973431 3983195 3994732 4007205 
3792.680 4016970 4017204 3998678 3953402 3878275 3778360 3667174 3564369 
3796.538 3489343 3452536 3451367 3469637 3483865 3467432 3399803 3273757 
3800.395 3100225 2911550 2750700 2660779 2664713 2756768 2906747 3072227 
3804.253 3213002 3296059 3305775 3245715 3142008 3034822 2966860 2968428 
3808.110 3043931 3175450 3332418 3485669 3615017 3712321 3779664 3824621 
3811.968 3853369 3865972 3855074 3808476 3716164 3577130 3404979 3228457 
3815.825 3085241 3005994 3000055 3052173 3129926 3195477 3215271 3170444 
3819.682 3060581 2906981 2747732 2630209 2593275 2650044 2786246 2967894 
3823.540 3156993 3319898 3435737 3498996 3517201 3508883 3495155 3495155 
3827.397 3517301 3558422 3605896 3644787 3662797 3654744 3623904 3579770 
3831.255 3534905 3499029 3477118 3466731 3461320 3451635 3428623 3385410 
3835.112 3317827 3224785 3108501 2976468 2842107 2721891 2634376 2593109 
3838.969 2602508 2657078 2743564 2845876 2948345 3040627 3117778 3180357 
3842.827 3232830 3282037 3334388 3394594 3464627 3543724 3628348 3712889 
3846.684 3790393 3854473 3899471 3921504 3918528 3888739 3828733 3733208 
3850.542 3592665 3396530 3137869 2822497 2477260 2151411 1910097 1803580 
3854.399 1847435 2018171 2270104 2555844 2838238 3096053 3318095 3499698 
3858.257 3639808 3737452 3792265 3805134 3780266 3725554 3651236 3568411 
3862.114 3485669 3407384 3335624 3271788 3220913 3192039 3194910 3234465 
3865.971 3304773 3389785 3464092 3500833 3481494 3401707 3277163 3140105 
3869.829 3032219 2986176 3011433 3091949 3196445 3294189 3363271 3398434 
3873.686 3409387 3416534 3440513 3493518 3574926 3672086 3765326 3834081 
3877.544 3862863 3844210 3779731 3680340 3565672 3460585 3387548 3362203 
3881.401 3387214 3451668 3533769 3607099 3648830 3643718 3590661 3504474 
3885.259 3414297 3354556 3349481 3406916 3513359 3641680 3759477 3840366 
3889.116 3868413 3840600 3767231 3670449 3578233 3514729 3495355 3522578 
3892.973 3588189 3677299 3773213 3862429 3933474 3978614 3993528 3975671 
3896.831 3924647 3842438 3734310 3608201 3475415 3348713 3239606 3155558 
3900.688 3098456 3064786 3047334 3038392 3033921 3034288 3045532 3075898 
3904.546 3133164 3220879 3335891 3470037 3611843 3750152 3875367 3981490 
3908.403 4066133 4129316 4173005 4199936 4213586 4217367 4214657 4208300 
3912.260 4200204 4190100 4175915 4154204 4121221 4074962 4016268 3949723 
3916.118 3883022 3824588 3781469 3757571 3752826 3764290 3787819 3819641 
3919.975 3856779 3896963 3937386 3974166 4002624 4019177 4021852 4012388 
3923.833 3996370 3981824 3976975 3987475 4014295 4053290 4097171 4136943 
3927.690 4165176 4177186 4171198 4148450 4112323 4067437 4018709 3972127 
3931.548 3934042 3909869 3904887 3921437 3958651 4012221 4074995 4139351 
3935.405 4197628 4244669 4278464 4299446 4309987 4312798 4310154 4302691 
3939.262 4289373 4268359 4238412 4199568 4154405 4107507 4065798 4035631 
3943.120 4021585 4025163 4043557 4071083 4099880 4122258 4132761 4128914 
3946.977 4112023 4086735 4059778 4037704 4025765 4026835 4041082 4066467 
3950.835 4099747 4137444 4176383 4214255 4248852 4278832 4302993 4320896 
3954.692 4332576 4338968 4341712 4342817 4343921 4346398 4350514 4355835 
3958.550 4361258 4365341 4367115 4365709 4361291 4354464 4346164 4337730 
3962.407 4330735 4325983 4324444 4326385 4331472 4338834 4347870 4357676 
3966.264 4367650 4377289 4386560 4395095 4402426 4407882 4410626 4410158 
3970.122 4406241 4399413 4391280 4384050 4379732 4380235 4386594 4398409 
3973.979 4414743 4433723 4452971 4470814 4485912 4497797 4506535 4512795 
3977.837 4516780 4519056 4519291 4517282 4512494 4504426 4493612 4481158 
3981.694 4468604 4458059 4451431 4450025 4453941 4462244 4473726 4486649 
3985.552 4499638 4512193 4524078 4535429 4546578 4557025 4566568 4574470 
3989.409 4580531 4584717 4587898 4591012 4594830 4599551 4605043 4610401 
3993.266 4615123 4619008 4622591 4626810 4632838 4640943 4651292 4662980 
3997.124 4674133 4684114 4691516 4696573 4699387 4700258 4699186 4695971 
##END=
