
##TITLE=Z244_3_c
##JCAMP-DX=5.01  $$ Nicolet v. 1
##DATATYPE=INFRARED SPECTRUM
##ORIGIN=UniL
##OWNER=Nicolet
##LONGDATE=2011/09/20
##TIME=14:44:37
##SPECTROMETER/DATA SYSTEM=Nicolet iS5
##DATA PROCESSING=
Ratio against background
%Transmittance->Absorbance
Truncated
ElementMultiply or ElementDivide
##COMMENTS=
Number of sample scans: 32
Collection length: 51.19 sec
Sample gain: 2.0
Background collected on: Mar Sep 20 14:15:08 2011 (GMT+02:00);
Number of background scans: 32
Background gain: 2.0
Sample spacing:  1.000
Number of scan points: 12415
Resolution points: 8192
Number of FFT points: 65536
Apodization: N-B fort;
Phase correction: Mertz;
Laser frequency: 15798.0 cm-1
Number of rejected sample scans: 0
Number of rejected background scans: 0
Bench serial number: ASB1000141;
##RESOLUTION=4.000
##XUNITS=1/CM
##YUNITS=ABSORBANCE
##FIRSTX=649.893372
##LASTX=4000.122314
##FIRSTY=0.067191
##MAXX=4000.122314
##MINX=649.893372
##MAXY=0.355532
##MINY=0.000631
##XFACTOR=1.000000
##YFACTOR=1.000000E-009
##NPOINTS=6950
##DELTAX=0.482117
##ZPD=6100
##XYDATA=(X++(Y..Y))
649.893 67191008 67862440 68554496 69286800 70072976 70913792 71800680 
653.268 72726120 73695664 74734008 75877968 77163688 78614856 80233784 
656.643 82010184 83936128 86020752 88296328 90813848 93621560 96757584 
660.018 100240168 104065832 108211528 112624640 117206768 121780512 
662.911 126095368 129868952 132804888 134670272 135298992 134563936 
665.803 132370440 128676072 123607416 117572904 111328000 105769304 
668.696 101506328 98658080 96929976 95896136 95167472 94483896 93724784 
672.071 92867152 91957608 91067048 90265824 89597240 89076184 88700208 
675.446 88462632 88361864 88403904 88598408 88953232 89471048 90148776 
678.820 90981400 91965184 93101600 94398192 95867872 97524632 99382464 
682.195 101454936 103755664 106308808 109154648 112350568 115977968 
685.088 120129048 124890048 130341784 136546768 143557968 151429648 
687.981 160216960 169955104 180599168 191948624 203547568 214577184 
690.873 223956352 230402128 232677408 229992752 222163888 209743152 
693.766 193846128 175977312 157720480 140399664 125086320 112435344 
696.659 102689560 95805280 91507904 89420568 89136632 90328768 92793632 
700.034 96438568 101244800 107166712 114002520 121327512 128436152 134375040 
703.408 138200528 139131488 136801840 131379008 123521984 114218448 
706.301 104471496 95192840 87005696 80190856 74776120 70599120 67426200 
709.676 65013944 63171708 61767188 60703220 59906920 59315424 58870604 
713.051 58532768 58281200 58114504 58040196 58061896 58169808 58342020 
716.425 58550436 58772644 59001720 59245728 59521528 59844356 60221084 
719.800 60646868 61111972 61607052 62130984 62690996 63299448 63966460 
723.175 64695404 65481976 66317640 67193368 68100584 69031576 69973744 
726.550 70905328 71798600 72623064 73357912 74002728 74584208 75153472 
729.925 75768800 76486072 77339448 78334760 79454712 80670800 81959808 
733.300 83313448 84742296 86268344 87915952 89699232 91620288 93673392 
736.674 95855848 98178248 100670304 103373576 106333152 109585432 113149424 
740.049 117030736 121231664 125763584 130657840 135967840 141762320 
742.942 148129888 155182320 163063440 171977232 182169008 193872912 
745.835 207212192 222037888 237771968 253200896 266603536 275947584 
748.727 279348896 275852000 265788048 250836368 233385712 216057008 
751.620 201109328 189972608 183369920 181257488 183018848 187601024 
754.513 193755104 200312160 206210000 210696624 213344656 213963664 
757.405 212542720 209149648 203873984 196811168 188088592 177918400 
760.298 166619808 154640144 142546208 130914360 120315080 111235448 
763.191 103982888 98698704 95322528 93628424 93251192 93758536 94742256 
766.566 95821224 96703096 97197256 97188216 96642992 95596744 94148104 
769.940 92441600 90648392 88950672 87495096 86378080 85636752 85253816 
773.315 85180768 85363424 85764784 86368144 87171016 88171288 89356048 
776.690 90698856 92169192 93740576 95400816 97151712 99000616 100948928 
780.065 102984344 105080920 107206576 109335568 111452576 113554112 
782.958 115639760 117700280 119711376 121632736 123414512 125012520 
785.850 126392576 127534464 128427240 129060360 129416448 129472704 
788.743 129203096 128588976 127626208 126326576 124714504 122817776 
791.636 120662680 118270176 115658744 112851912 109880256 106780976 
794.528 103593408 100347448 97059640 93735392 90377280 86998080 83632128 
797.903 80331328 77162304 74190248 71460136 68996728 66802352 64867036 
801.278 63177072 61721084 60488176 59462024 58616108 57914856 57315892 
804.653 56782556 56290112 55827316 55393996 54994052 54629304 54299028 
808.028 54003748 53752500 53566808 53482100 53542556 53788092 54249656 
811.402 54939900 55850868 56950668 58180492 59456436 60657536 61640080 
814.777 62258536 62376184 61907548 60837144 59227916 57207244 54940912 
818.152 52607648 50351920 48276380 46438784 44856112 43523128 42422612 
821.527 41533008 40827184 40272256 39833324 39475752 39173372 38914108 
824.902 38697736 38531216 38419132 38358464 38336788 38338344 38350180 
828.277 38369544 38404396 38468908 38574708 38725120 38913020 39125364 
831.651 39349204 39577840 39811972 40057568 40319592 40598180 40888268 
835.026 41183360 41481276 41787820 42116016 42480412 42891960 43352372 
838.401 43855240 44390400 44951460 45540332 46167664 46848196 47594084 
841.776 48411372 49298416 50250432 51264980 52345736 53502112 54745352 
845.151 56080668 57503200 58994508 60527060 62062364 63554788 64953872 
848.525 66196764 67213520 67936088 68301984 68276544 67863560 67113272 
851.900 66115156 64982580 63839860 62790112 61908124 61236480 60785004 
855.275 60541232 60477016 60557684 60743464 60993408 61273148 61555468 
858.650 61827312 62090192 62358244 62652104 62991404 63392228 63864084 
862.025 64412536 65041924 65755672 66551932 67414968 68310320 69178608 
865.400 69935632 70490184 70753056 70654096 70159576 69275336 68048456 
868.774 66555060 64897276 63189028 61537792 60048504 58807960 57875784 
872.149 57289920 57062388 57187892 57652824 58446176 59565616 61022048 
875.524 62837364 65040424 67661856 70722448 74221704 78117896 82316856 
878.899 86647400 90852232 94627456 97627256 99530192 100119616 99311192 
882.274 97198536 94025936 90172472 86069464 82114936 78664688 75967592 
885.648 74166432 73324088 73431320 74430208 76220736 78672872 81618000 
889.023 84832672 88059920 90995696 93307712 94701616 94936568 93882080 
892.398 91548608 88088000 83774360 78933952 73926824 69070800 64594044 
895.773 60645420 57279412 54482180 52198116 50355792 48885168 47719956 
899.148 46804168 46087816 45523960 45075760 44715496 44425996 44199784 
902.523 44032944 43919428 43848792 43806092 43775708 43748184 43721144 
905.897 43699924 43692488 43704688 43736828 43783920 43838968 43897800 
909.272 43961772 44036864 44130532 44246452 44382872 44533444 44690448 
912.647 44849464 45012468 45186008 45378492 45594392 45832636 46086492 
916.022 46348192 46612640 46880564 47157852 47452508 47769660 48109112 
919.397 48465496 48831696 49203480 49581560 49971832 50382804 50822808 
922.771 51297568 51811816 52372536 52990316 53679948 54455364 55321088 
926.146 56263712 57245692 58211140 59088532 59806364 60312484 60579436 
929.521 60614600 60454892 60164036 59817772 59489840 59250704 59154744 
932.896 59238512 59522668 60010840 60693124 61546876 62541388 63636220 
936.271 64780092 65917888 66990084 67941040 68733328 69353536 69821256 
939.646 70185360 70521120 70914144 71440128 72160184 73107296 74286880 
943.020 75680992 77253696 78957120 80726896 82487736 84153488 85624080 
946.395 86804088 87609928 87980744 87893192 87361976 86439456 85201288 
949.770 83740848 82158448 80544024 78982912 77546808 76286688 75237232 
953.145 74411528 73804672 73398200 73167992 73091576 73150464 73332256 
956.520 73628648 74030544 74527872 75109312 75763832 76485048 77272424 
959.894 78130704 79066816 80087536 81197328 82399000 83696808 85100792 
963.269 86627744 88303112 90156656 92215528 94501320 97023512 99779688 
966.644 102756424 105935592 109301608 112847920 116583528 120533432 
969.537 124735344 129223272 134011416 139067952 144302432 149547456 
972.429 154558016 159056864 162746336 165368544 166768832 166918400 
975.322 165942832 164089552 161718016 159226576 156978272 155292256 
978.215 154375488 154306240 155029728 156359840 158005648 159578688 
981.108 160678880 160933904 160046464 157866368 154396384 149794720 
984.000 144323632 138317376 132127152 126049744 120336240 115163016 
986.893 110625704 106762256 103557664 100962600 98905488 97308632 96100808 
990.268 95215784 94599936 94210664 94009144 93963520 94046256 94233592 
993.643 94508488 94859064 95277544 95758560 96296512 96884624 97515712 
997.017 98183312 98883312 99614528 100377504 101173312 102000792 102856552 
1000.392 103735088 104631424 105541904 106466288 107406888 108367104 
1003.285 109350016 110357296 111390048 112449504 113539352 114665728 
1006.178 115835992 117057448 118334040 119665856 121048992 122477016 
1009.070 123944176 125446064 126980736 128547576 130146160 131774840 
1011.963 133431088 135112848 136820176 138556448 140329760 142150832 
1014.856 144031120 145982112 148012720 150130224 152340736 154650592 
1017.748 157066080 159593760 162238816 165004064 167887696 170882160 
1020.641 173970304 177120960 180288064 183400400 186362976 189067168 
1023.534 191388592 193213056 194459600 195092576 195139680 194686688 
1026.427 193873824 192861696 191806784 190847424 190071488 189514944 
1029.320 189155040 188916496 188671760 188248144 187458464 186099760 
1032.213 183982256 180967936 176974464 172003328 166139728 159552272 
1035.106 152472992 145158640 137890048 130920816 124449952 118624368 
1037.999 113514176 109124448 105409944 102297384 99702816 97542880 95748976 
1041.374 94262656 93032960 92018176 91180048 90486304 89913272 89443776 
1044.750 89066824 88774504 88558752 88409952 88318456 88275536 88276680 
1048.125 88321504 88411944 88548712 88727064 88933712 89147208 89340136 
1051.500 89480576 89539216 89491568 89320760 89021800 88602752 88087104 
1054.875 87510168 86918984 86365680 85895672 85547088 85343304 85292368 
1058.250 85391656 85630984 85996400 86468328 87019744 87614184 88198768 
1061.626 88711336 89086144 89259232 89184720 88839624 88228120 87378744 
1065.001 86340168 85174720 83945168 82714200 81537760 80457040 79501584 
1068.376 78685976 78011736 77472216 77057600 76759720 76574360 76500344 
1071.751 76537720 76683808 76932232 77272616 77693472 78184464 78739120 
1075.127 79353000 80022592 80743224 81507976 82310480 83147136 84021632 
1078.502 84945480 85938200 87024232 88226816 89567960 91067000 92741072 
1081.877 94610976 96701440 99040240 101659392 104589304 107855232 111475136 
1085.252 115454592 119782792 124424136 129317952 134372960 139464416 
1088.146 144458464 149214240 153605200 157541376 160967952 163863248 
1091.039 166223712 168042736 169293856 169930704 169895408 169151344 
1093.932 167715584 165688160 163258304 160679696 158263136 156305792 
1096.825 155054784 154689632 155280608 156786832 159044816 161795776 
1099.718 164686896 167291888 169192928 169989984 169366576 167153248 
1102.611 163329952 158038272 151534000 144164848 136306592 128301712 
1105.504 120467008 113047624 106208680 100056192 94628528 89915472 85873024 
1108.879 82438696 79542976 77112560 75079840 73380040 71949640 70733480 
1112.254 69681616 68752144 67915504 67150400 66442884 65784624 65169872 
1115.630 64595008 64059072 63564836 63117908 62725716 62395388 62130868 
1119.005 61931964 61795108 61715128 61688160 61711916 61786324 61911292 
1122.380 62086028 62307568 62571808 62874964 63215472 63594640 64015716 
1125.755 64482832 64999588 65568552 66191940 66873424 67618648 68434928 
1129.131 69329672 70307312 71366784 72500104 73693816 74930008 76187128 
1132.506 77442712 78673072 79851480 80952688 81953360 82836840 83598832 
1135.881 84250992 84822600 85355440 85902016 86517856 87251136 88144496 
1139.256 89230536 90530744 92059208 93821296 95814368 98026368 100436712 
1142.632 103016560 105725984 108517960 111336568 114111792 116765704 
1145.525 119208472 121336984 123050104 124247808 124841464 124770184 
1148.418 124000336 122532416 120397528 117654048 114380888 110666192 
1151.311 106611144 102320232 97892264 93425160 89003416 84694040 80554192 
1154.686 76626056 72941944 69529384 66407396 63587232 61071392 58852768 
1158.061 56916596 55242480 53808792 52592016 51566908 50708400 49987964 
1161.437 49376108 48846824 48377148 47950712 47558336 47194976 46858236 
1164.812 46546316 46257660 45992144 45752336 45544564 45377020 45257452 
1168.187 45190936 45177188 45212152 45289888 45406488 45561380 45758336 
1171.562 46002604 46298796 46648420 47049872 47499784 47995968 48539148 
1174.938 49133608 49785332 50499996 51281496 52131160 53049692 54038232 
1178.313 55099176 56235160 57446432 58727616 60065744 61440180 62826484 
1181.688 64199372 65537228 66826232 68060544 69243120 70384032 71501464 
1185.063 72620288 73768976 74979416 76279936 77687800 79205528 80814888 
1188.438 82478840 84140064 85731680 87184872 88431112 89415072 90096464 
1191.814 90449208 90464264 90144904 89504320 88560904 87335840 85852064 
1195.189 84132616 82206128 80111440 77898104 75633464 73396240 71262416 
1198.564 69301296 67557632 66044860 64747712 63628776 62642724 61744992 
1201.939 60904616 60106420 59349268 58641672 57996948 57430284 56954480 
1205.315 56580688 56316404 56164148 56120748 56177156 56321460 56540752 
1208.690 56825228 57170320 57576208 58046104 58583344 59189944 59865844 
1212.065 60610788 61426096 62316440 63288220 64349508 65507060 66764712 
1215.440 68124544 69588144 71159200 72844992 74656168 76606024 78708656 
1218.816 80976728 83423376 86062560 88910336 91986560 95313160 98910528 
1222.191 102794752 106972152 111436384 116163232 121109200 126209896 
1225.084 131368744 136461824 141334512 145790544 149618384 152594256 
1227.977 154499424 155167728 154497488 152479008 149196672 144824912 
1230.870 139608624 133815320 127737000 121652424 115793088 110359096 
1233.763 105491848 101272624 97739072 94886720 92684504 91082696 90023648 
1237.138 89446216 89284376 89476016 89962504 90689056 91611608 92692424 
1240.514 93895976 95188144 96527280 97861752 99136104 100289544 101266464 
1243.889 102027032 102548304 102830104 102891488 102769312 102512184 
1246.782 102173688 101814944 101494736 101265296 101169840 101232160 
1249.675 101455816 101822768 102300016 102845016 103412720 103966808 
1252.568 104480512 104940192 105345448 105708400 106053208 106411840 
1255.461 106825632 107338792 107989136 108806776 109804216 110974144 
1258.354 112287360 113695944 115137048 116530704 117789096 118820120 
1261.247 119525384 119816328 119616968 118871616 117555832 115676216 
1264.140 113270648 110398144 107135504 103569728 99787352 95881880 91948272 
1267.516 88073872 84343288 80826912 77573896 74619656 71983584 69674344 
1270.891 67695120 66043316 64710216 63678920 62925676 62421784 62136716 
1274.266 62045512 62128804 62373660 62771424 63313900 63991108 64792716 
1277.641 65709108 66734420 67868360 69115944 70485152 71983896 73619272 
1281.017 75397264 77324480 79411192 81670464 84116688 86760432 89601480 
1284.392 92623968 95789664 99042528 102308200 105496536 108517880 111282576 
1287.767 113708296 115731144 117301344 118387352 118975144 119063304 
1290.660 118658200 117767544 116395608 114541528 112204208 109390768 
1293.553 106128080 102470816 98510264 94364512 90168680 86073304 82218384 
1296.928 78732360 75730888 73300440 71502008 70365600 69885816 70025008 
1300.304 70715424 71874800 73405936 75207320 77184824 79241480 81282576 
1303.679 83220536 84965024 86434920 87564248 88300760 88614048 88492656 
1307.054 87942080 86985488 85666256 84060440 82274768 80452136 78765016 
1310.429 77374608 76412856 75944352 75942064 76279696 76746360 77105160 
1313.805 77118416 76615864 75530984 73900072 71850008 69550856 67193984 
1317.180 64940980 62903000 61143056 59674704 58480712 57528580 56786860 
1320.555 56230104 55839264 55600472 55500872 55527080 55667020 55910408 
1323.930 56249904 56680380 57195756 57786224 58438448 59133864 59852644 
1327.306 60577456 61293788 61992268 62667220 63315056 63932948 64519428 
1330.681 65074368 65601268 66106624 66599980 67091504 67589416 68099040 
1334.056 68622632 69160240 69712624 70281960 70872632 71490288 72139960 
1337.431 72825912 73551368 74319392 75134632 76003472 76932584 77927912 
1340.807 78991496 80121208 81311464 82555736 83849624 85192416 86588312 
1344.182 88045752 89575256 91186216 92886112 94678344 96563608 98540448 
1347.557 100607312 102763144 105007152 107337944 109751832 112240592 
1350.450 114792208 117393600 120032888 122705600 125417408 128186408 
1353.343 131039176 134007456 137125184 140422736 143926160 147655696 
1356.236 151621200 155814048 160196448 164698368 169208144 173580992 
1359.129 177673392 181353056 184535440 187199520 189386768 191184928 
1362.022 192694624 194017296 195228464 196372832 197475344 198543904 
1364.916 199577872 200570624 201513264 202399600 203234944 204045904 
1367.809 204885920 205835120 206977488 208391184 210130976 212221776 
1370.702 214668912 217469248 220626016 224149040 228049408 232326016 
1373.595 236950464 241867040 247009600 252325472 257797664 263443200 
1376.488 269291296 275341504 281527072 287679424 293550784 298829984 
1379.381 303171744 306262080 307811424 307565920 305348960 301085888 
1382.274 294867808 286957248 277765920 267745312 257243328 246469328 
1385.167 235457616 224134144 212415200 200309056 187963184 175639728 
1388.060 163634592 152193712 141483520 131586384 122541160 114380104 
1390.953 107119048 100764032 95296696 90665128 86796968 83612640 81047000 
1394.328 79042296 77540824 76477344 75759568 75284512 74964104 74740344 
1397.704 74609624 74621584 74871544 75465816 76487536 77983024 79954992 
1401.079 82380296 85224184 88449024 91999456 95774792 99623624 103320568 
1404.454 106579592 109118008 110682696 111108672 110349360 108466824 
1407.347 105615936 101999952 97864784 93463288 89027088 84779384 80895920 
1410.722 77492976 74632840 72322304 70535232 69232704 68381648 67958632 
1414.098 67942864 68308224 69014944 70009712 71244416 72684128 74321992 
1417.473 76181200 78301264 80712616 83405752 86324728 89381488 92491896 
1420.848 95604264 98705072 101803544 104901632 107972520 110948344 113712304 
1424.223 116131152 118081920 119469144 120237720 120353376 119785320 
1427.116 118505688 116499896 113794840 110472872 106682432 102614304 
1430.010 98454112 94370816 90495032 86918016 83709144 80911488 78538024 
1433.385 76573920 74978000 73699560 72696856 71961368 71524896 71447592 
1436.760 71777928 72514632 73592928 74908976 76352144 77829240 79279928 
1440.135 80664536 81958208 83146296 84215752 85156336 85961984 86632312 
1443.510 87172680 87591848 87898592 88097696 88189712 88175632 88064464 
1446.886 87881512 87673832 87499672 87413840 87450760 87612848 87877496 
1450.261 88211512 88592104 89015008 89495528 90056144 90711104 91451872 
1453.636 92249048 93053528 93813768 94492752 95076312 95582000 96048560 
1457.011 96518464 97005984 97489464 97928632 98289336 98559200 98748448 
1460.387 98882608 98991920 99103304 99234784 99399496 99611864 99892440 
1463.762 100272096 100787592 101468536 102333528 103387912 104630120 
1466.655 106063448 107697464 109543352 111605064 113872696 116324880 
1469.548 118924160 121632336 124410240 127205624 129947112 132530512 
1472.441 134819120 136671056 137966336 138623568 138606144 137907104 
1475.334 136548672 134585392 132109464 129242408 126105560 122803224 
1478.227 119397728 115909680 112341000 108695128 104994280 101290648 
1481.120 97652392 94145352 90820088 87698640 84780032 82050088 79490760 
1484.496 77087232 74829736 72712528 70735856 68905856 67234672 65739640 
1487.871 64439440 63349368 62479704 61835296 61417968 61225376 61249340 
1491.246 61471060 61857188 62363140 62940040 63537644 64118288 64661144 
1494.621 65164408 65645284 66130972 66645444 67192856 67751432 68278800 
1497.997 68729480 69067656 69277632 69367104 69362280 69301688 69225160 
1501.372 69170136 69163112 69214864 69319216 69451976 69574576 69635488 
1504.747 69586904 69404304 69114384 68806184 68608744 68635288 68920416 
1508.122 69419352 70042416 70703176 71335312 71900640 72388648 72805648 
1511.498 73168736 73497600 73808680 74110112 74401304 74674584 74920672 
1514.873 75134200 75320960 75502952 75715704 76002328 76393656 76895880 
1518.248 77484256 78113296 78728032 79281520 79756752 80178464 80614552 
1521.623 81141128 81811768 82625824 83534808 84465944 85352096 86152696 
1524.999 86855200 87477872 88056224 88631232 89231680 89870112 90548544 
1528.374 91266912 92029640 92844664 93717464 94644472 95610864 96599288 
1531.749 97600664 98629760 99729864 100968416 102409784 104077368 105947392 
1535.124 107957056 110039024 112133248 114204136 116246368 118275304 
1538.017 120333528 122486856 124822608 127423288 130335552 133565504 
1540.910 137066400 140770128 144621328 148586976 152658432 156835360 
1543.803 161106928 165430896 169725328 173888656 177810304 181393712 
1546.697 184567568 187258112 189379712 190843008 191563616 191514848 
1549.590 190755776 189431872 187712816 185718976 183486624 180970192 
1552.483 178100064 174858352 171332336 167719232 164271840 161177360 
1555.376 158495776 156134352 153891744 151508128 148744032 145479584 
1558.269 141803520 138052656 134673632 131989416 130043968 128670424 
1561.162 127622248 126684024 125698608 124545496 123142872 121446576 
1564.055 119463552 117256680 114929256 112592552 110311080 108082016 
1566.948 105833984 103460568 100860104 97987296 94886600 91694888 88596536 
1570.323 85746664 83225392 81024200 79080688 77312720 75647752 74031288 
1573.698 72427328 70818456 69214752 67673936 66307760 65266976 64698756 
1577.074 64686484 65236636 66301352 67818200 69741728 72056872 74779152 
1580.449 77939488 81567104 85673520 90235312 95184632 100411992 105746736 
1583.824 110965760 115816016 120010048 123283864 125433640 126327544 
1586.717 125935760 124329096 121689952 118287840 114463416 110605616 
1589.610 107065456 104141632 102054272 100924056 100800552 101672456 
1592.503 103489872 106171624 109615208 113712040 118331216 123329776 
1595.396 128563808 133879992 139138560 144224368 149032256 153466320 
1598.290 157423248 160773440 163378656 165110208 165873520 165638528 
1601.183 164443008 162386352 159600224 156242736 152488752 148506832 
1604.076 144466912 140517696 136762016 133260432 130026040 127039520 
1606.969 124267960 121682896 119270120 117026648 114953992 113048184 
1609.862 111295416 109676872 108176288 106786104 105509032 104350816 
1612.755 103309224 102365152 101478664 100593736 99655544 98628920 97526496 
1616.130 96418664 95425416 94670888 94229312 94105432 94242976 94561040 
1619.505 94975736 95423640 95870352 96307144 96753776 97251760 97859552 
1622.881 98632584 99610864 100809240 102214936 103796944 105515840 107334336 
1626.256 109218472 111136528 113063960 114979560 116868944 118724560 
1629.149 120546152 122338096 124106232 125857088 127598120 129339248 
1632.042 131092624 132876960 134721104 136669152 138786592 141161280 
1634.935 143900544 147089872 150767632 154914176 159456080 164316096 
1637.828 169443216 174822864 180468720 186408240 192673024 199275280 
1640.721 206203088 213425840 220887872 228522688 236271056 244064592 
1643.614 251850688 259605680 267334752 275088832 282945408 290981984 
1646.507 299195424 307473184 315613536 323386304 330610336 337177056 
1649.400 343040480 348118432 352199520 354892928 355531584 353296000 
1652.293 347602496 338681536 327829728 316749632 306602400 297590112 
1655.187 289310176 281177856 272749984 263808752 254353760 244526736 
1658.080 234524672 224538208 214660432 204897392 195194048 185473616 
1660.973 175687648 165849280 156046400 146438240 137227056 128608928 
1663.866 120728216 113645664 107334168 101703864 96628176 91976080 87641024 
1667.241 83562480 79738440 76228752 73132544 70551720 68553104 67144632 
1670.616 66278964 65872116 65837876 66101960 66610716 67339784 68291712 
1673.991 69498744 71013240 72891896 75167688 77826272 80821280 84099000 
1677.367 87628736 91412112 95475736 99850192 104535224 109490352 114644760 
1680.742 119914744 125262376 130721312 136406064 142491056 149147936 
1683.635 156440112 164198432 172035920 179481760 186159328 191851216 
1686.528 196454784 199926640 202216528 203282864 203112336 201721744 
1689.421 199168768 195546304 190993376 185694896 179867840 173746608 
1692.314 167502496 161194512 154751136 147981360 140671312 132742720 
1695.207 124406312 116186568 108727432 102462760 97465824 93477184 90096256 
1698.583 86921296 83699976 80422632 77328720 74769000 72960840 71852944 
1701.958 71180120 70628440 69918240 68863024 67355848 65353012 62872208 
1705.333 59983984 56804116 53463776 50092704 46803760 43675228 40755008 
1708.708 38055956 35560032 33232146 31039436 28967492 27026212 25241492 
1712.083 23634326 22206678 20930660 19758996 18640772 17546810 16480168 
1715.459 15472789 14565728 13786917 13137174 12597026 12143712 11770393 
1718.834 11489346 11316513 11251764 11269413 11323246 11360114 11343006 
1722.209 11261694 11138989 11016353 10936495 10917875 10947674 10988927 
1725.584 11003098 10969183 10890829 10791055 10696058 10620299 10558099 
1728.960 10489051 10390999 10255308 10090935 9917708 9751633 9594225 9430407 
1732.817 9240486 9020098 8799351 8636001 8586420 8665779 8840028 9042596 
1736.675 9205456 9282424 9255785 9142409 8984342 8834753 8730345 8677880 
1740.532 8654523 8628328 8577160 8500046 8413420 8337856 8283580 8242719 
1744.389 8193148 8111479 7985812 7822802 7642688 7466996 7308325 7162377 
1748.247 7013010 6844036 6653560 6459569 6297433 6201633 6188928 6249631 
1752.104 6353545 6464446 6555662 6617628 6654098 6673546 6681420 6677449 
1755.962 6658237 6624054 6582876 6550314 6540256 6557445 6591690 6622675 
1759.819 6627485 6594146 6530266 6463975 6432228 6462024 6557445 6696696 
1763.677 6844103 6964826 7040051 7068979 7064836 7044765 7022539 7002302 
1767.534 6979540 6947150 6901868 6846560 6787894 6730581 6674219 6614398 
1771.391 6549170 6485095 6441813 6443225 6505141 6625669 6783956 6949069 
1775.249 7090264 7190067 7246800 7273350 7287603 7303406 7323725 7341315 
1779.106 7344921 7330397 7304821 7286390 7293533 7334138 7399348 7466895 
1782.964 7513348 7523698 7501886 7467738 7450008 7469491 7529497 7614362 
1786.821 7699008 7761035 7789067 7785660 7762149 7729936 7692870 7647611 
1790.678 7588061 7514899 7442424 7397326 7404674 7476469 7601785 7753142 
1794.536 7896927 8008932 8081164 8120323 8141187 8156616 8170290 8175861 
1798.393 8162356 8123801 8066480 8009202 7976565 7986691 8042751 8131329 
1802.251 8231912 8325122 8402847 8469266 8534681 8607542 8687480 8764728 
1806.108 8825387 8859608 8867724 8860216 8852574 8858661 8882469 8918724 
1809.966 8957316 8992394 9026797 9072063 9140954 9239809 9362486 9492885 
1813.823 9611671 9706126 9775829 9833375 9897606 9982902 10093105 10218704 
1817.680 10343660 10452393 10539258 10608347 10669332 10728797 10784295 
1821.056 10823529 10830799 10794859 10715381 10604578 10482772 10371926 
1824.431 10285401 10225861 10185901 10155510 10126002 10093309 10056718 
1827.806 10015011 9965509 9906285 9839746 9776879 9735503 9734724 9783860 
1831.664 9877200 9994328 10108536 10197197 10248998 10268268 10271423 
1835.039 10278446 10302094 10342778 10389573 10428602 10451749 10462373 
1838.414 10472860 10497809 10544214 10605699 10663932 10696805 10688213 
1841.789 10634832 10548084 10450222 10367413 10319263 10313155 10346171 
1845.165 10409935 10497096 10602440 10722038 10848803 10971732 11079264 
1848.540 11163160 11223984 11271589 11321648 11387630 11474342 11575260 
1851.915 11676440 11765149 11834809 11890177 11942077 12002228 12074413 
1855.290 12152026 12221169 12268883 12289844 12289913 12281733 12278734 
1858.666 12286982 12302184 12313058 12309240 12288583 12259408 12237698 
1862.041 12236778 12261759 12304774 12350043 12380248 12386112 12369066 
1865.416 12339271 12308660 12283471 12262305 12239334 12211490 12185966 
1868.791 12180650 12216602 12307945 12452052 12628407 12807257 12962830 
1872.167 13080384 13160705 13215696 13260479 13304378 13346232 13376438 
1875.542 13385288 13370116 13338510 13305950 13286988 13288731 13306257 
1878.917 13327338 13338920 13335709 13323545 13316302 13326859 13361163 
1882.292 13414027 13473595 13528352 13574603 13618193 13671634 13744131 
1885.667 13835145 13931413 14013021 14062987 14075855 14062507 14045019 
1889.043 14049570 14092318 14174676 14283757 14401564 14514402 14617675 
1892.418 14714905 14812671 14913682 15014717 15108022 15187759 15255430 
1895.793 15320846 15397772 15496311 15617161 15749659 15878864 15991673 
1899.168 16085772 16169781 16260171 16371015 16506806 16659578 16814024 
1902.544 16955362 17076724 17181296 17279274 17379412 17481194 17573720 
1905.919 17639280 17663262 17641868 17585624 17513656 17447598 17401554 
1909.294 17377274 17367480 17362686 17359100 17361066 17378378 17419454 
1912.669 17484920 17565542 17647320 17716204 17766390 17801564 17832842 
1916.045 17871266 17923058 17987600 18060440 18138304 18224162 18325520 
1919.420 18449514 18595984 18755410 18909010 19038360 19133920 19200234 
1922.795 19255578 19322224 19416736 19540416 19679386 19811880 19920132 
1926.170 19999370 20058356 20114088 20181246 20264594 20355908 20440158 
1929.546 20504414 20547002 20578964 20619302 20682958 20775334 20887860 
1932.921 21005282 21112998 21205950 21290190 21377926 21478144 21589738 
1936.296 21701012 21795694 21862626 21901514 21923958 21945740 21977454 
1939.671 22017608 22051596 22060276 22032562 21972506 21900990 21846110 
1943.047 21829942 21856668 21912422 21972678 22016946 22038140 22046504 
1946.422 22060624 22096218 22157546 22233776 22306948 22361470 22393984 
1949.797 22416000 22446248 22499216 22577322 22668390 22754066 22819748 
1953.172 22864556 22900216 22945380 23013852 23103860 23199686 23278688 
1956.548 23325220 23338540 23335638 23340464 23374798 23443372 23533154 
1959.923 23621974 23692408 23740804 23780036 23830124 23905280 24004472 
1963.298 24112688 24207900 24276044 24319808 24358148 24417238 24515004 
1966.673 24649298 24798332 24933416 25031088 25086758 25115510 25142192 
1970.049 25186960 25253538 25328168 25388236 25416620 25410332 25381912 
1973.424 25351632 25335440 25333930 25336318 25328134 25306358 25285250 
1976.799 25293820 25357534 25485482 25658354 25837272 25978694 26054084 
1980.174 26062140 26026254 25980594 25951926 25950552 25966172 25978730 
1983.550 25969584 25934092 25882566 25834282 25806258 25804780 25824014 
1986.925 25853942 25886118 25921570 25968036 26034768 26121638 26218242 
1990.300 26304516 26362534 26385842 26385454 26384292 26405842 26462430 
1993.675 26547872 26642384 26722012 26770782 26790622 26796826 26808774 
1997.051 26839050 26886070 26935670 26970678 26981678 26972794 26961230 
2000.426 26967260 27001318 27058934 27122592 27172432 27197440 27204178 
2003.801 27211338 27242876 27311536 27411084 27517400 27600966 27639312 
2007.176 27629778 27587586 27536428 27496290 27472322 27454638 27428732 
2010.552 27386840 27334082 27288742 27271066 27291812 27345374 27413238 
2013.927 27472922 27509952 27526614 27538158 27564424 27615902 27687516 
2017.302 27760484 27814670 27837382 27834556 27825762 27836642 27882322 
2020.677 27963238 28063042 28160784 28240514 28299534 28346078 28395030 
2024.052 28454108 28519844 28580494 28621830 28638852 28638606 28637012 
2027.428 28649330 28681752 28725504 28763030 28776800 28761718 28727452 
2030.803 28696726 28691486 28721716 28780978 28850342 28908310 28941602 
2034.178 28951908 28950704 28951590 28959418 28967068 28959560 28924212 
2037.553 28859158 28776058 28693856 28630288 28591360 28568852 28545214 
2040.929 28503462 28438718 28360898 28288890 28241716 28227750 28240268 
2044.304 28261980 28274568 28268416 28247976 28228034 28223754 28243592 
2047.679 28282702 28327120 28358740 28367548 28352020 28320576 28284328 
2051.054 28250874 28221952 28196706 28172982 28154846 28150958 28169870 
2054.430 28216470 28286062 28365568 28438188 28492246 28525222 28545568 
2057.805 28566800 28600384 28650074 28709680 28767064 28810330 28835788 
2061.180 28847012 28853812 28864398 28880972 28898856 28909586 28906754 
2064.555 28891666 28873322 28865036 28875944 28907142 28949890 28990906 
2067.931 29018712 29029374 29027498 29023636 29026612 29038374 29053288 
2071.306 29061188 29053924 29030544 28997918 28967174 28948118 28943160 
2074.681 28947056 28949428 28942168 28923540 28899422 28879838 28872474 
2078.056 28877712 28888338 28891914 28877466 28840852 28787032 28726282 
2081.432 28668974 28620520 28579822 28540792 28497660 28448058 28395456 
2084.807 28346610 28306856 28277786 28255154 28231994 28203388 28168810 
2088.182 28132398 28100404 28077004 28060604 28045052 28023104 27990908 
2091.557 27951682 27916064 27895678 27899176 27926770 27970410 28016778 
2094.933 28053854 28075910 28084852 28087396 28089554 28093688 28095846 
2098.308 28089836 28070960 28039752 28002252 27966384 27937902 27916206 
2101.683 27895112 27866778 27825972 27774152 27719158 27670812 27636840 
2105.058 27617914 27608276 27598388 27582006 27557610 27530532 27508434 
2108.434 27497066 27496254 27500738 27501904 27494066 27477546 27458240 
2111.809 27443520 27438472 27441332 27444862 27439814 27420050 27386028 
2115.184 27345446 27309172 27285072 27274522 27272018 27268068 27254730 
2118.559 27229012 27194546 27158850 27128798 27106298 27087888 27067610 
2121.935 27040246 27005620 26968810 26936904 26915258 26904682 26900558 
2125.310 26895692 26885364 26869714 26854240 26845922 26849588 26864252 
2128.685 26883356 26898266 26903168 26898654 26892240 26894708 26915222 
2132.060 26957316 27017360 27089194 27166082 27245982 27330694 27423120 
2135.436 27522484 27622434 27711884 27779628 27820214 27836748 27839114 
2138.811 27839502 27846676 27861654 27877836 27886952 27883418 27870276 
2142.186 27856214 27851232 27861372 27884832 27912180 27932636 27940692 
2145.561 27939032 27938186 27950164 27980836 28026780 28076476 28116100 
2148.937 28136462 28138866 28131938 28127730 28132820 28145052 28153044 
2152.312 28145018 28112602 28058694 27994726 27936064 27893770 27871548 
2155.687 27865364 27871722 27893910 27945430 28045018 28205970 28424180 
2159.062 28675700 28922514 29126166 29263488 29334522 29357600 29357990 
2162.438 29358132 29367456 29383764 29399080 29407200 29407838 29406704 
2165.813 29409824 29416206 29416950 29397200 29344484 29255016 29137574 
2169.188 29008794 28888090 28788768 28712228 28651488 28596420 28541676 
2172.563 28489522 28449084 28430016 28436418 28462208 28493342 28512874 
2175.938 28510008 28482658 28437198 28383888 28331260 28280438 28229800 
2179.314 28176518 28121686 28072586 28040246 28032788 28051696 28089022 
2182.689 28131088 28164992 28183730 28187832 28183376 28176306 28167396 
2186.064 28151310 28120484 28069688 28001722 27927548 27861194 27814244 
2189.439 27790294 27781782 27777048 27765322 27743212 27716968 27697828 
2192.815 27694154 27707858 27730848 27748580 27747590 27722374 27676780 
2196.190 27621976 27569896 27527920 27493890 27461628 27422944 27375406 
2199.565 27324344 27279462 27250496 27241466 27248380 27261892 27273464 
2202.940 27279182 27281826 27289520 27310088 27345764 27392486 27441226 
2206.316 27482948 27514400 27537910 27560504 27588750 27624940 27665372 
2209.691 27702984 27731450 27749568 27762320 27777650 27801316 27833886 
2213.066 27869144 27898222 27913310 27913768 27905218 27897550 27899812 
2216.441 27914228 27936312 27957196 27968468 27967020 27955852 27942106 
2219.817 27932602 27928714 27926310 27916982 27893736 27854694 27804284 
2223.192 27751158 27703232 27664102 27631862 27600790 27565270 27524496 
2226.567 27481958 27443626 27414192 27393440 27375476 27352396 27317816 
2229.942 27270888 27217442 27166682 27126790 27100196 27083762 27069514 
2233.318 27050260 27022156 26987004 26950124 26917196 26889490 26864568 
2236.693 26837110 26801936 26757602 26706542 26653304 26602504 26555374 
2240.068 26510572 26465246 26419258 26375702 26341410 26323386 26325462 
2243.443 26344860 26374222 26402426 26420630 26425068 26417356 26402778 
2246.819 26386898 26371968 26357006 26339932 26319020 26295750 26274348 
2250.194 26259354 26253720 26255904 26261324 26264844 26264070 26260936 
2253.569 26261324 26271144 26293672 26326588 26363168 26394044 26413730 
2256.944 26421124 26420136 26416230 26413730 26411828 26405244 26386582 
2260.320 26350246 26294906 26224190 26144934 26063372 25983690 25906588 
2263.695 25831892 25760232 25694490 25639408 25599446 25575512 25563914 
2267.070 25557026 25546940 25528878 25502700 25473430 25447608 25429898 
2270.445 25420870 25417112 25412826 25404430 25391748 25378224 25368914 
2273.821 25367580 25374080 25384722 25394346 25398774 25397158 25392134 
2277.196 25387814 25386864 25389886 25393470 25393926 25388094 25375836 
2280.571 25359044 25340884 25322058 25300948 25273240 25234468 25182042 
2283.946 25117056 25043372 24966930 24892220 24820784 24751748 24682790 
2287.322 24611916 24539230 24465786 24393756 24322790 24251798 24177140 
2290.697 24096436 24008886 23917358 23826342 23740664 23662630 23591294 
2294.072 23523186 23454004 23380776 23304102 23226670 23152224 23082894 
2297.447 23018184 22955128 22889772 22819224 22743592 22665038 22586988 
2300.823 22511466 22438468 22365448 22289126 22207098 22118984 22026252 
2304.198 21931448 21836006 21739886 21641348 21538726 21431568 21320886 
2307.573 21209290 21098840 20989598 20879724 20765740 20644388 20515252 
2310.948 20381152 20248000 20122070 20007800 19906292 19814794 19728240 
2314.323 19640836 19547972 19445878 19331648 19202692 19055844 18889318 
2317.699 18703206 18501268 18290442 18079334 17876274 17686592 17511552 
2321.074 17349272 17196532 17050532 16909922 16774176 16642157 16510800 
2324.449 16374869 16228903 16068408 15892232 15703037 15506337 15307906 
2327.824 15113168 14925650 14747914 14582826 14435509 14311733 14217914 
2331.200 14156668 14125622 14116551 14118023 14118845 14110834 14091291 
2334.575 14061309 14023801 13980308 13930113 13870448 13798819 13715165 
2337.950 13622945 13528762 13439384 13359968 13292250 13235098 13186218 
2341.325 13144858 13112483 13093565 13094418 13123376 13190522 13307316 
2344.701 13487027 13740335 14070139 14467160 14906858 15352014 15755912 
2348.076 16075492 16274720 16330555 16236369 16001299 15648453 15207627 
2351.451 14713706 14199940 13691775 13208113 12760918 12356827 11998720 
2354.826 11685834 11414639 11177166 10964325 10767856 10582883 10409223 
2358.202 10250525 10111351 9995074 9901538 9828291 9772203 9731979 9708531 
2362.059 9705923 9728252 9778234 9855982 9959034 10083677 10226913 10386553 
2365.917 10561596 10751246 10954436 11169245 11394298 11628859 11873321 
2369.292 12128652 12395760 12673540 12960133 13252554 13548042 13846125 
2372.667 14148111 14456164 14772903 15099342 15434507 15776183 16121430 
2376.042 16468054 16814814 17161062 17505928 17847824 18184012 18511330 
2379.417 18826544 19127548 19413446 19683476 19936992 20172152 20386676 
2382.793 20578442 20746174 20890676 21014600 21121692 21215728 21298996 
2386.168 21372532 21436232 21489772 21533850 21570342 21601578 21630238 
2389.543 21657648 21684084 21709092 21731664 21752008 21770924 21789494 
2392.918 21808342 21826912 21843566 21856284 21863740 21865868 21864088 
2396.294 21860638 21857328 21855100 21853566 21851962 21849488 21846422 
2399.669 21843846 21843078 21844542 21847260 21849176 21848060 21843008 
2403.044 21834820 21826564 21821720 21823182 21832102 21847260 21865728 
2406.419 21884996 21902944 21918972 21933052 21945076 21954730 21960724 
2409.795 21962468 21960550 21957134 21956090 21960934 21973898 21994498 
2413.170 22019594 22045738 22069060 22088304 22103750 22117312 22130560 
2416.545 22143810 22155664 22164276 22168112 22167380 22163126 22158036 
2419.920 22153572 22149980 22145972 22139382 22128538 22113616 22096636 
2423.296 22079902 22065888 22055430 22047480 22040648 22033852 22027508 
2426.671 22023324 22023812 22030192 22041800 22056022 22068782 22076382 
2430.046 22077148 22071046 22059856 22046436 22032318 22018444 22005058 
2433.421 21992198 21980800 21971842 21966650 21965324 21966580 21967276 
2436.797 21964560 21956124 21941416 21921552 21898726 21874648 21850220 
2440.172 21825378 21799664 21773362 21747724 21725394 21708396 21697770 
2443.547 21692966 21691396 21690318 21687184 21681402 21673494 21664822 
2446.922 21656430 21648174 21639364 21628706 21616344 21603528 21592454 
2450.298 21584828 21581206 21579708 21577132 21570306 21557666 21539944 
2453.673 21520064 21502028 21488484 21480372 21476022 21472018 21465856 
2457.048 21455970 21443090 21429722 21418582 21411900 21410750 21415242 
2460.423 21424778 21439156 21457884 21480756 21506520 21533154 21558294 
2463.799 21580230 21598130 21613176 21627628 21643646 21662592 21684258 
2467.174 21706584 21726962 21743508 21755490 21763156 21768172 21771760 
2470.549 21774268 21775696 21775872 21774756 21773294 21772666 21773676 
2473.924 21776602 21780364 21783222 21783534 21780712 21774826 21766986 
2477.300 21758416 21749290 21739432 21728600 21716826 21705818 21698014 
2480.675 21696168 21701674 21713864 21729574 21744798 21755978 21761694 
2484.050 21762912 21762772 21764864 21771864 21784582 21802070 21822450 
2487.425 21844472 21867574 21891756 21917372 21943716 21969194 21991222 
2490.801 22007986 22019072 22025590 22030052 22034514 22040440 22047480 
2494.176 22054208 22059334 22062332 22063900 22065574 22068502 22072582 
2497.551 22076206 22076974 22073138 22064040 22051456 22038244 22027648 
2500.926 22021616 22020152 22021442 22023848 22025660 22026984 22028936 
2504.302 22033050 22039672 22048632 22058324 22066898 22073486 22078262 
2507.677 22082098 22086004 22090188 22093220 22093394 22088722 22077742 
2511.052 22060728 22039256 22014750 21988712 21962048 21934900 21907926 
2514.427 21881930 21858480 21838898 21823810 21812452 21803082 21794056 
2517.802 21784232 21774024 21765072 21758836 21756118 21755562 21754236 
2521.178 21748488 21736018 21716234 21691572 21665136 21640546 21619442 
2524.553 21601752 21585212 21567558 21547536 21525146 21502132 21479850 
2527.928 21459416 21440166 21421018 21399996 21376048 21349178 21319910 
2531.303 21288728 21255392 21219102 21178606 21133660 21085796 21037730 
2534.679 20993458 20956146 20927774 20907676 20893838 20883340 20873570 
2538.054 20862932 20850834 20836964 20821114 20802968 20781938 20758374 
2541.429 20733522 20709056 20686850 20668226 20653212 20640774 20629864 
2544.804 20619510 20610162 20602832 20598768 20598872 20602346 20607626 
2548.180 20612734 20616382 20618744 20620932 20624582 20630592 20638828 
2551.555 20648314 20657904 20667114 20676912 20688762 20704712 20725426 
2554.930 20750066 20776724 20803280 20827820 20850488 20872770 20896342 
2558.305 20922628 20951800 20982852 21014880 21047258 21080264 21114978 
2561.681 21152270 21190920 21228740 21262142 21288278 21306406 21318518 
2565.056 21328400 21341384 21360804 21387638 21419940 21454298 21487196 
2568.431 21516686 21543286 21568532 21594404 21621914 21650124 21677396 
2571.806 21701498 21721736 21738248 21752600 21766430 21780748 21795730 
2575.182 21810606 21824612 21837852 21850884 21864298 21878342 21892210 
2578.557 21903920 21911654 21914268 21912142 21907056 21901618 21897610 
2581.932 21895834 21895312 21894476 21891792 21887122 21881512 21877086 
2585.307 21876006 21879246 21886808 21897506 21909914 21923050 21936746 
2588.683 21951558 21968114 21987074 22008230 22031342 22055952 22081994 
2592.058 22109222 22137568 22166054 22193636 22219024 22241170 22260316 
2595.433 22277372 22293938 22310926 22328750 22346086 22361190 22372180 
2598.808 22378634 22381006 22381110 22380622 22380448 22380274 22378600 
2602.184 22373540 22364296 22351214 22336040 22321110 22308168 22297776 
2605.559 22289578 22282324 22275070 22267640 22260700 22255086 22251284 
2608.934 22248946 22246994 22244240 22239950 22234474 22229104 22225338 
2612.309 22224116 22225198 22227568 22229032 22227952 22223384 22215502 
2615.685 22205180 22193636 22181468 22169228 22156918 22144610 22132688 
2619.060 22121670 22111836 22103294 22095660 22088688 22081854 22075614 
2622.435 22070246 22066446 22063900 22061740 22057660 22050096 22037580 
2625.810 22020326 22000178 21979998 21962396 21949154 21940266 21934586 
2629.186 21930020 21924794 21918068 21909738 21900642 21891374 21882418 
2632.561 21874332 21867364 21862486 21861058 21864404 21873324 21887646 
2635.936 21905764 21925698 21945460 21964104 21981984 22000214 22020326 
2639.311 22042984 22067944 22093532 22118182 22140322 22159884 22177282 
2642.687 22194020 22211352 22229836 22249504 22270116 22291080 22312600 
2646.062 22334854 22358714 22384286 22410904 22437630 22462892 22485328 
2649.437 22504242 22519702 22532300 22542734 22551774 22559312 22565454 
2652.812 22569468 22571458 22570830 22567828 22562350 22554600 22545038 
2656.188 22534742 22524832 22517050 22512340 22511606 22514606 22520538 
2659.563 22528320 22537396 22548004 22560778 22577216 22598506 22624720 
2662.938 22655474 22689126 22724004 22758466 22791918 22823660 22853904 
2666.313 22882544 22909402 22934272 22957082 22977764 22996662 23014272 
2669.688 23030552 23045016 23057140 23066086 23071398 23073704 23074192 
2673.064 23074752 23076918 23081984 23090266 23101518 23115286 23130872 
2676.439 23148172 23167288 23188154 23210908 23235446 23261348 23288510 
2679.814 23317492 23348540 23381968 23417740 23454950 23492266 23528292 
2683.189 23561978 23593532 23623376 23652834 23683134 23715014 23748468 
2686.565 23782940 23818012 23853680 23890122 23928632 23969842 24014242 
2689.940 24062114 24113074 24166948 24223384 24282630 24345146 24411244 
2693.315 24481386 24555394 24633834 24717128 24806086 24901974 25005500 
2696.690 25116704 25234678 25357708 25483480 25610376 25737132 25863506 
2700.066 25989634 26115694 26241226 26364786 26484404 26597398 26701468 
2703.441 26794360 26874826 26941628 26994194 27032382 27056996 27069374 
2706.816 27071630 27066376 27056044 27042116 27025296 27005408 26982032 
2710.191 26954954 26925094 26893966 26863652 26836124 26812580 26793408 
2713.567 26778324 26766800 26758482 26753162 26751436 26753480 26759682 
2716.942 26770148 26784950 26804544 26829780 26861184 26899324 26943356 
2720.317 26991446 27041128 27089300 27133984 27174194 27210598 27244430 
2723.692 27277486 27310372 27342624 27372758 27398768 27419132 27433108 
2727.068 27441720 27446062 27448320 27450368 27453120 27457286 27463074 
2730.443 27470134 27477864 27486088 27493926 27500950 27506456 27510446 
2733.818 27512918 27514716 27516306 27518424 27521282 27524850 27528838 
2737.193 27533074 27537804 27543312 27550548 27560468 27573356 27590056 
2740.569 27610818 27635994 27666432 27702630 27745224 27794570 27850348 
2743.944 27911860 27977904 28047456 28119316 28192922 28267530 28342824 
2747.319 28418378 28494370 28570764 28648234 28728088 28811214 28898572 
2750.694 28990658 29087404 29188388 29293262 29401882 29514536 29631798 
2754.070 29754126 29881532 30013376 30148636 30286032 30424612 30563802 
2757.445 30703464 30843920 30985450 31127812 31271182 31414848 31558738 
2760.820 31702608 31846416 31989842 32132354 32273096 32411024 32545172 
2764.195 32675080 32800592 32921818 33038962 33152066 33260976 33365152 
2767.571 33464096 33557836 33646512 33730264 33809732 33885024 33956356 
2770.946 34023792 34087616 34148152 34206260 34263016 34318556 34373568 
2774.321 34427720 34481060 34534188 34588368 34645316 34707436 34776640 
2777.696 34854072 34939888 35033912 35135284 35243508 35358408 35480060 
2781.072 35608832 35744368 35885996 36032928 36184116 36339184 36498336 
2784.447 36662488 36832220 37007540 37188128 37372548 37558672 37744732 
2787.822 37928732 38109308 38285612 38457000 38622980 38783552 38938856 
2791.197 39089796 39237452 39383448 39529064 39675088 39822144 39969500 
2794.573 40117164 40264476 40410932 40556340 40700056 40841016 40978236 
2797.948 41110580 41237788 41360296 41479488 41596928 41714248 41832076 
2801.323 41950116 42066880 42180644 42289464 42392104 42488088 42577216 
2804.698 42659744 42736220 42806424 42870748 42929304 42982820 43031440 
2808.073 43075416 43114676 43148272 43175572 43196396 43211292 43221688 
2811.449 43230324 43239732 43252284 43269456 43291452 43318360 43349112 
2814.824 43383128 43419964 43459072 43499728 43540784 43580564 43617416 
2818.199 43649656 43676584 43697800 43713668 43724624 43731032 43732868 
2821.574 43729608 43721288 43707732 43689300 43666364 43639508 43609688 
2824.950 43577560 43543824 43509980 43477424 43447828 43422856 43403632 
2828.325 43390524 43383860 43383312 43388696 43400556 43419672 43447244 
2831.700 43484160 43531260 43588696 43656580 43735032 43824232 43925072 
2835.075 44038440 44165044 44305300 44458852 44624240 44800236 44985416 
2838.451 45178804 45379964 45589200 45807084 46034472 46272404 46521200 
2841.826 46781468 47053232 47336176 47629984 47933728 48245792 48563860 
2845.201 48884240 49202032 49510816 49803168 50071096 50306160 50500888 
2848.576 50648788 50744636 50784932 50767948 50693212 50562196 50377188 
2851.952 50142684 49863256 49544720 49192128 48810268 48402188 47970252 
2855.327 47515528 47039200 46542668 46028904 45501404 44964984 44424164 
2858.702 43883540 43347284 42818528 42301008 41798112 41313760 40852300 
2862.077 40417512 40012332 39639440 39299760 38993876 38721424 38481908 
2865.453 38274252 38096900 37947864 37824504 37724492 37645384 37585372 
2868.828 37543320 37518280 37509432 37515612 37534900 37564992 37603292 
2872.203 37647120 37694060 37742200 37790088 37836868 37882348 37926600 
2875.578 37970352 38014584 38060080 38107208 38156120 38206264 38256556 
2878.954 38306496 38355248 38402876 38449576 38495480 38540740 38584736 
2882.329 38626564 38665280 38700052 38730880 38757504 38780980 38801888 
2885.704 38820940 38838480 38854856 38870256 38884644 38898232 38910376 
2889.079 38920448 38927516 38930556 38929036 38923276 38914176 38903268 
2892.455 38891928 38880912 38869856 38857792 38842680 38823188 38798192 
2895.830 38767792 38732620 38694256 38653944 38613128 38573036 38534512 
2899.205 38498452 38465504 38436252 38410844 38389268 38371280 38356224 
2902.580 38344240 38335592 38330600 38330492 38336572 38349960 38371824 
2905.956 38403636 38446752 38502508 38572712 38658944 38762868 38886056 
2909.331 39029656 39195420 39384320 39596568 39831260 40085620 40355256 
2912.706 40633904 40914188 41189224 41452404 41698488 41923736 42125472 
2916.081 42301956 42451948 42574984 42671588 42743208 42792784 42824412 
2919.457 42842408 42850820 42853156 42851040 42844820 42833448 42814468 
2922.832 42784556 42739844 42676340 42589644 42476904 42335304 42163480 
2926.207 41961248 41729056 41467716 41178696 40863988 40526696 40171680 
2929.582 39806488 39440812 39085628 38752756 38452220 38191864 37976320 
2932.958 37807080 37682932 37601048 37557516 37548088 37567884 37612396 
2936.333 37676752 37756404 37847460 37946812 38051976 38161472 38274104 
2939.708 38389484 38506668 38625004 38743700 38862252 38979852 39096320 
2943.083 39211340 39324792 39437112 39548808 39660348 39773116 39888208 
2946.458 40007320 40132316 40265640 40410200 40568564 40742708 40932756 
2949.834 41136256 41346960 41554992 41748572 41913372 42036216 42106708 
2953.209 42117112 42064248 41948512 41773632 41544968 41269308 40954820 
2956.584 40609312 40241684 39860784 39474812 39091608 38717696 38357924 
2959.959 38015884 37693736 37392916 37113596 36855808 36618508 36400176 
2963.335 36199100 36013272 35840692 35679508 35528460 35386156 35251448 
2966.710 35123068 34999936 34881216 34766408 34655364 34548756 34447196 
2970.085 34351656 34263300 34182744 34110516 34047012 33992116 33945604 
2973.460 33907520 33878148 33858124 33848952 33852676 33871380 33906984 
2976.836 33960476 34031208 34118044 34218844 34331536 34454624 34587508 
2980.211 34730116 34882692 35045116 35216484 35395180 35578980 35765380 
2983.586 35951896 36135540 36313640 36482588 36638804 36778340 36897796 
2986.961 36994948 37068848 37119840 37149616 37159652 37151424 37125364 
2990.337 37081368 37018728 36937368 36837628 36721512 36592336 36455200 
2993.712 36316088 36181200 36056324 35945776 35851988 35774948 35713000 
2997.087 35663968 35625412 35596316 35577720 35571864 35581356 35607968 
3000.462 35651924 35711020 35781932 35860520 35943652 36029508 36117712 
3003.838 36208716 36302904 36400176 36499380 36599508 36699444 36799440 
3007.213 36901040 37006168 37116704 37233108 37354676 37478876 37602676 
3010.588 37723440 37839544 37950900 38058416 38163716 38268860 38375264 
3013.963 38484040 38595600 38710268 38827864 38947916 39069964 39193280 
3017.339 39316880 39440336 39563248 39685836 39808632 39932448 40058112 
3020.714 40186872 40319516 40457008 40599960 40747948 40899628 41053176 
3024.089 41205436 41353704 41496076 41632224 41762832 41890056 42015960 
3027.464 42141428 42266240 42388744 42506868 42619280 42726460 42830412 
3030.840 42935012 43044756 43162432 43289700 43425604 43567704 43712604 
3034.215 43857624 44000820 44141680 44281048 44420716 44562592 44709216 
3037.590 44862656 45025220 45198732 45384376 45582432 45792392 46012332 
3040.965 46239892 46472300 46706640 46939920 47169080 47390088 47598372 
3044.341 47789080 47957116 48098820 48212656 48299780 48363924 48411076 
3047.716 48448636 48483236 48520360 48563492 48614148 48672260 48736604 
3051.091 48806376 48880496 48958596 49040640 49126636 49216324 49308772 
3054.466 49403208 49498376 49593376 49687652 49780796 49872920 49964324 
3057.842 50055076 50145140 50234252 50322344 50409076 50494152 50577568 
3061.217 50659176 50738716 50816444 50892504 50967356 51041920 51117092 
3064.592 51193692 51271724 51350704 51428692 51503968 51574224 51638252 
3067.967 51695840 51747980 51796508 51843700 51891412 51940668 51991684 
3071.343 52043972 52096868 52150440 52205328 52262648 52324316 52392052 
3074.718 52466596 52548336 52636372 52729368 52825412 52922828 53019852 
3078.093 53115512 53209324 53301128 53391080 53480004 53568268 53656252 
3081.468 53743692 53829420 53911116 53986000 54050464 54101428 54137192 
3084.844 54157500 54164256 54161100 54152432 54143088 54136816 54135920 
3088.219 54141436 54153336 54171128 54194696 54224504 54261824 54307776 
3091.594 54363012 54427232 54498936 54576288 54657300 54740880 54827332 
3094.969 54917940 55014320 55117948 55229196 55346720 55467780 55588456 
3098.344 55704916 55813788 55912632 56000824 56079164 56149780 56215472 
3101.720 56279404 56344812 56413816 56488072 56568496 56654900 56747172 
3105.095 56845436 56949608 57060120 57177880 57303232 57436860 57579952 
3108.470 57734336 57903156 58091512 58306436 58556464 58850152 59197044 
3111.845 59605864 60084196 60639632 61279328 62009580 62836132 63762456 
3115.221 64789056 65910720 67115976 68385168 69687760 70984136 72224784 
3118.596 73349200 74295216 74999504 75404360 75467632 75165440 74496640 
3121.971 73482336 72165344 70604624 68863144 67009412 65106780 63207500 
3125.346 61357056 59589864 57929544 56392948 54988220 53716768 52573576 
3128.722 51550232 50635424 49817100 49084600 48428600 47840612 47314300 
3132.097 46842700 46419348 46038300 45693620 45379924 45092780 44828048 
3135.472 44581724 44350544 44131156 43920600 43716524 43517088 43320780 
3138.847 43126604 42933840 42742256 42552324 42365036 42181808 42004608 
3142.223 41834340 41671320 41514340 41361172 41209188 41056164 40900392 
3145.598 40741432 40579660 40416060 40251320 40086128 39921004 39756596 
3148.973 39593520 39432468 39273720 39116772 38960348 38802540 38641376 
3152.348 38475748 38305736 38132820 37959036 37786476 37616228 37448464 
3155.724 37282168 37115836 36948372 36779460 36609244 36438768 36268648 
3159.099 36099172 35930228 35761460 35592468 35423508 35255008 35087396 
3162.474 34921324 34756932 34593748 34431452 34269644 34108368 33947652 
3165.849 33787960 33629004 33470682 33312704 33154712 32997064 32840222 
3169.225 32685116 32532674 32383710 32238438 32096714 31958458 31823348 
3172.600 31691450 31562802 31437322 31314448 31193526 31073710 30954388 
3175.975 30835062 30716054 30597824 30480658 30364520 30249052 30133506 
3179.350 30017106 29899422 29780172 29659396 29537518 29414432 29290710 
3182.726 29166632 29042908 28920352 28800308 28683380 28569632 28458530 
3186.101 28348802 28238676 28127236 28013808 27898610 27782276 27665798 
3189.476 27549454 27432650 27315204 27196170 27075124 26952416 26828898 
3192.851 26705310 26582460 26460810 26339720 26219052 26098134 25976654 
3196.227 25854784 25733408 25612976 25494196 25377660 25263828 25152516 
3199.602 25043828 24937416 24832608 24729228 24626398 24523874 24421830 
3202.977 24320370 24219670 24120148 24021526 23923452 23825152 23726142 
3206.352 23626104 23525284 23424140 23323332 23223664 23125454 23029014 
3209.728 22934552 22842484 22752810 22665876 22581650 22499636 22419278 
3213.103 22340052 22261606 22184256 22108874 22035872 21965604 21897438 
3216.478 21830150 21761830 21690666 21615926 21537820 21457744 21377718 
3219.853 21299656 21225052 21154008 21086040 21020062 20954512 20888312 
3223.229 20820660 20750830 20679066 20605714 20531682 20458530 20387576 
3226.604 20320214 20257476 20199678 20146434 20097222 20051312 20008114 
3229.979 19967416 19928944 19891896 19855268 19817290 19775294 19727164 
3233.354 19670892 19606134 19533658 19455580 19375262 19295794 19221118 
3236.729 19153968 19096074 19048122 19009280 18977608 18950196 18923926 
3240.105 18896204 18865404 18830558 18792084 18750566 18707392 18663426 
3243.480 18619570 18576582 18535086 18495634 18458120 18422096 18385802 
3246.855 18347226 18304126 18254708 18198626 18136922 18071666 18005524 
3250.230 17941120 17879966 17822762 17769428 17719516 17672650 17628410 
3253.606 17586348 17545844 17505446 17463672 17419384 17372102 17322204 
3256.981 17271242 17221180 17173264 17128490 17086546 17046638 17008080 
3260.356 16970108 16932728 16896038 16860108 16824286 16787538 16748829 
3263.731 16707541 16663676 16619092 16576095 16537337 16505085 16480375 
3267.107 16463304 16452190 16444996 16438356 16429098 16413612 16388770 
3270.482 16352814 16305579 16249025 16186805 16123150 16062668 16007520 
3273.857 15958639 15914366 15872642 15830854 15787935 15744299 15701422 
3277.232 15660647 15623069 15588207 15554653 15520760 15485322 15448172 
3280.608 15410646 15374086 15340067 15309210 15281444 15255945 15231922 
3283.983 15208793 15186421 15164735 15143772 15122945 15101847 15080303 
3287.358 15058726 15038728 15022126 15010155 15003364 15000312 14998390 
3290.733 14994240 14984946 14968930 14946432 14919237 14889816 14860088 
3294.109 14831356 14803483 14774995 14744828 14711923 14676072 14638374 
3297.484 14600301 14563363 14529238 14498917 14472881 14451677 14435749 
3300.859 14425438 14421396 14423829 14432392 14445682 14461200 14475382 
3304.234 14484289 14483569 14470038 14441606 14398071 14340465 14271532 
3307.610 14194394 14112238 14027873 13944278 13863127 13786471 13716020 
3310.985 13652931 13597611 13550195 13509723 13474996 13444921 13418367 
3314.360 13394856 13374524 13356927 13341790 13328192 13315585 13303626 
3317.735 13292694 13284016 13279507 13280668 13288492 13302533 13321803 
3321.111 13344046 13367383 13390311 13412455 13433608 13454046 13473219 
3324.486 13490035 13503468 13511910 13514679 13512321 13505929 13498068 
3327.861 13490993 13486891 13487130 13492325 13502067 13515260 13530334 
3331.236 13545238 13558468 13568689 13575047 13577885 13578296 13578124 
3334.612 13578774 13581338 13585885 13591355 13595287 13595252 13588141 
3337.987 13571560 13543871 13504425 13453909 13393899 13326996 13255935 
3341.362 13183315 13111288 13040672 12971331 12902138 12832068 12760440 
3344.737 12687527 12614456 12543308 12475682 12412773 12354611 12300378 
3348.113 12248024 12195814 12141600 12083611 12020826 11952227 11877543 
3351.488 11797527 11713509 11627770 11543410 11463829 11391134 11326885 
3354.863 11270739 11221197 11176011 11133175 11090651 11047586 11003506 
3358.238 10957970 10911045 10862800 10813304 10763270 10713650 10665393 
3361.614 10619586 10576874 10537492 10501578 10469704 10442517 10421237 
3364.989 10406678 10399075 10396631 10396666 10394664 10386282 10367922 
3368.364 10337654 10295275 10242586 10182034 10116676 10048885 9980732 
3371.739 9914149 9850592 9791655 9738553 9692302 9653407 9621359 9595851 
3375.597 9575900 9560251 9547955 9537557 9527363 9515949 9501487 9482963 
3379.454 9460070 9433657 9405214 9376435 9348977 9323891 9301549 9281984 
3383.312 9265059 9250775 9239065 9229993 9223529 9219400 9217268 9216963 
3387.169 9218621 9222412 9227997 9234359 9239065 9238963 9230738 9211954 
3391.026 9182104 9142985 9098083 9052170 9009104 8971286 8939153 8911554 
3394.884 8886865 8864038 8843443 8826570 8815276 8811016 8813552 8820686 
3398.741 8829140 8834111 8832352 8821566 8801346 8772741 8737850 8699142 
3402.599 8658782 8618053 8577903 8538871 8501397 8466259 8434298 8406663 
3406.456 8384503 8368052 8357413 8351535 8349104 8348360 8347887 8346469 
3410.313 8343429 8338498 8331067 8320765 8306782 8288207 8264669 8236437 
3414.171 8205034 8172653 8142132 8115732 8095241 8080657 8071037 8064287 
3418.028 8058311 8050683 8039916 8025909 8008932 7990605 7972853 7957870 
3421.886 7947375 7942009 7941098 7943021 7945586 7946024 7942987 7935799 
3425.743 7925609 7913799 7902224 7891765 7882149 7871891 7859340 7843246 
3429.601 7823241 7800098 7775877 7752198 7730240 7710306 7691318 7672634 
3433.458 7653209 7633313 7613755 7595917 7580947 7569449 7561155 7555221 
3437.315 7550197 7544466 7536509 7524777 7507921 7484728 7455165 7420110 
3441.173 7381621 7342865 7307550 7278067 7255628 7239085 7225541 7211459 
3445.030 7193806 7170697 7142807 7112796 7083932 7059886 7043014 7034292 
3448.888 7032608 7035571 7040118 7042879 7041263 7033046 7018263 6997722 
3452.745 6973479 6948597 6925838 6907053 6892644 6881602 6871840 6860698 
3456.603 6846560 6829192 6809098 6788331 6768509 6750436 6734317 6718938 
3460.460 6702988 6686096 6668230 6650768 6635560 6624054 6617022 6613927 
3464.317 6612851 6611606 6607670 6599562 6586274 6568445 6547253 6524279 
3468.175 6501105 6478974 6458325 6439156 6420963 6403242 6385320 6367230 
3472.032 6349477 6332364 6316394 6301366 6286776 6271682 6255681 6238471 
3475.890 6221060 6205061 6192020 6183046 6177837 6174106 6168762 6158546 
3479.747 6141104 6116068 6085658 6053670 6024440 6001427 5985873 5976869 
3483.604 5971629 5966792 5959670 5948652 5934040 5916607 5897664 5878352 
3487.462 5858805 5839092 5819279 5800239 5783449 5770690 5763739 5762765 
3491.319 5766560 5772436 5776767 5776297 5768507 5753633 5732749 5708543 
3495.177 5684069 5661410 5641940 5625694 5611865 5599748 5589008 5579308 
3499.034 5570548 5562259 5553298 5541753 5525612 5503195 5474807 5442026 
3502.892 5408710 5379758 5359865 5352116 5356880 5372579 5394787 5418104 
3506.749 5437932 5450716 5454943 5451856 5444408 5437060 5433671 5437329 
3510.606 5449642 5469841 5495511 5523396 5549875 5571891 5587329 5595250 
3514.464 5596089 5590585 5580147 5566353 5550445 5534337 5519470 5507927 
3518.321 5501047 5499537 5503095 5509873 5517222 5522457 5522927 5517893 
3522.179 5507624 5494772 5481988 5472291 5467392 5468163 5474002 5483833 
3526.036 5496618 5511819 5529504 5550311 5574643 5602668 5634287 5669097 
3529.894 5706831 5747354 5790534 5835767 5881845 5926416 5966422 5998638 
3533.751 6020744 6031663 6032436 6025885 6016074 6006768 6001695 6002569 
3537.608 6009859 6022693 6039458 6058139 6077022 6094125 6107331 6114724 
3541.466 6114321 6104542 6084717 6054645 6015638 5969748 5919832 5869653 
3545.323 5823611 5786068 5761926 5755043 5766593 5795538 5836607 5882281 
3549.181 5922855 5949659 5956378 5940792 5905658 5857596 5805880 5759139 
3553.038 5722845 5698773 5684572 5675509 5666613 5654629 5637711 5616531 
3556.896 5592431 5566487 5539270 5509705 5476753 5439778 5398846 5356343 
3560.753 5315051 5277955 5246731 5220204 5194215 5161857 5114583 5044317 
3564.610 4945440 4817404 4666899 4507840 4359417 4242360 4173841 4161129 
3568.468 4201341 4281442 4384485 4491804 4589070 4667133 4722398 4755729 
3572.325 4770769 4771942 4762596 4745109 4720120 4687932 4649215 4605043 
3576.183 4557460 4508711 4460871 4415547 4373808 4336090 4302691 4273646 
3580.040 4248952 4228508 4211479 4196724 4182840 4167318 4147648 4120251 
3583.897 4081183 4025966 3951128 3855944 3743802 3622802 3507280 3413629 
3587.755 3357094 3347177 3384075 3458682 3555750 3658019 3749417 3817568 
3591.612 3856244 3863565 3842605 3799151 3741162 3676898 3613647 3557621 
3595.470 3512591 3480158 3459583 3448361 3442016 3436138 3427087 3412861 
3599.327 3394493 3375593 3361334 3357094 3366343 3389584 3423414 3462790 
3603.185 3500532 3529426 3544358 3541118 3517835 3474680 3413595 3339230 
3607.042 3258234 3180223 3115008 3071059 3052340 3056777 3075764 3096721 
3610.899 3107500 3098957 3068156 3018806 2960354 2904412 2860251 2831801 
3614.757 2815860 2804121 2785013 2747865 2685616 2596808 2486191 2364475 
3618.614 2247156 2150346 2087250 2065909 2085918 2139957 2215316 2298283 
3622.472 2376002 2438807 2482092 2505120 2509219 2495022 2459932 2397358 
3626.329 2298016 2153243 1962949 1740501 1518367 1341048 1248394 1261088 
3630.187 1369732 1543106 1740136 1926072 2077162 2182713 2244325 2272668 
3634.044 2282228 2285392 2289456 2295685 2300815 2301148 2294419 2282161 
3637.901 2268072 2256315 2249054 2245990 2244424 2240927 2233434 2222743 
3641.759 2211353 2202494 2197599 2194335 2186809 2166163 2123674 2052925 
3645.616 1951632 1822879 1674737 1517536 1362386 1219220 1095931 1000308 
3649.474 941429 929276 972744 1075170 1229653 1419327 1619426 1803148 
3653.331 1943944 2023098 2032319 1976662 1875454 1760030 1666322 1622020 
3657.188 1640046 1715153 1830265 1961984 2088382 2195235 2274267 2325065 
3661.046 2352648 2365074 2371271 2378601 2392260 2414350 2444471 2479493 
3664.903 2515018 2545879 2566143 2570443 2553678 2512285 2445604 2358678 
3668.761 2265707 2189806 2161401 2210521 2354081 2590175 2897407 3244747 
3672.618 3596140 3919832 4192275 4396099 4523141 4573934 4556858 4482229 
3676.476 4357844 4186420 3967880 3704802 3407384 3094518 2792749 2531081 
3680.333 2329629 2196267 2123941 2095706 2091978 2096838 2102765 2108125 
3684.190 2113419 2116483 2109590 2079592 2012845 1898715 1737075 1540014 
3688.048 1333038 1146458 1006950 929044 913604 951292 1028670 1133701 
3691.905 1255838 1385520 1513912 1631333 1728825 1799821 1841745 1857052 
3695.763 1851927 1835256 1815292 1796560 1779093 1758666 1729357 1685714 
3699.620 1625379 1551386 1471920 1398783 1344305 1318580 1326590 1366840 
3703.478 1432724 1514743 1602132 1684716 1754940 1806941 1837120 1844041 
3707.335 1827204 1787311 1726097 1645933 1550854 1446187 1340150 1243775 
3711.192 1169548 1130778 1137588 1194233 1297045 1434951 1591490 1747355 
3715.050 1884971 1990409 2054723 2076529 2060416 2016107 1954362 1884772 
3718.907 1812764 1739337 1663129 1583675 1502906 1427637 1366674 1327786 
3722.765 1314725 1324396 1348194 1374252 1393099 1400113 1398617 1397653 
3726.622 1409354 1443727 1503239 1582312 1667387 1742132 1789540 1796593 
3730.479 1757734 1675469 1560663 1428568 1294818 1169714 1055773 949930 
3734.337 848894 754155 676162 631363 635578 697932 814269 969589 1143335 
3738.677 1318082 1481195 1627275 1755039 1862975 1944543 1987081 1970937 
3742.534 1876718 1695626 1443062 1167123 936648 817489 836611 974271 1178551 
3746.874 1391504 1565219 1666222 1682621 1621255 1507162 1373188 1251385 
3750.731 1164631 1122772 1127489 1176724 1266970 1391803 1540147 1696824 
3754.588 1843043 1961385 2040108 2074132 2067407 2030588 1978326 1924574 
3758.446 1879380 1849798 1840414 1855421 1898948 1972335 2071469 2184844 
3762.303 2296584 2388862 2446837 2464364 2446004 2405821 2361876 2330728 
3766.161 2319269 2322933 2328629 2321567 2291721 2238463 2171557 2107260 
3770.018 2064311 2054723 2081190 2137027 2209821 2285925 2354114 2407387 
3773.875 2443672 2464164 2471296 2467963 2455467 2432942 2398124 2348550 
3777.733 2285059 2211952 2140290 2083354 2055788 2066841 2116183 2194069 
3781.590 2284526 2369838 2435475 2474261 2486891 2481493 2468796 2459033 
3785.448 2458533 2468030 2484392 2503520 2522250 2539247 2554845 2569410 
3789.305 2582576 2592742 2598142 2598142 2593475 2586042 2577243 2566377 
3793.163 2549745 2521383 2476261 2412751 2336225 2258213 2194335 2159070 
3797.020 2158138 2186110 2225607 2253817 2246223 2184112 2061048 1887700 
3800.877 1694396 1522158 1413842 1393697 1459818 1586868 1736443 1870462 
3804.735 1956126 1974965 1926438 1830099 1720675 1638250 1614072 1657608 
3808.592 1757867 1889930 2028823 2154708 2257847 2337990 2399390 2446137 
3812.450 2477027 2485091 2458700 2387929 2270470 2118613 1957524 1823511 
3816.307 1747122 1740701 1793499 1876419 1953530 1990143 1963814 1868332 
3820.165 1718645 1548293 1403603 1327454 1340516 1437112 1589129 1761627 
3824.022 1920247 2041640 2116649 2148914 2153210 2148648 2152277 2172890 
3827.879 2207490 2244757 2270504 2273201 2248254 2199930 2139025 2080524 
3831.737 2037013 2016207 2019236 2040841 2072001 2101533 2118547 2112454 
3835.594 2074465 1999929 1889996 1754740 1611577 1484321 1394894 1356403 
3839.452 1370662 1428036 1512881 1607387 1697955 1776398 1840580 1894023 
3843.309 1942313 1991974 2047033 2109224 2176419 2245357 2310974 2368606 
3847.167 2415250 2449136 2470629 2480559 2478927 2461832 2421447 2344486 
3851.024 2215183 2021200 1761793 1456759 1150810 906498 777058 784958 914500 
3855.364 1126260 1375515 1625712 1854889 2051128 2209854 2330228 2412384 
3859.221 2456634 2464164 2439040 2388129 2320235 2245523 2172090 2103464 
3863.078 2041873 1988412 1947372 1927603 1937887 1983952 2061348 2154974 
3866.936 2240994 2292654 2289956 2225707 2111622 1977062 1862742 1803447 
3870.793 1812930 1880212 1977361 2074299 2147016 2187342 2201362 2207456 
3874.651 2226606 2272868 2348850 2444171 2539980 2614242 2649511 2634609 
3878.508 2568877 2462232 2334826 2214117 2125972 2089447 2109157 2175420 
3882.365 2265541 2351382 2407853 2416849 2374736 2293553 2200996 2131133 
3886.223 2110856 2150912 2241793 2358978 2471395 2552412 2584309 2561611 
3890.080 2492656 2397091 2301980 2231535 2202428 2218513 2273601 2353648 
3893.938 2443605 2530648 2604742 2659245 2690750 2697085 2677381 2632576 
3897.795 2565177 2480493 2386230 2292154 2207656 2138825 2087649 2051128 
3901.653 2023297 1997899 1971903 1947605 1932462 1935623 1965978 2026793 
3905.510 2115084 2221943 2335558 2445004 2541846 2621875 2684616 2732361 
3909.367 2767973 2794517 2814426 2829200 2840272 2848744 2855548 2860217 
3913.225 2860884 2854581 2838105 2809390 2769640 2723091 2677481 2640210 
3917.082 2617609 2611675 2620342 2638443 2660579 2682849 2704153 2724758 
3920.940 2745265 2764938 2781078 2789781 2787647 2773841 2751267 2726892 
3924.797 2708321 2702353 2711522 2733428 2761504 2786914 2802620 2803587 
3928.655 2788914 2760770 2723758 2683916 2646644 2617575 2601675 2602742 
3932.512 2623776 2664946 2723892 2794684 2870123 2942273 3004526 3053307 
3936.369 3087978 3110737 3124386 3131695 3132997 3126656 3109168 3076665 
3940.227 3027615 2963257 2888802 2812625 2744764 2694618 2667913 2665813 
3944.084 2684549 2716423 2751633 2781111 2798752 2801787 2791949 2774475 
3947.942 2756702 2745598 2746065 2760236 2786513 2821296 2859650 2897374 
3951.799 2931298 2959987 2982907 3000756 3014102 3023678 3030050 3033887 
3955.656 3035890 3037424 3038726 3040527 3042362 3043264 3042463 3038959 
3959.514 3032319 3023177 3012500 3002157 2993616 2988478 2987878 2992315 
3963.371 3001890 3016137 3033821 3053774 3073762 3091882 3106399 3116110 
3967.229 3120749 3120882 3117645 3112973 3108468 3105431 3104963 3107433 
3971.086 3112339 3119080 3126355 3133164 3138303 3141507 3142842 3143710 
3974.944 3145212 3148783 3155091 3163969 3173682 3182393 3187967 3188935 
3978.801 3185097 3177119 3166472 3155258 3145312 3138003 3134232 3134966 
3982.658 3140673 3151887 3168475 3189536 3213602 3238571 3261773 3281169 
3986.516 3295658 3305140 3310649 3313521 3315590 3317694 3320465 3324238 
3990.373 3329113 3335123 3342235 3350382 3358830 3366644 3372888 3376428 
3994.231 3377095 3375292 3372521 3369916 3369048 3370083 3372688 3376027 
3998.088 3378832 3380635 3381103 3380535 3379366 3377797 
##END=
