
##TITLE=Z244_2_d
##JCAMP-DX=5.01  $$ Nicolet v. 1
##DATATYPE=INFRARED SPECTRUM
##ORIGIN=UniL
##OWNER=Nicolet
##LONGDATE=2011/09/20
##TIME=14:03:12
##SPECTROMETER/DATA SYSTEM=Nicolet iS5
##DATA PROCESSING=
Ratio against background
%Transmittance->Absorbance
Truncated
ElementMultiply or ElementDivide
##COMMENTS=
Number of sample scans: 32
Collection length: 51.16 sec
Sample gain: 2.0
Background collected on: Mar Sep 20 13:32:44 2011 (GMT+02:00);
Number of background scans: 32
Background gain: 2.0
Sample spacing:  1.000
Number of scan points: 12415
Resolution points: 8192
Number of FFT points: 65536
Apodization: N-B fort;
Phase correction: Mertz;
Laser frequency: 15798.0 cm-1
Number of rejected sample scans: 0
Number of rejected background scans: 0
Bench serial number: ASB1000141;
##RESOLUTION=4.000
##XUNITS=1/CM
##YUNITS=ABSORBANCE
##FIRSTX=649.893372
##LASTX=4000.122314
##FIRSTY=0.066969
##MAXX=4000.122314
##MINX=649.893372
##MAXY=0.391556
##MINY=0.001378
##XFACTOR=1.000000
##YFACTOR=1.000000E-009
##NPOINTS=6950
##DELTAX=0.482117
##ZPD=6100
##XYDATA=(X++(Y..Y))
649.893 66968700 67740232 68514112 69308056 70137344 71007424 71912296 
653.268 72842560 73797800 74792608 75855912 77023648 78328248 79787936 
656.643 81411536 83206488 85188096 87388432 89853280 92627872 95752776 
660.018 99253848 103138688 107393104 111968184 116761928 121588680 126191024 
663.393 130286440 133591328 135896880 137068128 137008208 135634400 
666.285 132877320 128767792 123554832 117809088 112305688 107672792 
669.178 104163736 101657968 99865160 98483368 97292008 96174312 95092200 
672.553 94064736 93133336 92340272 91709088 91242384 90929512 90755160 
675.928 90708200 90783136 90980416 91304768 91762488 92359864 93103576 
679.302 94001368 95061760 96296592 97720936 99351592 101206312 103302288 
682.677 105653752 108279976 111210064 114487704 118182216 122381048 
685.570 127175864 132661488 138920832 146024736 154042080 163038032 
688.463 173054400 184055280 195851744 207999040 219679920 229793488 
691.355 237006112 239999264 237896656 230443648 218163744 202193664 
694.248 184094672 165521888 147862352 132234784 119320752 109371288 
697.141 102340568 97944904 95797016 95479032 96655040 99116536 102771752 
700.516 107609288 113597416 120550448 128055664 135406976 141629952 
703.408 145740672 146902272 144693456 139246544 131213576 121604152 
706.301 111460448 101740800 93109200 85874680 80083072 75579840 72133312 
709.676 69498592 67481112 65942688 64777748 63904420 63250920 62753396 
713.051 62369988 62083428 61897688 61826164 61875452 62035572 62280832 
716.425 62577432 62897296 63228772 63575536 63950180 64363188 64815560 
719.800 65297356 65796040 66303440 66823528 67371592 67969208 68633072 
723.175 69370448 70176712 71040008 71945768 72880024 73828944 74774776 
726.550 75690896 76545904 77308528 77960344 78507256 78986448 79461392 
729.925 80001520 80671232 81507896 82514824 83668440 84932344 86276104 
733.300 87685824 89170160 90751520 92456192 94300112 96285176 98403944 
736.674 100649672 103028032 105564136 108297280 111273976 114535656 
739.567 118109096 122008944 126245424 130835000 135810528 141223104 
742.460 147137936 153638640 160833504 168865152 177939200 188305744 
745.352 200207760 213780848 228889312 244966832 260800832 274654112 
748.245 284453056 288249984 285025152 275069280 260063024 242438208 
751.138 224883616 209731808 198470848 191865488 189890496 191925520 
754.031 196893008 203503616 210543488 216901824 221786608 224741264 
756.923 225555984 224208720 220762240 215306048 207942464 198814864 
759.816 188160288 176328464 163798832 151167760 139032128 127975792 
762.709 118492240 110889496 105307240 101681080 99778888 99227904 99586568 
766.083 100438920 101397808 102169248 102564416 102472576 101864240 
768.976 100776224 99304904 97590000 95796808 94102712 92651200 91538016 
772.351 90800488 90421872 90353568 90541120 90947248 91555440 92363672 
775.726 93370720 94564296 95918488 97403208 98994000 100682176 102474424 
779.101 104382832 106411672 108547992 110760040 113007904 115256584 
781.993 117483960 119684752 121860384 124007960 126109896 128131536 
784.886 130025816 131749080 133266376 134556400 135608544 136411968 
787.779 136948512 137192064 137110368 136676368 135878448 134722096 
790.671 133228448 131424736 129338400 126991216 124401544 121591392 
793.564 118590320 115435616 112169584 108827032 105431056 101992992 98519664 
796.939 95025840 91546072 88132072 84851040 81770168 78937448 76379992 
800.314 74101280 72089144 70325944 68794424 67478984 66360256 65412632 
803.689 64604580 63900852 63271852 62699220 62175372 61700000 61274100 
807.063 60895272 60557612 60258540 60005212 59819332 59737200 59803436 
810.438 60057372 60527860 61225340 62140388 63241496 64472220 65753056 
813.813 66968316 67977856 68636840 68805952 68393976 67377592 65811388 
817.188 63815876 61552028 59195752 56891628 54743848 52814452 51125964 
820.563 49680372 48468716 47476604 46683212 46058820 45569624 45178840 
823.938 44856700 44587008 44364784 44192744 44072732 43999208 43959756 
827.312 43939628 43928888 43928888 43950956 44011600 44122240 44283432 
830.687 44483700 44705912 44934560 45163288 45396552 45645220 45919144 
834.062 46221208 46545248 46880308 47217880 47556896 47904904 48274636 
837.437 48677928 49120660 49601804 50117172 50664984 51249912 51882900 
840.812 52576380 53339376 54173828 55075856 56040444 57067788 58166248 
844.186 59350936 60638028 62034728 63534804 65115936 66745200 68379624 
847.561 69971208 71469704 72814424 73937272 74769704 75245656 75323208 
850.936 74997496 74309600 73342456 72207296 71029904 69917960 68952384 
854.311 68182256 67622792 67266240 67088560 67059248 67142392 67301600 
857.686 67506616 67733424 67970568 68219280 68490952 68801568 69165048 
861.060 69590792 70082400 70641928 71272760 71980104 72766944 73624608 
864.435 74525392 75415944 76215720 76833864 77178256 77172280 76773920 
867.810 75979472 74827016 73385176 71751264 70037856 68354024 66809112 
871.185 65495924 64480676 63807392 63493608 63537680 63929224 64659452 
874.560 65728344 67149160 68946400 71151704 73798704 76911304 80492656 
877.935 84504384 88855848 93378368 97814312 101856872 105151408 107361912 
881.309 108252512 107715768 105821008 102792736 98995336 94854448 90771776 
884.684 87115824 84155496 82057896 80913920 80740664 81503424 83120576 
888.059 85472896 88395904 91662016 95003824 98099616 100592280 102159896 
891.434 102531272 101548616 99203552 95639528 91133896 86026896 80698968 
894.809 75491160 70652224 66349296 62650188 59549652 56998156 54927868 
898.183 53270224 51958292 50933188 50139856 49524592 49043052 48660508 
901.558 48353628 48111256 47926884 47793632 47701688 47637528 47588168 
904.933 47546836 47514420 47498008 47505732 47541888 47602960 47679536 
908.308 47760380 47838684 47915376 47998152 48097156 48219356 48365144 
911.683 48528736 48702168 48879604 49060820 49251208 49457604 49684084 
915.058 49929492 50188132 50453808 50723444 51000664 51293128 51610080 
918.432 51956128 52329100 52720612 53120644 53522500 53925748 54336352 
921.807 54763768 55217492 55703972 56228068 56796376 57419088 58111360 
925.182 58888132 59755564 60702384 61692628 62671856 63567676 64306936 
928.557 64834140 65117248 65159088 64993048 64680600 64297796 63920932 
931.932 63625208 63470408 63498212 63733748 64183004 64837104 65673880 
935.306 66662096 67761072 68919328 70080536 71182928 72166752 72990192 
938.681 73634496 74115224 74479096 74801984 75172456 75670264 76361152 
942.056 77282320 78442032 79824248 81394384 83104728 84891248 86678832 
945.431 88380592 89895744 91127768 91991680 92424376 92399864 91929192 
948.806 91060056 89862328 88424048 86840312 85197944 83581312 82063696 
952.181 80700088 79530912 78576056 77836496 77299576 76945400 76753992 
955.555 76707536 76793256 77000704 77318504 77733928 78234248 78808240 
958.930 79450304 80161568 80948296 81818008 82777336 83829248 84974928 
962.305 86217064 87564728 89034360 90651616 92446352 94445792 96671640 
965.680 99134440 101832952 104755816 107887048 111212712 114727520 118441176 
969.055 122380648 126587256 131102208 135949472 141108816 146499648 
971.947 151959248 157238736 162048480 166068128 169010208 170690976 
974.840 171054720 170208464 168392048 165967248 163343712 160900896 
977.733 158978432 157805584 157482320 157976544 159122288 160644352 
980.625 162165760 163289424 163637680 162897648 160896768 157609952 
983.518 153166464 147804272 141839936 135615328 129427480 123535064 
986.411 118128192 113317872 109159376 105653456 102763728 100429064 98578824 
989.786 97145080 96062120 95273792 94732400 94393456 94219184 94178144 
993.160 94244784 94402760 94642736 94959536 95349928 95808376 96326872 
996.535 96895848 97506256 98151704 98829768 99540560 100284496 101060816 
999.910 101865880 102694640 103543032 104408752 105292960 106199000 
1002.803 107130368 108089160 109075456 110088464 111128096 112197256 
1005.695 113302128 114449840 115646984 116896872 118198440 119546800 
1008.588 120935656 122359880 123816240 125304032 126823512 128374504 
1011.481 129955608 131565032 133202104 134868928 136571616 138320064 
1014.374 140125968 142000864 143955424 145998304 148137344 150380336 
1017.266 152735536 155211056 157814576 160551264 163423600 166429712 
1020.159 169563056 172808240 176136256 179502096 182833952 186033232 
1023.052 188985440 191558064 193627792 195103760 195939792 196152672 
1025.945 195818688 195070224 194063920 192958304 191900992 190995600 
1028.838 190299136 189813248 189484928 189205856 188816576 188135040 
1031.731 186956112 185079744 182351136 178665200 173996416 168404352 
1034.624 162033600 155098672 147847856 140561648 133501560 126879648 
1037.517 120859848 115528688 110905320 106957608 103620456 100815464 
1040.410 98461544 96489744 94839112 93454984 92291952 91309104 90472512 
1043.785 89758832 89151560 88640704 88218576 87876560 87604616 87392808 
1047.160 87234160 87126960 87074240 87081728 87152352 87282288 87457520 
1050.536 87655584 87847880 88001352 88085400 88073104 87943416 87686192 
1053.911 87303472 86813880 86250160 85660408 85100544 84622208 84269976 
1057.286 84072456 84041856 84177744 84471256 84909096 85472008 86133176 
1060.661 86855240 87583616 88253288 88795152 89140784 89240264 89065968 
1064.037 88617016 87917456 87011608 85958960 84821280 83662864 82543432 
1067.412 81509176 80594360 79817392 79181232 78679144 78300312 78036120 
1070.787 77882248 77839664 77910384 78094496 78387056 78778880 79258456 
1074.162 79815928 80444480 81140088 81899384 82717368 83585896 84496528 
1077.538 85443368 86427888 87459912 88558424 89747552 91050816 92490960 
1080.913 94087984 95860648 97831912 100029456 102484232 105231736 108304968 
1084.288 111730864 115528552 119704704 124249608 129128832 134282400 
1087.181 139617808 145006944 150308592 155372624 160060112 164270304 
1090.074 167939024 171039440 173566464 175515280 176862528 177564432 
1092.967 177564272 176825024 175361984 173274240 170751952 168052624 
1095.860 165494336 163384880 161983520 161483920 161969088 163408688 
1098.753 165646176 168424032 171384928 174091040 176108624 177017744 
1101.646 176479760 174306160 170460528 165074064 158399440 150787568 
1104.540 142624288 134266064 126047000 118230840 110998232 104468720 
1107.433 98690096 93656912 89327560 85640352 82525560 79910064 77726120 
1110.808 75908040 74390448 73115248 72028432 71083368 70245808 69490040 
1114.183 68798424 68160040 67567080 67015252 66503548 66035144 65616496 
1117.558 65254888 64956872 64725020 64557716 64450352 64397932 64397552 
1120.934 64449088 64554296 64714828 64929516 65194784 65505324 65857036 
1124.309 66249096 66684620 67169888 67710768 68311336 68972496 69693448 
1127.684 70473656 71315520 72224512 73208152 74272296 75418472 76640960 
1131.059 77927552 79261160 80619896 81980656 83318872 84607032 85818840 
1134.435 86929952 87921872 88788768 89540144 90203832 90820336 91441800 
1137.810 92124088 92916480 93863776 95001344 96353840 97939264 99766264 
1141.185 101834912 104134760 106645248 109336856 112167872 115088896 
1144.078 118041736 120953256 123741864 126313720 128560048 130373848 
1146.971 131648440 132288976 132229672 131434024 129902784 127669112 
1149.864 124796640 121370760 117485912 113249568 108770848 104150936 
1152.757 99488440 94866768 90351936 85999552 81851936 77942464 74300520 
1156.133 70947536 67897032 65153592 62711932 60559780 58680276 57055924 
1159.508 55667964 54495856 53516956 52703220 52023244 51447456 50948688 
1162.883 50506808 50110216 49752668 49431168 49143592 48887280 48660548 
1166.258 48463420 48299484 48174928 48096304 48068544 48093084 48168632 
1169.634 48292744 48464348 48685304 48959336 49290064 49678252 50120816 
1173.009 50611816 51145272 51718120 52332540 52995560 53716092 54501568 
1176.384 55356808 56283172 57280468 58349676 59493828 60716976 62020668 
1179.759 63400240 64842412 66324396 67818856 69297800 70736792 72120832 
1183.135 73443248 74706888 75921896 77106424 78286064 79490128 80752640 
1186.510 82104560 83566816 85145128 86824568 88569760 90324600 92021536 
1189.885 93590240 94959368 96069680 96875848 97346608 97467888 97238992 
1193.260 96670608 95779544 94586752 93114448 91384144 89422160 87264016 
1196.635 84957120 82568440 80179424 77871456 75722408 73786056 72084096 
1200.011 70607696 69323688 68188032 67156192 66196032 65290696 64437172 
1203.386 63642436 62918396 62278768 61736132 61301648 60983684 60785764 
1206.761 60705852 60735384 60862568 61073796 61358240 61709928 62127656 
1210.136 62612796 63167332 63791432 64484252 65244912 66075184 66980340 
1213.512 67968320 69048232 70227072 71508888 72895264 74387616 75989856 
1216.887 77710704 79562744 81561424 83723048 86061792 88591376 91326648 
1220.262 94284560 97487008 100959384 104726384 108810088 113223208 117965960 
1223.637 123020368 128348008 133887648 139542000 145182656 150644768 
1226.531 155715024 160160272 163729808 166174784 167300464 166980192 
1229.424 165186400 161995504 157583856 152207888 146152704 139733056 
1232.317 133252680 126966224 121095504 115799920 111173120 107261720 
1235.210 104066544 101559160 99691552 98406640 97643432 97334960 97417096 
1238.585 97827960 98508600 99410488 100491368 101711656 103034248 104414984 
1241.960 105800464 107133936 108353064 109400568 110234584 110829696 
1244.853 111182200 111307744 111239640 111023608 110711720 110365584 
1247.746 110046920 109811976 109709088 109767864 109995704 110378064 
1250.639 110883072 111468200 112087320 112701728 113281872 113810600 
1253.532 114284360 114712416 115117616 115532104 115999432 116567232 
1256.426 117278032 118165472 119244744 120509512 121929616 123454448 
1259.319 125018224 126536608 127918136 129065888 129876328 130255464 
1262.212 130122064 129415032 128106024 126199888 123734064 120769392 
1265.105 117385480 113673040 109722736 105632624 101502608 97424768 93488848 
1268.480 89769384 86319392 83176592 80361944 77885096 75749744 73953856 
1271.855 72488904 71338008 70476968 69876672 69505824 69338648 69355912 
1275.230 69544432 69896016 70402696 71055264 71843640 72758208 73793008 
1278.606 74948000 76227520 77638912 79189584 80886224 82734808 84743056 
1281.981 86922792 89290360 91862984 94654896 97668824 100891032 104284112 
1285.356 107791392 111335840 114822592 118155896 121237624 123975472 
1288.249 126295552 128138216 129462568 130247624 130485880 130179968 
1291.142 129334776 127952576 126031592 123570160 120576384 117080008 
1294.035 113140480 108856880 104357008 99786608 95308288 91073048 87219544 
1297.411 83873256 81127984 79051152 77676864 77002328 76989904 77571088 
1300.786 78661312 80160368 81962920 83970936 86082072 88195880 90218512 
1304.161 92051960 93607456 94811824 95605952 95953704 95839528 95266248 
1307.536 94255368 92850328 91128712 89200880 87216424 85357944 83798944 
1310.912 82686224 82098760 82020192 82329264 82810816 83215200 83283992 
1314.287 82822688 81744208 80071080 77926608 75487616 72959936 70522680 
1317.662 68302568 66375160 64760172 63441804 62386012 61558748 60932252 
1321.037 60485772 60204032 60072324 60074648 60195964 60423624 60748724 
1324.413 61165944 61670748 62255096 62906528 63607104 64336524 65076180 
1327.788 65810420 66528796 67224968 67893856 68531456 69134400 69701264 
1331.163 70234280 70740696 71231696 71719608 72215152 72725336 73253336 
1334.538 73799760 74365440 74953120 75568008 76216784 76904976 77636416 
1337.914 78413056 79236064 80108208 81034736 82021472 83074520 84195880 
1341.289 85382912 86629080 87926944 89271600 90662272 92104800 93609392 
1344.664 95188680 96854104 98614496 100474584 102435576 104497120 106658160 
1348.039 108918312 111276496 113730592 116275120 118900112 121591480 
1350.932 124335104 127118408 129936648 132795664 135713056 138715584 
1353.825 141835392 145108096 148566720 152241600 156158608 160332112 
1356.719 164758400 169401504 174191296 179012368 183712864 188140000 
1359.612 192150496 195648832 198605616 201056976 203089568 204806912 
1362.505 206316048 207698416 209002832 210255488 211462624 212619184 
1365.398 213713216 214730784 215663280 216516784 217322256 218141456 
1368.291 219065040 220188384 221599648 223362592 225508896 228048688 
1371.184 230982992 234317712 238064320 242233744 246822976 251799440 
1374.077 257102336 262660352 268417808 274357824 280500352 286879520 
1376.970 293499488 300295136 307094560 313640160 319605536 324622976 
1379.863 328352416 330472800 330694272 328806400 324706208 318472192 
1382.756 310375008 300854048 290398848 279391904 268068640 256475456 
1385.649 244541120 232181536 219409472 206382720 193378128 180704992 
1388.542 168617440 157284624 146788528 137168624 128460992 120686832 
1391.435 113857104 107957232 102934872 98715552 95216608 92373104 90129416 
1394.811 88431608 87215688 86386096 85830992 85450504 85174280 84989480 
1398.186 84942568 85132152 85672592 86656744 88140552 90132880 92614376 
1401.561 95553224 98914272 102644904 106645208 110760976 114757728 118332432 
1404.936 121180064 123022304 123670008 123058720 121239200 118362104 
1407.829 114633368 110306808 105647880 100904496 96319552 92089320 88348064 
1411.205 85173752 82583504 80556704 79057160 78052464 77519472 77435904 
1414.580 77773672 78488392 79520248 80814536 82329904 84054648 86010088 
1417.955 88235752 90763040 93581896 96634632 99830344 103082264 106337800 
1421.330 109584240 112831632 116081408 119303616 122424392 125318440 
1424.223 127844352 129872624 131304800 132084848 132178008 131551400 
1427.116 130173888 128027592 125139536 121596392 117556568 113223512 
1430.010 108794976 104449792 100325568 96517800 93100288 90120032 87592296 
1433.385 85503032 83808312 82451680 81383632 80587936 80092000 79956504 
1436.760 80235896 80937880 82005144 83338264 84827560 86378208 87928120 
1440.135 89434208 90866936 92206232 93431696 94525704 95476480 96279472 
1443.510 96938592 97462752 97861464 98139240 98294992 98326400 98239352 
1446.886 98056976 97828008 97615592 97481704 97468344 97582744 97803272 
1450.261 98095920 98436024 98819496 99264512 99798368 100440544 101185824 
1453.636 102004056 102842784 103644432 104366016 104988928 105530416 
1456.529 106031552 106540424 107074104 107610352 108104504 108517536 
1459.422 108833080 109059440 109221872 109351512 109476800 109617248 
1462.315 109788168 110005904 110293696 110685168 111219048 111925472 
1465.208 112822312 113913480 115197352 116679096 118372768 120295064 
1468.102 122455056 124846504 127449584 130226928 133140160 136151632 
1470.995 139211232 142249152 145157888 147789968 149984784 151599072 
1473.888 152529328 152721920 152158000 150853120 148861968 146283120 
1476.781 143252016 139906240 136367600 132711456 128965784 125135552 
1479.674 121224656 117255544 113282640 109378448 105614664 102047520 
1482.567 98702328 95578744 92660632 89925864 87354848 84933352 82653112 
1485.942 80513872 78524488 76700968 75065112 73638352 72436328 71467120 
1489.317 70732152 70230968 69961440 69917888 70084776 70431880 70914608 
1492.693 71481856 72079560 72665568 73215056 73723816 74207936 74695480 
1496.068 75211536 75761184 76323072 76854392 77308960 77650000 77861312 
1499.443 77949560 77940088 77870784 77781368 77710824 77687880 77726160 
1502.818 77821872 77951696 78076136 78140384 78091960 77902184 77596552 
1506.194 77267672 77052448 77071408 77360632 77870904 78505152 79170776 
1509.569 79798160 80349032 80814768 81205792 81543952 81852696 82151480 
1512.944 82450432 82749512 83040696 83313208 83559904 83783680 84002816 
1516.319 84250632 84569192 84990360 85522032 86141016 86801296 87445976 
1519.695 88024208 88516048 88946072 89386904 89922928 90615728 91468144 
1523.070 92429456 93420928 94367312 95222304 95969576 96626848 97232032 
1526.445 97829960 98452952 99115208 99819664 100567464 101364408 102221064 
1529.820 103145280 104134680 105172720 106238560 107317920 108420848 
1532.713 109589192 110893088 112404136 114153584 116123400 118252336 
1535.606 120471728 122718520 124952872 127167072 129371912 131606448 
1538.500 133933248 136439376 139210976 142303600 145736368 149473088 
1541.393 153450896 157615200 161929296 166379504 170960096 175655856 
1544.286 180419616 185163520 189779904 194152224 198178368 201782752 
1547.179 204885680 207393200 209205584 210225568 210417312 209838416 
1550.072 208641424 207008672 205070640 202867696 200350208 197441248 
1552.965 194118720 190475376 186725232 183145024 179941344 177182384 
1555.858 174767472 172474624 170011696 167103584 163603008 159594960 
1558.751 155451520 151682784 148670432 146481168 144937264 143765680 
1561.644 142724160 141634544 140360192 138808480 136930080 134734128 
1564.537 132293240 129724872 127155576 124658208 122228544 119784144 
1567.430 117201944 114362048 111206248 107778192 104227584 100762352 
1570.323 97561048 94720288 92236632 90043664 88050704 86175728 84355232 
1573.698 82544712 80719680 78884720 77097448 75477440 74190456 73403032 
1577.074 73212784 73631912 74610448 76080680 77992496 80329408 83108936 
1580.449 86367616 90141520 94448104 99268096 104534424 110135088 115892592 
1583.824 121571400 126900808 131567912 135278560 137797920 138963776 
1586.717 138722144 137129680 134366544 130713744 126536264 122258880 
1589.610 118270736 114907848 112423744 110963152 110593096 111312760 
1592.503 113076040 115800224 119377232 123689528 128594760 133937136 
1595.396 139560640 145299072 151001904 156544912 161815920 166712512 
1598.290 171123888 174910048 177919552 180009328 181070384 181063248 
1601.183 180020064 178040448 175259136 171840096 167965952 163814672 
1604.076 159567792 155386752 151385376 147633584 144150384 140918976 
1606.969 137906784 135085008 132439616 129968208 127673280 125551928 
1609.862 123590944 121772136 120080416 118510864 117069168 115763536 
1612.755 114592392 113533928 112541720 111550056 110492912 109325728 
1615.648 108056648 106761280 105574440 104639816 104046624 103807088 
1618.541 103862632 104125120 104501168 104919352 105339456 105749320 
1621.434 106167520 106636264 107216248 107967000 108932200 110131288 
1624.327 111554216 113171264 114942768 116830656 118797688 120809688 
1627.220 122839144 124862888 126865088 128837424 130778448 132690088 
1630.113 134574912 136436016 138278144 140110880 141947888 143811808 
1633.006 145736272 147769952 149982784 152466768 155334912 158679856 
1635.899 162548720 166930320 171755936 176950816 182464000 188280592 
1638.792 194414160 200893104 207751312 215003312 222638416 230626544 
1641.686 238910176 247419536 256092064 264854880 273652032 282457952 
1644.579 291275392 300151584 309155296 318347520 327697600 337060928 
1647.472 346209920 354901984 362962912 370302368 376892864 382657920 
1650.365 387368256 390586112 391556320 389345088 383279968 373609984 
1653.258 361791360 349732320 338716928 328948704 319962208 311098752 
1656.151 301867360 292033856 281607360 270755584 259706944 248681376 
1659.044 237788032 227037824 216371696 205704176 194979088 184206416 
1661.937 173480096 162974112 152913552 143518048 134950976 127282008 
1664.830 120480648 114445736 109033592 104094296 99503352 95185376 91128800 
1668.205 87389448 84067072 81268912 79067456 77476304 76450992 75909184 
1671.581 75764536 75940520 76380232 77054792 77963160 79136744 80631904 
1674.956 82515904 84834120 87582528 90718856 94187456 97952456 102011192 
1678.331 106388936 111117184 116196520 121586176 127212328 132986528 
1681.224 138869104 144898224 151200928 157972720 165407520 173580400 
1684.117 182304960 191148080 199581424 207182112 213707088 219041392 
1687.010 223134016 225923248 227354320 227403664 226082976 223453136 
1689.903 219618480 214738704 209025520 202725584 196102576 189346496 
1692.796 182520640 175541136 168190576 160225872 151556464 142416864 
1695.689 133394152 125209376 118346232 112883928 108529872 104833336 
1698.583 101340400 97762768 94085552 90580504 87654120 85567832 84280040 
1701.958 83502360 82885960 82117936 80988624 79377696 77235208 74579248 
1705.333 71485720 68079272 64500472 60887420 57359000 53997032 50850040 
1708.708 47929952 45215756 42670196 40259460 37970500 35816796 33828752 
1712.083 32029506 30421022 28971814 27630168 26341304 25075738 23840622 
1715.459 22674534 21624352 20720630 19961034 19319246 18765788 18291168 
1718.834 17910938 17646872 17503962 17458326 17461188 17455048 17398278 
1722.209 17277586 17116116 16957808 16849122 16810304 16828214 16862796 
1725.584 16871648 16830866 16743043 16631829 16524600 16435876 16358767 
1728.960 16270524 16147565 15981119 15782574 15575740 15379681 15197641 
1732.335 15013140 14803277 14560519 14315157 14128052 14061412 14133837 
1735.710 14310569 14521015 14691838 14773212 14745275 14625967 14460138 
1739.085 14305500 14201720 14155847 14142394 14125142 14078456 13999881 
1742.461 13905377 13816708 13744609 13681072 13603355 13487096 13321495 
1745.836 13115044 12892205 12678350 12489255 12321341 12157377 11977635 
1749.211 11776384 11568590 11386712 11264176 11217116 11236599 11294101 
1752.586 11356440 11400590 11420592 11422871 11416884 11407597 11392052 
1755.962 11363992 11320662 11269481 11226739 11208412 11220721 11253737 
1759.337 11285939 11291993 11257885 11189474 11115329 11073316 11091569 
1762.712 11174651 11300256 11432294 11536061 11594418 11608916 11595848 
1766.087 11573831 11556375 11544941 11531263 11504621 11459849 11400352 
1769.463 11334809 11270535 11208344 11143238 11071514 10998375 10943188 
1772.838 10931907 10982743 11096157 11251696 11417734 11561853 11665515 
1776.213 11726954 11759601 11782547 11809579 11841891 11868485 11874478 
1779.588 11851937 11807638 11762426 11740332 11755311 11803519 11865216 
1782.964 11916263 11938842 11932542 11913130 11905876 11929170 11985878 
1786.339 12061024 12131651 12177822 12191214 12177208 12148074 12115160 
1789.714 12080545 12037518 11976614 11896648 11811588 11749966 11739652 
1793.089 11794871 11905502 12043718 12175368 12276416 12340294 12376157 
1796.465 12401317 12429480 12464020 12495938 12511284 12500746 12468726 
1799.840 12432788 12417922 12441516 12505998 12596378 12691075 12770608 
1803.215 12828587 12871760 12914153 12966995 13031522 13098380 13153088 
1806.590 13185467 13195440 13193903 13196773 13216857 13256687 13308683 
1809.966 13360651 13405278 13445844 13495675 13569202 13673549 13802342 
1813.341 13937571 14058161 14150302 14214011 14263725 14320671 14401427 
1816.716 14510634 14638374 14767488 14882272 14977332 15058280 15136189 
1820.091 15217784 15299463 15365710 15397395 15380127 15312093 15205156 
1823.467 15080578 14961419 14862213 14786445 14728341 14679533 14634604 
1826.842 14592420 14554215 14518959 14481720 14436263 14380260 14321150 
1830.217 14275641 14264650 14300844 14381425 14487647 14592351 14671102 
1833.592 14711272 14716001 14702052 14690398 14694648 14715968 14743561 
1836.968 14763990 14770024 14766631 14768207 14790901 14841196 14910939 
1840.343 14978635 15019039 15014546 14962002 14875654 14780411 14705822 
1843.718 14671857 14684469 14737459 14820077 14923661 15044182 15178940 
1847.093 15322219 15462729 15587349 15685346 15754916 15805081 15851540 
1850.469 15909314 15984144 16070403 16154546 16224226 16274584 16312597 
1853.844 16352436 16408486 16485434 16575510 16661575 16726997 16763637 
1857.219 16776070 16778136 16785542 16806308 16836928 16865138 16878124 
1860.594 16870926 16850362 16831554 16828868 16848674 16884808 16922048 
1863.969 16943994 16941926 16918086 16883360 16850086 16823632 16800798 
1867.345 16773004 16735468 16695214 16671974 16691221 16771318 16912506 
1870.720 17094782 17286410 17458636 17593112 17688180 17754274 17805948 
1874.095 17851898 17891120 17913908 17911354 17881936 17836086 17792174 
1877.470 17766804 17767840 17789792 17817892 17836260 17837502 17826800 
1880.846 17817824 17824452 17852210 17895194 17940150 17974098 17993264 
1884.221 18005422 18026040 18068524 18134986 18213692 18284498 18329322 
1887.596 18341800 18332744 18325036 18345566 18411070 18521048 18659934 
1890.971 18806960 18946006 19071318 19187144 19301094 19416978 19531786 
1894.347 19637300 19726610 19800366 19868412 19945976 20044406 20165662 
1897.722 20299972 20432240 20548842 20646576 20733836 20827056 20940604 
1901.097 21079222 21234828 21391954 21536078 21660434 21768660 21871302 
1904.472 21976826 22084224 22181572 22250586 22277058 22257910 22205110 
1907.848 22138788 22080354 22041904 22023184 22014854 22007570 21999378 
1911.223 21998506 22018898 22070874 22155176 22259828 22366738 22458112 
1914.598 22526194 22574564 22615924 22663190 22723098 22794152 22870004 
1917.973 22945938 23024334 23114028 23224608 23357666 23503912 23643878 
1921.349 23757324 23833974 23879516 23914838 23966060 24053394 24178506 
1924.724 24325592 24469256 24587862 24674514 24738068 24797526 24870396 
1928.099 24963210 25067838 25167718 25247884 25305058 25350368 25403692 
1931.474 25481336 25589042 25717306 25848666 25966734 26066150 26153768 
1934.850 26244498 26349930 26469966 26591690 26696184 26768880 26807364 
1938.225 26823364 26835206 26857624 26892556 26927492 26943356 26926644 
1941.600 26878492 26817090 26767858 26751752 26773108 26818642 26865414 
1944.975 26894214 26901228 26897774 26903800 26934330 26990458 27058372 
1948.351 27117268 27151408 27159874 27159380 27174688 27224602 27311888 
1951.726 27420898 27526862 27608382 27657994 27684584 27706550 27739396 
1955.101 27784360 27828870 27853740 27846570 27811666 27770726 27751618 
1958.476 27776448 27846322 27942176 28033318 28095526 28122994 28131406 
1961.852 28146150 28188396 28262262 28354212 28440840 28504028 28544190 
1965.227 28579116 28636552 28736088 28879130 29045528 29205506 29333600 
1968.602 29420424 29475172 29516238 29557060 29595722 29616934 29601042 
1971.977 29540674 29447232 29350972 29286420 29277560 29324314 29404754 
1975.353 29488152 29553478 29600154 29648364 29721660 29833192 29971768 
1978.728 30107866 30205928 30245356 30228590 30180602 30134608 30113478 
1982.103 30121966 30146326 30165330 30163446 30142066 30116638 30109392 
1985.478 30134038 30187670 30251856 30305432 30333998 30340536 30342170 
1988.854 30360540 30407944 30480410 30559004 30621896 30656278 30668332 
1992.229 30679178 30713352 30784410 30886394 30997266 31088872 31141766 
1995.604 31155114 31145324 31135146 31141516 31166328 31197158 31215494 
1998.979 31210010 31184770 31157500 31150666 31176582 31231764 31296000 
2002.354 31345286 31362380 31347956 31318150 31296142 31297748 31322212 
2005.730 31352732 31367190 31352196 31310458 31261530 31228916 31227136 
2009.105 31252880 31286526 31303372 31290158 31250100 31203390 31174090 
2012.480 31176188 31206772 31247466 31275634 31276916 31255976 31231624 
2015.855 31227706 31256224 31313236 31377804 31427850 31450220 31451500 
2019.231 31453994 31485200 31560448 31675306 31807124 31927216 32014240 
2022.606 32064178 32088544 32107380 32136210 32175850 32215674 32241616 
2025.981 32245792 32234050 32221846 32224666 32248288 32283266 32309998 
2029.356 32308500 32272060 32210856 32150086 32115050 32119226 32157614 
2032.732 32212034 32260210 32288584 32299682 32307108 32326348 32363184 
2036.107 32409914 32449868 32466828 32455366 32424376 32390744 32370466 
2039.482 32368076 32374610 32372072 32344372 32289014 32218564 32154940 
2042.857 32117620 32113946 32134034 32157082 32161862 32138706 32094430 
2046.233 32049052 32022622 32028296 32063502 32114588 32163966 32199402 
2049.608 32219134 32229592 32238834 32250896 32263670 32272092 32273452 
2052.983 32272916 32282088 32314602 32378498 32469578 32572710 32666612 
2056.358 32735386 32774650 32793696 32810562 32841652 32894976 32965570 
2059.734 33039286 33099536 33137724 33153962 33156678 33154856 33154250 
2063.109 33152710 33144734 33125780 33098318 33072182 33061202 33075146 
2066.484 33114552 33169552 33224848 33267342 33291884 33303190 33312634 
2069.859 33330448 33359788 33394568 33423800 33437866 33434178 33418934 
2073.235 33402938 33395998 33400652 33410094 33412564 33397966 33363294 
2076.610 33315458 33267092 33229750 33208788 33200882 33196128 33184252 
2079.985 33160434 33126712 33090238 33057880 33032208 33009756 32983874 
2083.360 32948982 32904766 32857232 32815530 32786798 32772898 32768220 
2086.736 32763466 32751068 32727986 32697584 32666076 32638784 32615748 
2090.111 32592244 32561496 32520212 32471612 32425802 32394170 32385998 
2093.486 32402098 32436014 32476254 32512534 32540496 32562028 32582066 
2096.861 32604102 32625924 32640324 32638534 32615318 32573496 32521676 
2100.237 32472148 32433086 32405526 32382674 32355402 32317422 32269168 
2103.612 32218918 32177098 32151978 32143988 32146376 32148696 32143700 
2106.987 32130394 32115302 32107524 32114268 32135316 32163862 32189232 
2110.362 32203362 32204896 32199722 32196582 32202076 32216172 32231946 
2113.738 32239296 32230270 32203682 32165394 32126184 32094430 32073632 
2117.113 32060754 32048770 32031718 32008674 31983602 31963594 31954144 
2120.488 31954426 31958316 31956390 31941124 31910240 31868164 31821706 
2123.863 31777606 31738072 31700540 31660620 31616572 31570782 31530484 
2127.239 31503226 31492788 31495854 31504116 31506934 31497386 31476758 
2130.614 31453032 31437714 31439282 31460408 31496528 31540922 31588920 
2133.989 31641874 31705636 31786412 31883604 31988916 32085192 32156796 
2137.364 32194440 32201506 32190266 32178740 32179310 32194548 32216456 
2140.740 32231446 32229234 32207680 32173924 32139384 32114230 32101280 
2144.115 32095216 32088294 32075380 32057830 32043382 32040242 32050338 
2147.490 32066640 32076306 32065858 32030862 31978752 31925432 31888776 
2150.865 31877364 31886708 31898900 31893660 31855256 31781312 31680402 
2154.240 31569142 31460728 31361598 31270326 31187226 31121190 31094424 
2157.616 31136106 31269010 31496316 31793364 32116692 32416448 32657538 
2160.991 32827680 32935508 32999638 33037070 33056412 33056304 33034030 
2164.366 32992988 32945122 32908376 32898870 32919568 32958992 32994344 
2167.741 33003212 32971788 32902944 32811206 32717090 32636322 32572958 
2171.117 32520604 32470186 32415308 32358580 32310714 32282982 32281340 
2174.492 32301114 32328382 32346870 32346372 32325704 32291404 32252430 
2177.867 32213602 32171316 32119014 32051194 31971260 31891878 31833078 
2181.242 31810478 31829052 31878364 31938344 31988238 32014630 32017772 
2184.618 32009568 32004610 32012102 32030900 32051124 32060896 32052800 
2187.993 32028794 31997726 31970192 31952396 31941448 31928926 31906140 
2191.368 31869770 31826268 31786944 31762384 31756860 31764272 31772294 
2194.743 31767126 31742386 31700216 31650570 31604100 31566720 31535402 
2198.119 31502586 31459268 31403982 31342510 31288628 31255014 31248892 
2201.494 31267050 31299382 31334818 31366230 31394400 31426068 31468492 
2204.869 31523466 31585750 31644512 31688422 31712588 31719964 31720322 
2208.244 31724316 31739320 31765092 31796322 31826268 31851978 31876258 
2211.620 31906106 31947188 32000150 32058898 32113090 32152906 32175134 
2214.995 32182734 32185164 32191728 32206788 32227986 32248218 32259568 
2218.370 32257390 32242864 32220952 32196582 32170712 32139920 32098460 
2221.745 32043594 31977646 31909422 31850408 31808872 31785414 31772938 
2225.121 31758748 31731800 31687886 31631504 31573240 31524286 31491544 
2228.496 31474798 31468100 31464290 31458482 31451930 31448010 31449042 
2231.871 31453852 31455134 31443522 31411498 31358074 31289484 31217952 
2235.246 31155470 31108270 31076058 31052214 31028438 30998724 30962498 
2238.622 30923182 30886146 30854448 30827876 30803438 30778720 30753432 
2241.997 30730848 30715554 30710328 30714098 30721174 30723878 30716446 
2245.372 30697526 30671532 30645432 30625948 30615530 30611762 30609806 
2248.747 30605042 30596084 30586164 30580190 30582324 30593098 30608882 
2252.123 30623744 30633522 30637646 30640134 30646500 30661470 30684582 
2255.498 30710506 30731096 30739028 30730990 30709154 30678642 30645682 
2258.873 30613646 30582608 30549974 30513930 30474190 30433816 30396680 
2262.248 30365196 30338724 30313390 30284078 30247240 30202874 30155170 
2265.624 30110280 30072994 30044588 30022786 30003010 29981458 29956928 
2268.999 29931618 29909040 29891968 29880398 29871700 29862010 29849268 
2272.374 29834220 29819954 29810832 29808668 29811970 29816086 29815022 
2275.749 29804020 29782656 29753738 29722264 29692780 29667412 29645384 
2279.125 29624312 29602284 29579192 29556740 29537340 29521062 29506592 
2282.500 29490032 29467230 29436308 29397628 29354198 29310028 29267564 
2285.875 29226556 29184988 29140410 29091656 29040464 28990162 28944506 
2289.250 28905088 28870632 28837488 28801090 28758852 28711238 28660940 
2292.625 28612098 28567260 28526602 28488214 28449120 28407624 28364682 
2296.001 28323126 28286626 28257700 28236484 28220820 28207668 28194690 
2299.376 28181326 28168988 28159582 28153608 28150356 28147174 28141694 
2302.751 28133422 28124090 28117444 28117020 28124760 28139292 28156930 
2306.126 28172842 28183554 28188080 28188044 28186170 28184968 28185462 
2309.502 28186876 28187620 28187336 28186770 28187902 28193170 28202752 
2312.877 28215268 28227644 28236802 28240974 28241470 28241400 28244122 
2316.252 28251760 28263676 28277044 28287972 28293630 28293134 28287972 
2319.627 28280580 28272694 28264736 28254412 28238182 28212334 28173618 
2323.003 28119458 28048022 27957656 27847416 27718558 27575368 27425062 
2326.378 27277946 27145270 27034886 26950618 26890124 26847050 26812722 
2329.753 26780228 26746290 26711158 26677898 26648936 26625756 26607402 
2333.128 26592500 26580136 26570732 26566364 26568408 26576966 26589330 
2336.504 26600920 26607050 26605042 26594332 26577212 26556572 26534698 
2339.879 26511944 26487644 26460632 26431476 26401968 26374680 26351232 
2343.254 26330954 26310746 26287864 26261218 26234398 26214934 26213104 
2346.629 26237108 26290116 26369364 26466938 26571646 26671942 26758414 
2350.005 26824386 26866014 26882404 26874860 26846874 26802078 26746114 
2353.380 26684734 26622762 26563616 26508038 26454224 26398518 26337396 
2356.755 26269032 26194062 26115130 26035612 25958256 25883940 25812024 
2360.130 25741036 25670832 25601976 25535870 25473676 25415954 25361678 
2363.506 25309728 25260000 25213750 25173968 25143386 25123620 25113966 
2366.881 25110596 25108876 25105716 25099818 25092658 25087040 25085636 
2370.256 25089252 25097010 25106558 25116318 25126254 25137662 25152550 
2373.631 25171932 25195350 25220422 25244408 25265548 25283458 25300000 
2377.007 25317422 25336916 25358446 25379980 25399196 25414408 25426140 
2380.382 25436470 25448662 25465034 25486116 25510430 25535168 25557800 
2383.757 25576636 25592274 25606088 25619586 25633608 25647950 25661728 
2387.132 25674488 25686756 25700396 25716988 25737730 25761708 25786568 
2390.508 25809212 25827320 25840508 25850636 25860446 25872508 25887560 
2393.883 25904478 25920798 25933916 25942392 25946614 25947880 25947916 
2397.258 25947318 25946016 25942886 25937222 25929590 25921430 25914888 
2400.633 25911476 25911124 25912532 25913728 25913060 25910772 25907996 
2404.009 25906904 25908946 25914256 25921502 25928430 25933670 25936836 
2407.384 25938770 25940916 25944328 25948478 25952066 25953826 25953192 
2410.759 25951574 25951538 25955830 25965890 25980664 25997232 26012324 
2414.134 26023158 26029386 26032622 26036106 26041806 26050740 26061506 
2417.510 26072134 26080822 26087016 26091802 26096938 26103694 26111506 
2420.885 26118718 26122802 26122308 26117768 26111224 26105348 26102286 
2424.260 26102076 26102954 26101934 26096796 26087158 26074386 26061262 
2427.635 26049898 26041382 26034944 26028824 26021436 26012466 26002720 
2431.010 25993784 25987066 25982668 25979714 25976584 25972398 25967156 
2434.386 25961986 25957904 25955232 25952804 25948302 25939228 25924104 
2437.761 25903494 25879260 25853942 25829500 25806398 25784106 25761814 
2441.136 25739278 25717938 25699940 25686932 25679516 25676140 25673680 
2444.511 25669004 25660322 25647774 25633364 25619618 25607670 25596844 
2447.887 25584824 25569080 25548276 25523502 25497782 25475048 25458604 
2451.262 25448800 25443778 25440440 25435836 25427792 25416866 25404290 
2454.637 25391994 25380578 25370074 25359326 25348084 25336492 25326202 
2458.012 25318968 25316122 25317386 25321952 25327818 25333788 25339656 
2461.388 25346398 25355250 25367158 25381912 25398774 25416480 25434432 
2464.763 25452736 25472270 25494092 25517986 25543214 25568026 25590344 
2468.138 25609426 25625244 25638880 25650938 25661798 25670516 25675894 
2471.513 25677054 25674346 25669250 25664224 25660708 25659338 25658776 
2474.889 25657440 25653678 25647668 25640638 25635154 25633328 25635682 
2478.264 25640884 25646404 25649566 25649004 25645102 25639866 25635472 
2481.639 25633292 25633468 25635226 25637686 25641130 25646718 25656210 
2485.014 25671114 25691046 25714072 25737344 25758052 25774788 25788256 
2488.390 25800210 25812692 25827074 25842580 25857704 25870400 25879296 
2491.765 25884748 25887876 25889742 25891464 25892802 25893294 25892590 
2495.140 25891464 25891044 25893118 25897902 25904266 25909050 25909612 
2498.515 25903810 25892240 25877714 25864772 25857422 25858020 25866318 
2501.891 25879472 25894278 25907572 25917526 25923928 25926952 25926354 
2505.266 25922450 25914782 25903914 25891148 25878874 25869168 25863296 
2508.641 25859990 25856472 25849580 25836956 25817756 25794304 25770078 
2512.016 25747892 25729856 25715514 25702856 25689886 25675402 25659760 
2515.392 25644188 25630444 25618846 25609110 25599832 25590166 25580116 
2518.767 25570838 25563598 25559416 25557202 25554882 25549260 25538366 
2522.142 25521640 25500838 25478490 25457304 25438050 25419958 25400460 
2525.517 25377450 25349772 25318124 25284654 25251500 25220246 25190962 
2528.893 25162522 25133556 25103434 25072016 25040108 25008238 24976230 
2532.268 24943032 24907834 24869868 24830152 24790124 24752132 24717688 
2535.643 24686650 24657822 24629556 24600380 24570470 24541474 24514726 
2539.018 24491516 24471394 24452746 24433292 24411876 24388358 24364246 
2542.394 24341818 24322332 24305442 24289534 24272224 24251552 24227484 
2545.769 24201488 24176020 24153110 24133774 24117312 24102532 24088662 
2549.144 24076228 24067368 24064146 24068524 24080606 24098574 24119588 
2552.519 24141200 24161692 24181028 24199946 24219250 24238694 24257824 
2555.895 24275730 24292336 24308806 24327660 24351070 24380088 24413978 
2559.270 24449836 24484506 24515144 24541054 24563388 24584986 24608340 
2562.645 24634780 24663818 24693768 24722950 24749818 24774584 24798474 
2566.020 24822046 24846606 24871694 24896886 24921590 24946120 24971176 
2569.396 24997710 25026104 25055798 25085144 25112352 25136224 25156694 
2572.771 25174846 25192226 25210204 25229062 25248374 25267338 25285988 
2576.146 25304426 25323884 25344958 25367684 25390484 25410964 25426774 
2579.521 25436574 25440474 25440194 25437946 25435274 25432676 25429022 
2582.896 25423014 25413598 25401126 25387252 25374324 25364594 25359290 
2586.272 25358588 25361820 25368282 25377450 25389218 25403552 25419888 
2589.647 25437172 25454248 25470058 25484534 25498448 25513276 25529932 
2593.022 25548874 25568834 25588446 25606228 25621798 25635964 25650620 
2596.397 25667492 25687144 25708834 25730454 25749896 25765436 25776582 
2599.773 25784106 25788922 25791560 25791700 25788148 25779604 25766174 
2603.148 25748842 25729610 25711048 25694596 25680570 25668232 25655962 
2606.523 25642712 25628336 25613400 25599058 25586266 25574880 25564688 
2609.898 25555164 25546168 25538192 25532286 25529160 25528738 25529546 
2613.274 25529722 25527368 25521534 25512538 25501540 25490190 25479686 
2616.649 25470128 25460888 25451296 25441072 25430426 25420660 25412580 
2620.024 25406432 25401444 25396456 25389850 25380824 25369476 25356514 
2623.399 25342536 25327994 25312400 25295260 25276154 25255890 25235944 
2626.775 25218842 25206376 25199108 25195946 25194894 25193244 25189206 
2630.150 25182430 25173512 25164066 25155464 25148372 25142720 25138366 
2633.525 25135488 25135136 25138646 25147564 25162836 25183974 25209642 
2636.900 25237664 25266390 25294768 25322410 25349946 25377906 25406398 
2640.276 25435100 25463452 25491034 25517740 25543708 25569642 25595508 
2643.651 25621448 25647000 25671886 25696248 25720398 25744834 25770112 
2647.026 25796202 25822784 25848948 25874338 25898746 25922380 25945664 
2650.401 25968774 25991216 26011866 26029246 26041770 26049192 26051796 
2653.777 26050250 26046308 26040820 26034346 26027450 26019956 26012498 
2657.152 26006096 26002052 26001278 26004620 26012114 26023158 26037408 
2660.527 26054366 26074138 26097184 26123822 26154226 26187904 26224120 
2663.902 26261712 26299904 26337924 26375630 26412602 26448590 26483490 
2667.278 26516664 26548012 26577212 26604548 26629456 26651826 26670886 
2670.653 26686036 26696994 26704076 26708270 26711616 26715458 26721238 
2674.028 26729270 26739524 26751576 26765602 26781602 26800878 26824070 
2677.403 26851774 26883496 26918042 26953826 26989646 27024942 27059712 
2680.779 27094554 27129964 27166292 27203296 27240442 27277522 27314782 
2684.154 27352750 27391886 27432296 27473664 27515106 27555740 27595210 
2687.529 27633770 27672720 27713190 27756704 27803824 27854588 27908646 
2690.904 27965676 28026108 28090578 28159902 28234788 28315024 28400232 
2694.280 28489842 28583502 28681716 28785652 28896836 29015948 29143032 
2697.655 29277062 29415640 29556846 29698456 29839084 29977944 30114258 
2701.030 30247274 30375962 30498964 30614608 30722206 30820514 30908702 
2704.405 30985594 31049792 31100190 31135466 31155364 31160776 31153834 
2707.781 31137244 31113538 31085454 31054810 31022674 30990006 30957732 
2711.156 30926704 30897958 30872450 30850750 30833176 30819838 30810980 
2714.531 30806710 30807280 30812616 30822398 30836306 30853738 30874370 
2717.906 30898776 30927916 30962606 31003670 31050256 31101258 31154012 
2721.281 31206416 31256474 31303552 31347710 31389524 31429414 31466998 
2724.657 31501196 31530588 31553998 31570922 31581722 31587850 31590666 
2728.032 31591878 31592588 31593480 31594976 31597256 31600572 31604632 
2731.407 31609230 31613934 31618140 31621988 31625658 31629826 31635460 
2734.782 31642694 31651604 31661120 31669640 31676158 31679864 31681220 
2738.158 31681362 31682290 31685818 31693448 31706348 31725098 31750228 
2741.533 31781956 31820494 31865564 31916908 31973578 32034676 32099460 
2744.908 32167784 32239582 32314640 32392744 32472934 32553532 32633464 
2748.283 32712270 32790624 32870278 32953772 33043396 33140660 33245702 
2751.659 33357746 33475298 33597288 33723032 33852572 33986020 34123348 
2755.034 34263876 34406776 34550908 34695628 34840788 34986968 35134496 
2758.409 35283864 35435264 35588332 35742464 35897372 36052728 36208284 
2761.784 36363496 36517544 36669304 36817580 36961756 37102084 37239064 
2765.160 37373776 37506436 37636604 37762872 37883392 37996280 38100916 
2768.535 38197544 38287244 38371532 38451784 38528612 38602192 38672488 
2771.910 38739680 38804312 38867396 38929728 38991668 39053292 39114124 
2775.285 39174644 39235856 39300124 39370100 39448612 39537336 39636752 
2778.661 39746176 39864344 39989552 40121344 40259312 40403476 40553836 
2782.036 40709844 40870320 41034788 41202520 41373856 41549924 41731976 
2785.411 41920668 42115832 42315984 42518924 42722220 42923600 43121192 
2788.786 43314296 43502216 43684572 43861364 44033016 44200152 44363612 
2792.162 44524704 44684280 44843180 45001588 45159576 45317176 45474468 
2795.537 45632040 45789816 45947756 46104544 46258728 46408252 46552112 
2798.912 46690184 46823836 46955056 47085912 47217692 47349992 47481228 
2802.287 47608764 47730124 47843456 47947752 48043304 48130544 48210360 
2805.663 48283488 48350408 48411412 48467232 48518176 48564976 48607144 
2809.038 48644424 48676076 48701836 48722148 48738388 48752732 48767708 
2812.413 48785132 48806228 48830956 48858616 48888244 48919580 48952328 
2815.788 48987080 49023576 49061860 49100552 49138212 49173204 49204296 
2819.164 49230940 49253360 49271804 49286356 49297044 49303428 49304800 
2822.539 49300680 49290732 49275144 49254400 49229196 49200476 49169712 
2825.914 49138436 49108532 49082080 49060932 49046388 49039084 49038824 
2829.289 49045724 49059596 49080964 49110904 49150716 49201812 49265012 
2832.665 49340584 49428456 49528340 49640136 49764632 49902656 50055668 
2836.040 50224728 50410676 50613604 50833128 51068040 51317552 51580524 
2839.415 51856912 52146628 52450704 52770336 53106640 53460968 53833772 
2842.790 54224768 54632796 55055580 55490032 55931776 56375592 56814956 
2846.166 57241908 57647112 58020576 58351228 58628584 58843168 58987144 
2849.541 59055620 59046284 58960008 58800300 58572768 58284912 57944124 
2852.916 57557824 57132560 56673020 56182776 55664160 55119112 54549804 
2856.291 53959096 53351104 52730452 52101836 51469572 50837524 50209036 
2859.667 49587508 48976804 48382072 47808428 47261876 46746820 46266620 
2863.042 45822920 45416124 45045836 44711604 44413152 44150376 43922508 
2866.417 43728252 43565508 43431536 43323852 43240244 43179636 43140808 
2869.792 43123092 43125032 43143804 43175532 43216012 43261000 43306576 
2873.167 43350324 43390744 43427616 43461452 43493208 43524524 43556864 
2876.543 43591808 43630604 43674128 43722204 43773988 43828372 43883944 
2879.918 43939112 43993268 44045700 44095908 44143880 44189332 44232104 
2883.293 44272168 44309480 44344232 44376416 44406216 44433484 44458372 
2886.668 44481020 44501944 44521692 44541264 44560756 44580144 44598684 
2890.044 44615316 44628976 44638892 44645060 44648144 44648916 44648144 
2893.419 44646012 44642232 44635768 44625892 44612052 44594168 44573056 
2896.794 44549928 44526064 44502936 44481716 44463588 44449196 44439104 
2900.169 44433560 44432568 44436092 44443876 44455912 44472392 44493536 
2903.545 44519604 44550956 44588108 44631768 44682996 44744036 44817868 
2906.920 44907920 45018384 45152884 45315044 45507584 45732676 45992180 
2910.295 46286780 46616584 46979756 47372384 47789156 48222612 48664440 
2913.670 49107044 49542712 49964768 50367364 50744448 51090220 51398700 
2917.046 51664824 51885552 52060184 52191088 52282944 52341848 52373920 
2920.421 52383676 52373772 52344948 52296436 52226588 52133328 52014688 
2923.796 51868600 51692552 51484160 51241004 50961096 50643984 50290276 
2927.171 49901984 49482404 49036264 48568900 48086756 47598040 47111948 
2930.547 46638532 46189224 45773984 45401960 45079800 44811552 44598132 
2933.922 44438076 44327428 44261048 44232216 44234524 44261380 44306732 
2937.297 44365664 44434148 44508844 44587524 44668192 44749768 44831424 
2940.672 44913172 44995084 45077928 45162004 45247488 45333984 45421164 
2944.048 45508760 45597152 45687696 45782344 45883676 45994684 46118172 
2947.423 46256852 46412860 46587996 46782872 46996368 47225044 47461860 
2950.798 47696544 47917040 48108960 48259268 48357184 48395036 48368668 
2954.173 48277708 48123952 47911012 47643776 47328120 46970972 46580696 
2957.549 46167036 45739560 45308276 44882164 44467952 44071008 43694648 
2960.924 43340476 43009084 42700248 42412928 42145624 41896768 41664316 
2964.299 41446500 41241396 41047716 40863692 40688340 40520624 40360024 
2967.674 40206644 40060696 39922856 39793708 39673456 39561620 39457504 
2971.050 39360268 39269440 39185008 39107600 39038352 38978580 38929216 
2974.425 38891456 38866236 38854712 38858336 38878520 38916752 38973436 
2977.800 39048504 39140916 39249056 39371260 39506308 39653196 39811320 
2981.175 39979888 40157976 40344096 40536116 40731900 40929080 41125112 
2984.551 41317296 41502344 41676608 41836092 41977052 42096048 42191448 
2987.926 42262292 42309004 42332456 42333772 42313680 42272700 42211060 
2991.301 42129380 42028700 41911288 41780272 41639920 41495564 41352424 
2994.676 41216076 41091056 40980456 40885828 40807164 40743072 40692016 
2998.052 40653116 40626228 40612840 40614440 40633180 40669488 40722656 
3001.427 40790456 40869700 40957040 41049752 41145908 41244272 41344372 
3004.802 41445952 41548540 41652280 41757288 41864296 41974388 42088272 
3008.177 42206276 42327744 42451292 42575240 42697980 42818636 42937020 
3011.552 43053792 43169608 43284900 43399676 43513896 43627124 43739760 
3014.928 43852600 43966980 44084248 44205284 44330544 44459692 44592000 
3018.303 44726296 44861660 44997360 45133068 45268632 45404460 45541140 
3021.678 45679928 45821592 45966948 46116148 46268460 46422484 46576416 
3025.053 46728888 46879128 47027164 47173740 47319660 47464556 47607172 
3028.429 47745400 47877232 48001408 48118732 48231980 48345444 48463864 
3031.804 48590468 48726744 48871408 49021832 49174316 49325884 49475280 
3035.179 49623048 49771024 49922020 50078980 50244072 50418716 50603628 
3038.554 50798824 51004204 51219308 51443348 51675276 51913556 52156644 
3041.930 52402216 52647856 52890792 53127160 53352904 53563356 53753588 
3045.305 53919332 54058044 54169212 54254800 54319080 54368120 54408528 
3048.680 54446352 54486804 54533008 54586656 54648092 54717200 54793240 
3052.055 54875752 54964268 55057912 55155640 55256060 55357260 55457840 
3055.431 55556412 55652296 55745524 55836508 55926200 56015752 56105704 
3058.806 56196844 56289624 56383856 56479544 56575968 56672304 56767488 
3062.181 56860616 56951424 57039752 57126552 57212916 57299828 57387624 
3065.556 57475932 57563196 57647680 57727296 57800496 57866812 57927124 
3068.932 57982556 58035156 58086552 58138104 58190644 58244408 58299804 
3072.307 58357032 58416648 58479916 58547668 58621232 58701256 58788232 
3075.682 58881760 58980960 59084436 59190480 59297384 59404008 59509256 
3079.057 59613124 59715568 59816860 59917112 60016012 60112544 60205368 
3082.433 60292344 60371496 60440532 60497544 60541152 60571172 60587968 
3085.808 60593836 60591512 60585112 60578296 60574716 60576996 60586560 
3089.183 60603856 60628808 60660964 60700328 60746852 60800896 60862680 
3092.558 60931948 61008320 61090996 61179448 61273220 61372512 61477360 
3095.934 61588036 61704392 61825516 61949848 62075092 62198848 62318468 
3099.309 62431844 62537484 62634916 62724644 62808184 62887868 62966160 
3102.684 63045764 63128560 63215852 63308612 63407144 63511788 63622796 
3106.059 63740656 63865848 63998824 64139872 64289920 64450780 64626040 
3109.435 64821140 65043540 65302520 65607668 65968952 66395932 66897192 
3112.810 67480960 68155240 68926944 69802304 70785272 71876672 73072288 
3116.185 74361744 75727264 77139904 78561008 79940808 81215984 82319696 
3119.560 83181688 83735096 83929896 83734096 83140840 82167976 80857288 
3122.936 79268872 77468096 75526528 73511056 71477240 69474176 67540408 
3126.311 65704176 63987196 62402884 60957340 59649992 58475104 57422796 
3129.686 56480640 55636512 54878500 54195672 53579176 53020900 52514456 
3133.061 52054728 51637396 51259012 50915864 50604076 50318476 50053548 
3136.437 49803612 49563400 49329556 49099440 48872484 48648724 48428668 
3139.812 48212768 48001260 47794072 47591276 47393004 47199184 47009812 
3143.187 46824204 46641820 46461680 46283280 46106200 45930264 45755132 
3146.562 45580040 45404056 45225684 45044368 44859896 44673300 44486124 
3149.938 44300092 44116556 43935592 43756320 43576976 43395868 43211804 
3153.313 43024344 42833668 42640664 42446104 42251156 42056476 41863164 
3156.688 41672012 41484156 41299440 41117608 40937344 40757156 40575404 
3160.063 40391476 40205592 40019052 39833000 39648768 39466284 39284964 
3163.438 39103500 38921060 38737504 38553596 38370844 38190596 38014004 
3166.814 37841024 37671188 37503472 37337052 37171308 37005776 36840448 
3170.189 36675000 36509652 36344552 36180696 36019356 35862388 35711380 
3173.564 35566972 35428756 35294860 35162912 35030104 34894824 34756212 
3176.939 34614524 34471088 34327160 34183996 34042712 33903548 33766540 
3180.315 33631544 33497810 33364474 33230536 33095348 32958526 32820638 
3183.690 32682724 32545924 32411200 32278948 32148696 32019160 31889488 
3187.065 31758926 31627656 31496138 31365126 31234720 31104746 30974242 
3190.440 30842460 30709404 30575498 30442202 30310546 30181276 30053890 
3193.816 29926826 29798094 29666208 29530496 29391636 29251152 29111284 
3197.191 28973302 28838018 28705680 28575684 28447350 28320366 28194548 
3200.566 28069724 27945922 27822934 27700582 27579146 27458946 27340682 
3203.941 27224920 27111800 27000542 26890088 26778572 26664756 26548118 
3207.317 26428836 26308178 26187974 26069810 25955338 25845218 25739664 
3210.692 25638072 25539350 25442056 25344642 25246094 25145914 25044848 
3214.067 24944576 24846994 24754238 24667044 24584986 24506802 24429682 
3217.442 24351104 24269666 24184882 24097488 24008570 23919388 23830192 
3220.818 23740840 23650594 23559390 23467294 23375184 23284384 23196052 
3224.193 23110988 23028874 22949432 22871680 22795096 22718906 22643396 
3227.568 22568562 22494890 22423116 22354180 22288986 22228372 22172296 
3230.943 22119996 22069270 22017084 21959958 21895484 21822522 21742044 
3234.319 21656602 21569750 21485142 21405076 21331360 21263710 21201776 
3237.694 21144408 21090282 21038772 20988938 20939978 20890988 20841170 
3241.069 20790246 20737728 20684140 20629794 20575420 20521504 20468810 
3244.444 20417236 20367158 20318270 20269870 20220644 20169516 20114852 
3247.820 20056100 19992880 19926376 19858078 19789582 19722172 19656262 
3251.195 19591472 19526934 19461920 19396398 19330468 19265174 19200788 
3254.570 19137556 19074990 19012398 18948846 18884472 18819348 18754198 
3257.945 18689300 18625138 18561366 18497880 18434474 18371870 18311142 
3261.321 18253568 18199974 18150222 18103552 18058232 18012604 17965670 
3264.696 17917396 17868814 17821656 17777608 17738224 17704228 17675618 
3268.071 17651736 17630550 17609950 17586314 17556470 17517278 17467156 
3271.446 17406072 17335858 17259724 17181434 17104330 17030614 16960874 
3274.822 16895418 16834380 16777998 16727548 16683646 16646564 16615029 
3278.197 16586043 16556026 16521571 16480615 16433192 16381131 16327837 
3281.572 16276510 16229695 16188972 16154272 16124628 16099045 16076248 
3284.947 16054794 16033443 16011028 15986860 15960803 15934130 15908834 
3288.323 15887421 15871853 15862675 15858380 15856421 15852848 15844153 
3291.698 15828621 15805941 15777834 15746361 15713928 15681567 15648933 
3295.073 15614723 15576977 15534255 15486112 15433305 15377861 15322184 
3298.448 15269398 15221490 15180553 15147580 15123118 15107679 15101298 
3301.823 15103837 15114712 15132038 15153036 15173210 15187209 15189440 
3305.199 15175098 15141472 15088124 15017324 14933195 14841299 14746851 
3308.574 14654377 14567098 14486345 14412525 14345123 14283208 14225994 
3311.949 14172587 14122335 14075170 14031467 13991908 13957314 13928128 
3315.324 13903906 13883687 13865829 13848794 13831827 13814793 13799195 
3318.700 13786745 13779050 13777237 13780862 13788763 13799230 13811166 
3322.075 13823412 13836137 13849546 13863503 13877152 13889126 13897748 
3325.450 13901442 13899663 13892787 13882250 13870140 13858543 13849546 
3328.825 13844655 13845031 13851154 13862922 13879547 13899322 13920156 
3332.201 13939830 13956458 13968947 13977536 13983216 13987391 13991257 
3335.576 13995398 13999230 14001181 13998854 13990026 13972095 13943764 
3338.951 13903803 13852693 13791807 13723475 13650947 13576928 13503707 
3342.326 13432344 13362223 13291737 13219145 13143662 13065496 12987035 
3345.702 12911012 12840497 12777262 12721474 12671493 12624314 12576595 
3349.077 12525403 12468521 12404965 12334635 12258249 12177072 12093253 
3352.452 12009108 11927467 11850541 11779925 11716197 11658333 11605071 
3355.827 11554911 11507072 11461345 11418074 11377358 11338925 11301447 
3359.203 11263088 11222420 11178595 11132224 11084839 11038749 10995894 
3362.578 10957460 10924059 10895620 10872109 10854001 10841568 10835079 
3365.953 10833414 10834536 10834672 10829440 10815104 10788983 10749718 
3369.328 10698197 10636291 10567062 10493294 10418725 10346748 10280312 
3372.704 10221994 10173419 10134753 10104501 10080320 10059702 10040306 
3376.079 10021080 10001956 9983817 9967374 9952761 9939845 9927302 9914014 
3379.936 9899165 9882420 9864049 9844526 9824156 9803177 9781623 9759800 
3383.794 9738485 9718697 9701620 9688643 9680071 9676141 9676445 9680477 
3387.651 9687897 9698333 9711005 9724219 9735199 9741027 9738248 9724593 
3391.509 9699620 9664723 9623222 9578542 9534374 9493088 9455024 9420350 
3395.366 9388624 9359743 9335030 9316173 9304934 9302057 9306796 9316681 
3399.223 9327210 9334454 9334386 9324636 9304698 9276500 9242584 9206234 
3403.081 9170294 9136454 9105289 9076429 9049091 9023008 8998482 8976190 
3406.938 8957215 8942434 8931948 8925015 8920652 8917607 8914496 8910911 
3410.796 8905940 8899311 8890112 8876956 8858966 8835226 8806518 8774296 
3414.653 8741231 8710061 8683153 8661723 8645532 8633398 8623563 8614673 
3418.510 8605278 8594902 8583412 8570908 8557999 8545428 8534343 8526233 
3422.368 8522246 8522821 8527619 8534952 8542791 8548874 8552152 8552591 
3426.225 8551409 8549956 8549516 8550023 8549821 8546982 8539277 8525524 
3430.083 8506567 8483997 8460650 8438791 8419805 8403894 8390077 8377308 
3433.940 8364539 8351603 8338430 8325730 8313537 8301480 8289288 8275745 
3437.798 8259941 8241165 8218912 8192946 8163470 8131059 8097199 8063780 
3441.655 8033030 8006535 7985205 7968500 7954023 7939039 7920716 7897366 
3445.512 7868922 7837545 7806407 7779217 7758607 7745654 7739852 7738976 
3449.370 7740089 7740696 7738537 7732533 7722583 7709497 7694927 7679987 
3453.227 7666227 7654018 7643565 7633954 7624141 7612912 7599795 7585094 
3457.085 7569786 7554682 7541095 7528856 7517427 7505460 7491773 7475660 
3460.942 7457929 7439862 7423750 7411347 7403663 7400764 7400798 7401741 
3464.800 7401236 7397798 7390788 7380677 7368780 7356851 7346471 7338619 
3468.657 7333228 7329386 7325713 7320153 7311425 7298385 7280931 7259805 
3472.514 7236019 7210886 7185722 7161097 7137956 7117241 7099357 7085144 
3476.372 7075175 7069046 7065409 7062176 7055844 7043687 7023887 6996174 
3480.229 6962570 6926411 6892408 6864737 6846089 6837539 6837809 6843969 
3484.087 6852181 6858476 6859755 6854437 6842050 6824177 6802939 6781028 
3487.944 6761071 6744749 6732533 6724087 6718198 6713487 6708137 6701037 
3491.802 6690807 6676608 6657934 6634517 6607098 6576922 6546513 6518494 
3495.659 6495388 6478302 6467237 6460747 6455937 6450052 6440905 6427386 
3499.516 6409900 6389152 6366725 6343896 6321975 6302308 6286642 6277397 
3503.374 6276691 6285801 6304628 6330481 6359127 6385420 6404251 6412792 
3507.231 6410539 6399610 6384647 6370458 6362051 6361715 6370256 6385656 
3511.089 6405360 6425436 6442586 6454760 6460444 6459704 6452944 6441746 
3514.946 6427823 6413195 6399845 6389926 6385050 6386732 6395642 6411446 
3518.803 6432363 6456072 6478874 6497372 6509009 6512776 6510186 6504065 
3522.661 6498683 6497977 6504166 6517317 6535514 6555461 6573659 6588326 
3526.518 6599495 6608746 6619108 6633239 6653291 6679502 6711131 6746466 
3530.376 6783721 6821450 6858375 6893519 6925905 6953850 6976206 6991998 
3534.233 7001022 7004019 7003245 7000753 6999406 7001022 7007151 7017556 
3538.091 7032103 7049345 7068373 7087872 7106733 7123742 7137283 7146242 
3541.948 7148904 7143885 7130243 7107441 7076118 7037491 6994658 6951729 
3545.805 6913752 6885945 6872042 6873759 6889648 6915469 6944928 6970617 
3549.663 6986409 6988799 6977048 6953951 6924525 6895101 6870224 6852586 
3553.520 6841780 6835419 6829629 6820844 6806607 6785773 6758749 6726611 
3557.378 6690437 6651474 6610294 6567537 6524212 6481497 6440703 6403208 
3561.235 6369550 6338852 6309099 6275817 6233967 6178005 6102829 6006130 
3565.093 5888831 5757225 5622807 5500947 5408173 5357785 5355504 5398511 
3568.950 5475780 5572528 5672219 5761120 5829991 5874523 5894507 5893667 
3572.807 5877512 5851954 5822032 5791307 5761993 5734596 5709147 5685311 
3576.665 5662484 5640295 5618511 5597466 5577529 5559272 5543029 5529169 
3580.522 5517557 5507390 5497860 5487692 5475243 5458064 5433101 5395659 
3584.380 5341315 5266451 5169570 5054474 4930360 4813015 4719987 4667870 
3588.237 4666161 4713890 4800251 4907136 5015691 5108346 5172855 5203672 
3592.094 5201526 5171816 5123199 5066374 5010830 4963940 4930594 4911928 
3595.952 4906634 4911090 4920072 4927980 4929254 4920172 4899328 4868400 
3599.809 4831543 4795259 4766549 4750637 4750134 4764606 4790669 4822731 
3603.667 4854260 4878385 4888538 4878955 4845180 4785208 4700492 4596738 
3607.524 4484506 4377524 4288704 4227237 4195018 4185851 4187390 4187123 
3611.382 4174544 4145674 4103961 4058306 4020549 3999112 3996771 4007907 
3615.239 4022053 4024996 4004128 3951897 3867142 3756435 3633226 3516299 
3619.096 3423815 3370784 3364573 3403343 3477719 3573088 3674660 3768968 
3622.954 3846483 3902045 3934276 3943036 3927656 3884159 3804966 3680708 
3626.811 3504106 3277463 3017438 2761304 2557778 2449403 2456800 2568210 
3630.669 2749199 2955584 3150485 3309113 3420408 3486704 3519405 3533836 
3634.526 3543122 3555148 3570716 3585650 3594570 3593835 3583278 3566072 
3638.384 3546597 3528157 3511722 3495890 3478120 3456544 3431829 3405948 
3642.241 3382271 3362269 3344105 3322001 3286911 3228624 3138036 3009831 
3646.098 2844508 2649011 2433908 2214650 2007752 1829167 1694495 1618362 
3649.956 1612342 1683319 1828868 2035814 2280796 2534514 2767439 2952315 
3653.813 3070959 3115976 3093217 3022643 2934467 2863252 2835136 2860984 
3657.671 2934967 3040494 3155825 3261773 3345941 3402475 3431863 3438743 
3661.528 3430026 3413094 3394260 3378765 3369950 3369315 3376361 3387915 
3665.385 3399102 3402208 3388750 3349915 3278799 3172413 3036657 2889502 
3669.243 2759703 2685616 2703520 2832668 3069991 3389084 3753294 4122024 
3673.100 4462277 4751943 4978050 5138790 5239353 5289090 5294389 5254176 
3676.958 5161522 5009355 4797035 4534056 4241256 3947283 3684116 3474647 
3680.815 3328846 3241075 3195878 3174316 3161666 3151353 3142342 3135166 
3684.673 3127323 3109636 3067989 2988211 2860084 2684849 2477394 2266040 
3688.530 2082655 1953463 1891327 1893990 1949635 2043437 2163166 2298883 
3692.387 2442472 2585609 2719257 2834236 2924627 2988011 3027214 3048636 
3696.245 3061249 3072461 3085008 3097255 3103328 3096120 3069758 3023144 
3700.102 2960154 2890636 2827432 2783512 2768740 2786447 2833536 2900776 
3703.960 2976868 3049370 3107400 3143510 3153489 3136134 3092850 3026480 
3707.817 2940739 2838838 2724292 2601408 2475661 2355113 2251352 2176752 
3711.675 2144452 2162433 2232135 2346818 2493023 2653778 2811091 2950113 
3715.532 3060348 3135900 3177019 3189102 3181091 3162400 3140873 3120649 
3719.389 3100959 3078767 3050271 3014035 2971831 2929030 2891537 2864620 
3723.247 2849411 2843241 2840906 2837905 2832602 2828533 2833369 2856148 
3727.104 2903178 2974399 3060748 3146013 3211633 3238171 3211833 3127524 
3730.962 2990747 2817961 2631209 2452868 2297483 2168560 2061148 1968474 
3734.819 1889131 1831397 1810601 1841745 1931397 2071735 2243792 2422713 
3738.677 2587709 2725325 2830767 2905379 2950546 2963323 2932766 2841073 
3742.534 2670747 2415883 2097471 1771674 1512781 1387614 1416002 1567414 
3746.391 1778760 1984950 2134563 2195734 2161268 2045502 1883074 1714687 
3750.249 1577789 1496456 1478236 1521194 1618462 1762691 1943478 2146550 
3754.106 2354580 2547479 2707221 2822697 2889402 2911550 2899409 2866387 
3757.964 2825031 2784346 2751800 2733361 2735828 2765838 2826098 2912585 
3761.821 3012200 3106799 3176686 3206693 3191906 3139571 3067889 2998254 
3765.678 2948912 2926294 2924026 2926261 2916521 2884866 2831735 2769407 
3769.536 2716256 2691784 2707454 2764004 2851646 2955584 3060448 3154023 
3773.393 3229658 3285643 3324171 3349180 3364273 3370851 3367479 3350382 
3777.251 3315290 3260070 3187767 3108367 3036156 2988011 2976034 3002891 
3781.108 3061382 3136301 3211032 3270953 3308913 3326108 3329881 3330148 
3784.966 3335056 3348579 3368981 3392123 3413094 3429759 3442918 3454907 
3788.823 3467599 3481560 3495990 3509083 3520541 3531297 3543089 3556451 
3792.680 3568311 3571986 3557387 3515964 3444120 3347177 3239406 3141274 
3796.538 3072794 3044231 3051872 3077633 3096821 3081838 3012000 2880897 
3800.395 2700752 2505320 2338556 2244291 2245490 2336258 2486658 2654611 
3804.253 2800053 2889836 2906981 2853246 2752067 2641477 2563544 2549979 
3808.110 2608175 2723692 2868622 3015303 3143176 3242844 3315090 3366210 
3811.968 3401873 3422044 3419774 3383039 3300933 3170444 3002791 2824364 
3815.825 2672514 2579709 2559311 2600808 2675481 2746765 2780244 2754301 
3819.682 2663913 2525316 2372937 2252318 2203727 2244258 2364108 2532581 
3823.540 2713122 2871591 2985742 3048169 3064953 3054041 3036724 3033354 
3827.397 3053741 3095453 3146513 3191305 3216773 3216306 3191639 3151219 
3831.255 3106999 3068823 3042296 3026614 3016537 3003959 2980738 2940105 
3835.112 2877294 2789982 2679382 2551712 2419648 2299515 2209821 2164964 
3838.969 2169726 2218946 2299915 2396625 2494023 2582176 2657012 2719524 
3842.827 2774642 2828966 2888335 2956551 3034922 3121683 3213002 3303003 
3846.684 3384542 3451200 3497259 3519171 3515798 3486003 3427822 3336425 
3850.542 3202487 3014202 2762571 2450336 2101100 1763589 1504536 1378440 
3854.399 1406263 1567281 1816390 2103897 2389662 2649911 2871591 3049970 
3858.257 3185197 3278298 3331116 3346008 3327744 3283139 3220813 3149851 
3862.114 3076999 3005527 2937236 2874126 2821829 2790482 2790915 2829000 
3865.971 2900176 2988345 3068290 3112072 3099791 3024712 2900143 2757102 
3869.829 2637010 2575109 2583242 2648911 2742597 2833569 2899242 2932666 
3873.686 2942140 2947377 2969462 3021776 3104963 3207193 3308880 3387948 
3877.544 3427421 3417402 3358363 3260203 3143510 3034955 2959153 2933500 
3881.401 2961422 3031151 3119080 3196078 3237069 3225052 3158662 3054008 
3885.259 2943141 2864453 2846343 2899008 3009297 3148516 3280968 3377029 
3889.116 3417269 3395729 3321767 3217274 3112105 3033220 2999088 3014569 
3892.973 3072594 3158362 3254528 3347043 3423948 3477719 3503973 3500532 
3896.831 3466664 3403443 3314422 3205524 3086076 2967493 2861051 2774875 
3900.688 2712622 2671714 2646077 2627909 2612242 2598975 2593542 2605042 
3904.546 2642843 2712589 2813559 2938837 3077666 3218276 3349781 3464894 
3908.403 3559458 3632391 3684584 3718536 3737285 3744504 3743902 3739190 
3912.260 3732807 3725220 3714994 3698720 3672254 3632391 3579369 3516466 
3916.118 3451167 3391889 3346475 3319597 3311718 3320064 3340499 3368981 
3919.975 3402608 3439344 3477018 3512257 3540851 3558422 3561897 3551641 
3923.833 3532032 3511154 3497927 3499931 3520341 3556485 3601686 3646224 
3927.690 3681443 3700892 3701961 3685152 3654210 3614482 3571284 3530428 
3931.548 3497793 3477987 3475381 3492282 3528324 3579770 3640443 3702964 
3935.405 3759276 3804030 3834215 3850194 3854606 3851163 3843274 3832443 
3939.262 3817869 3797680 3770005 3733676 3690733 3645455 3604492 3574424 
3943.120 3560059 3562999 3580939 3608602 3638539 3663499 3678235 3680173 
3946.977 3669747 3650200 3626878 3605294 3590694 3586485 3594336 3613814 
3950.835 3643150 3679271 3718536 3757638 3792900 3822014 3843174 3856311 
3954.692 3862028 3862396 3859755 3856679 3854840 3855375 3858283 3862630 
3958.550 3867444 3871221 3873294 3873127 3870786 3866942 3862061 3857247 
3962.407 3853369 3850929 3850595 3852601 3856980 3863298 3871589 3881217 
3966.264 3892016 3903650 3915653 3927455 3938154 3946681 3952064 3953769 
3970.122 3951596 3946079 3938857 3932003 3927154 3925784 3928793 3935948 
3973.979 3946647 3959989 3974701 3989916 4004798 4018642 4030448 4039611 
3977.837 4045430 4047570 4046199 4042119 4036534 4030648 4025832 4023123 
3981.694 4022990 4025765 4031083 4038842 4048306 4058942 4070179 4081585 
3985.552 4092522 4103058 4112892 4121990 4130520 4138247 4144971 4150557 
3989.409 4155040 4158352 4160961 4163136 4165043 4166682 4167886 4168087 
3993.266 4167685 4167250 4168154 4171867 4179796 4192275 4209003 4228040 
3997.124 4246710 4262637 4273311 4278130 4277159 4271638 4262905 4252867 
##END=
