
##TITLE=Z244_1_d
##JCAMP-DX=5.01  $$ Nicolet v. 1
##DATATYPE=INFRARED SPECTRUM
##ORIGIN=UniL
##OWNER=Nicolet
##LONGDATE=2011/09/20
##TIME=13:20:56
##SPECTROMETER/DATA SYSTEM=Nicolet iS5
##DATA PROCESSING=
Ratio against background
%Transmittance->Absorbance
Truncated
ElementMultiply or ElementDivide
##COMMENTS=
Number of sample scans: 32
Collection length: 51.17 sec
Sample gain: 2.0
Background collected on: Mar Sep 20 13:13:55 2011 (GMT+02:00);
Number of background scans: 32
Background gain: 2.0
Sample spacing:  1.000
Number of scan points: 12415
Resolution points: 8192
Number of FFT points: 65536
Apodization: N-B fort;
Phase correction: Mertz;
Laser frequency: 15798.0 cm-1
Number of rejected sample scans: 0
Number of rejected background scans: 0
Bench serial number: ASB1000141;
##RESOLUTION=4.000
##XUNITS=1/CM
##YUNITS=ABSORBANCE
##FIRSTX=649.893372
##LASTX=4000.122314
##FIRSTY=0.066532
##MAXX=4000.122314
##MINX=649.893372
##MAXY=0.299554
##MINY=0.003065
##XFACTOR=1.000000
##YFACTOR=1.000000E-009
##NPOINTS=6950
##DELTAX=0.482117
##ZPD=6100
##XYDATA=(X++(Y..Y))
649.893 66531660 66978328 67477048 68065936 68771480 69599584 70535080 
653.268 71549432 72614336 73712120 74841184 76013464 77249664 78571136 
656.643 80001280 81567744 83301008 85236968 87412376 89852712 92573040 
660.018 95574608 98844704 102353656 106042592 109812280 113497696 116890112 
663.393 119776768 121964536 123329992 123807736 123351296 121905528 
666.285 119402176 115828600 111333696 106329384 101426976 97170688 93835320 
669.660 91392408 89645016 88359432 87346456 86489952 85732856 85065368 
673.035 84500592 84057304 83743736 83555776 83478664 83496816 83601080 
676.410 83791072 84076360 84470976 84987944 85633000 86403592 87290672 
679.785 88285608 89387800 90609648 91975504 93519416 95276144 97272904 
683.159 99531736 102072328 104918928 108111600 111705712 115765048 120360848 
686.534 125559184 131419984 138001840 145355472 153505232 162401136 
689.427 171859376 181486144 190593600 198289872 203527632 205300288 
692.320 202959648 196335632 185848384 172384912 157177456 141558208 
695.212 126671032 113464872 102537648 94125672 88206840 84546928 82815432 
698.587 82651224 83762864 85968000 89183376 93391144 98548424 104475920 
701.962 110799848 116905504 121971520 125192312 125907776 123814168 
704.855 119058904 112206264 104101792 95607240 87511592 80359232 74400512 
708.229 69666408 66023068 63272692 61208020 59664244 58523972 57696340 
711.604 57110492 56704132 56421472 56225732 56101408 56050700 56084480 
714.979 56208192 56413660 56679400 56977412 57284212 57590700 57901452 
718.354 58229744 58587252 58978072 59396068 59830740 60273232 60723264 
721.729 61189556 61686976 62228212 62819936 63460596 64142792 64856992 
725.104 65593256 66341536 67088364 67813128 68491568 69098384 69618328 
728.478 70054600 70435504 70810616 71236024 71765224 72431120 73240744 
731.853 74179720 75221856 76345344 77539552 78810304 80172728 81643512 
735.228 83230128 84928960 86729768 88625952 90624264 92750760 95043944 
738.603 97548352 100300736 103321112 106614792 110180648 114021992 118158464 
741.978 122629616 127490696 132817880 138709568 145291584 152740112 
744.870 161262576 171051280 182201968 194579408 207694208 220542704 
747.763 231722432 239591424 242623680 240016736 231971376 219773984 
750.656 205331296 190812208 178153104 168630384 162925184 161046000 
753.548 162485920 166343344 171542384 177078176 182047760 185822048 
756.441 188051968 188588320 187427552 184623024 180238144 174335168 
759.334 167002048 158400816 148791024 138550560 128169672 118155416 
762.227 109016176 101191552 94964112 90467656 87654408 86325296 86154800 
765.601 86755336 87762024 88834584 89714464 90234664 90296056 89872192 
768.976 88995120 87751880 86269360 84697912 83199512 81905904 80906576 
772.351 80238568 79890464 79821936 79985904 80349264 80895200 81618640 
775.726 82514776 83569024 84755704 86047088 87421616 88872640 90407184 
779.101 92037216 93766520 95583616 97459224 99356720 101244176 103100664 
782.475 104920448 106705952 108456160 110157456 111782296 113290216 
785.368 114642560 115806024 116758896 117488904 117986176 118237416 
788.261 118224800 117928048 117331992 116432952 115240936 113776920 
791.154 112064664 110127224 107982248 105644032 103131080 100468232 97687904 
794.528 94827280 91917440 88979464 86024392 83057912 80091560 77151896 
797.903 74278984 71524896 68941856 66566764 64420724 62507712 60820560 
801.278 59349572 58085072 57017232 56129608 55397120 54787296 54263132 
804.653 53794280 53362416 52961420 52594556 52265752 51974836 51716404 
808.028 51484720 51281796 51123168 51039868 51074824 51269564 51658816 
811.402 52259548 53067700 54053728 55161096 56309240 57384448 58254336 
814.777 58787892 58865140 58413956 57425516 55961172 54138692 52108224 
818.152 50029716 48030976 46200940 44587228 43201340 42035524 41072372 
821.527 40292144 39671240 39181096 38791996 38473288 38201812 37966596 
824.902 37767284 37610624 37501304 37438060 37411008 37407360 37416028 
828.277 37435024 37470460 37533924 37633676 37770788 37936724 38118388 
831.651 38304072 38489036 38676944 38876596 39096360 39338464 39598856 
835.026 39870372 40148236 40434316 40737356 41069492 41440520 41853932 
838.401 42306596 42792528 43308768 43858540 44452244 45102260 45817432 
841.776 46599652 47443304 48339964 49284352 50278220 51330716 52453920 
845.151 53655164 54931816 56267936 57637388 59003844 60325084 61556036 
848.525 62642688 63526676 64151168 64463920 64435096 64067216 63402772 
851.900 62519536 61517744 60508856 59586060 58816956 58238612 57857124 
855.275 57657136 57609392 57680940 57836376 58042276 58272748 58508692 
858.650 58742028 58976024 59222716 59498844 59819976 60198248 60640924 
862.025 61151980 61734680 62390912 63118288 63902312 64711636 65492840 
865.400 66170408 66661864 66886520 66779316 66309496 65482900 64344748 
868.774 62967956 61450600 59901060 58420288 57103916 56027740 55241160 
872.149 54772076 54625284 54792072 55257792 56012060 57053888 58394932 
875.524 60056080 62064392 64447396 67222528 70387112 73899368 77669736 
878.899 81538200 85267816 88582360 91171504 92752640 93141224 92276544 
882.274 90258080 87318184 83807184 80116304 76601200 73574016 71246912 
885.648 69735736 69083272 69270320 70237552 71890904 74113456 76756320 
889.023 79623680 82490824 85092120 87137608 88371008 88582960 87661464 
892.398 85616856 82583536 78802320 74560056 70172984 65920360 62002320 
895.773 58548460 55605108 53158652 51159248 49545052 48256532 47238344 
899.148 46443980 45830944 45357416 44988320 44695444 44459180 44269932 
902.523 44122316 44011344 43929804 43866748 43811440 43757604 43705348 
905.897 43660392 43631156 43623720 43639508 43674608 43723120 43780764 
909.272 43847580 43927420 44024584 44140912 44272648 44412420 44552460 
912.647 44688172 44821248 44958516 45109136 45279004 45469760 45677496 
916.022 45897340 46126024 46364968 46619316 46895628 47197120 47521812 
919.397 47862768 48211432 48562304 48915204 49274996 49649796 50047712 
922.771 50474128 50932892 51429136 51971216 52571444 53241984 53987500 
926.146 54797220 55639036 56464072 57208984 57809880 58220008 58415208 
929.521 58403192 58218644 57920536 57577912 57257144 57020708 56916104 
932.896 56974316 57212652 57633944 58229024 58978264 59853368 60817436 
936.271 61823340 62820092 63752896 64571784 65243528 65757408 66132828 
939.646 66415040 66673180 66985212 67419816 68031944 68850752 69879824 
943.020 71100808 72478848 73968112 75509304 77034368 78467352 79721160 
946.395 80714056 81374360 81650512 81522648 81004792 80143280 79005320 
949.770 77674296 76239448 74780808 73374112 72082456 70950576 70008896 
953.145 69269272 68727936 68369656 68173688 68120312 68191832 68375864 
956.520 68662416 69041552 69503024 70036152 70631792 71285296 71997032 
959.894 72771568 73614720 74531808 75525784 76598632 77754176 79001952 
963.269 80357680 81845088 83491032 85319552 87349048 89587144 92030376 
966.644 94665808 97476064 100446392 103569608 106851696 110312488 113981888 
970.019 117886584 122035224 126396656 130888928 135364736 139611456 
972.912 143391632 146453984 148584688 149661088 149669888 148729936 
975.804 147062064 144981360 142833200 140930160 139544880 138851488 
978.697 138912304 139672592 140963568 142524624 144009616 145062640 
981.590 145352640 144614704 142714768 139654864 135576672 130715352 
984.482 125371504 119861160 114451648 109367792 104766952 100732520 97296568 
987.857 94443248 92127288 90283688 88842552 87739792 86915792 86322416 
991.232 85920912 85677392 85564440 85559232 85642968 85802608 86028912 
994.607 86315312 86656944 87047320 87478600 87943176 88433592 88945512 
997.982 89477528 90030664 90606256 91204528 91823560 92459504 93108824 
1001.356 93768784 94439336 95122304 95820312 96535224 97268088 98019392 
1004.731 98790544 99584992 100409232 101270816 102177000 103132760 104139144 
1008.106 105193784 106292304 107430736 108606280 109817904 111065792 
1010.999 112349712 113668176 115018888 116400424 117813216 119261576 
1013.891 120754384 122303312 123921264 125621256 127414048 129308048 
1016.784 131310048 133424880 135656048 138006544 140477536 143068432 
1019.677 145775440 148590480 151497184 154466656 157456512 160401680 
1022.570 163215824 165801616 168049120 169858912 171161040 171926416 
1025.462 172180416 171998688 171504080 170836992 170135120 169520944 
1028.355 169073840 168826944 168760656 168806784 168848928 168727424 
1031.249 168269024 167285408 165601216 163088336 159671232 155350976 
1034.142 150204624 144385952 138105936 131598192 125118632 118899416 
1037.035 113123592 107927408 103377024 99478608 96192464 93452032 91180456 
1040.410 89301552 87752816 86481464 85442640 84600552 83923136 83383784 
1043.785 82963240 82647744 82428000 82297024 82247248 82269560 82355424 
1047.160 82497472 82692672 82941264 83245216 83603968 84010864 84449760 
1050.536 84896848 85322696 85694592 85983832 86167272 86230632 86170792 
1053.911 85996520 85729904 85402512 85055288 84732864 84474472 84312344 
1057.286 84266080 84342680 84539880 84849232 85259464 85754248 86310664 
1060.661 86896608 87464896 87959608 88320768 88490296 88426648 88109752 
1064.037 87545032 86760352 85802240 84729888 83601720 82476200 81404736 
1067.412 80425584 79565536 78838032 78244048 77776488 77425096 77181504 
1070.787 77040784 77001928 77065240 77228952 77487504 77831464 78248688 
1074.162 78728392 79262080 79843952 80470000 81135936 81836136 82565512 
1077.538 83321360 84107080 84932944 85816296 86779168 87842736 89027248 
1080.913 90350472 91827696 93477424 95321328 97383760 99693184 102276160 
1084.288 105154528 108342648 111842992 115642832 119707360 123979928 
1087.181 128377888 132791608 137104224 141195488 144958368 148319184 
1090.074 151234976 153692176 155691984 157232032 158291088 158829248 
1092.967 158795568 158156816 156926416 155191168 153116544 150924464 
1095.860 148886720 147262992 146266656 146049808 146666736 148072672 
1098.753 150114864 152558528 155088912 157330608 158919760 159512816 
1101.646 158841904 156769136 153287456 148529168 142723232 136177328 
1104.540 129221528 122155664 115256584 108738792 102746184 97370032 92641768 
1107.915 88548712 85047912 82079712 79579336 77479744 75720560 74244424 
1111.290 72996152 71927192 70993304 70156896 69391128 68677360 68004440 
1114.665 67367216 66763280 66192476 65656148 65158324 64704904 64302640 
1118.041 63957864 63673860 63450240 63283736 63169524 63103728 63083956 
1121.416 63109556 63180364 63294472 63448632 63638060 63858444 64108340 
1124.791 64389288 64705908 65063588 65467140 65919280 66420988 66973456 
1128.166 67578888 68241848 68968144 69762688 70626880 71556736 72542472 
1131.542 73569808 74619336 75670192 76699784 77683600 78598888 79425592 
1134.917 80150256 80770480 81297640 81759008 82191880 82642856 83160744 
1138.292 83787616 84560168 85506464 86644816 87987352 89538840 91296928 
1141.667 93250664 95380504 97659152 100048768 102505376 104978416 107406128 
1145.042 109721880 111849512 113701536 115191472 116232768 116747104 
1147.936 116679784 116000080 114707624 112829568 110417712 107542224 
1150.829 104281000 100722664 96958552 93074712 89156488 85277896 81497944 
1154.204 77867216 74423520 71195808 68209160 65480940 63021704 60833864 
1157.579 58910864 57238848 55798268 54568772 53528048 52652796 51919868 
1160.954 51302900 50774876 50311332 49890500 49496816 49121924 48761960 
1164.330 48416632 48086124 47770884 47471728 47190656 46932760 46704536 
1167.705 46513052 46363716 46258728 46197108 46176472 46195264 46253828 
1171.080 46355088 46502320 46698080 46942176 47232060 47564768 47938612 
1174.455 48355332 48819868 49338728 49917412 50559512 51265688 52035528 
1177.831 52868748 53766828 54731596 55763416 56858160 58005012 59185652 
1181.206 60378044 61559132 62708988 63814760 64871692 65882952 66858344 
1184.581 67814520 68773464 69759504 70798952 71914680 73120672 74417856 
1187.956 75790216 77205800 78615248 79961168 81184184 82224952 83035480 
1191.332 83580712 83838608 83801640 83473880 82868280 82002224 80895840 
1194.707 79570424 78046672 76349568 74512568 72578424 70605480 68662992 
1198.082 66817888 65131992 63644932 62368380 61287684 60367344 59565156 
1201.457 58839188 58160300 57514284 56899744 56324364 55800040 55339532 
1204.833 54953700 54651400 54438948 54318064 54286300 54335976 54456980 
1208.208 54638168 54871280 55152856 55484120 55869632 56314068 56821148 
1211.583 57392352 58028112 58729852 59501048 60347012 61274444 62288444 
1214.958 63392036 64586012 65870992 67249336 68727304 70314448 72023440 
1218.333 73867824 75859464 78009040 80327424 82825368 85516432 88415968 
1221.709 91538256 94894224 98486408 102306520 106329512 110513768 114799456 
1225.084 119100136 123308424 127293336 130891784 133931312 136230784 
1227.977 137616064 137956496 137175984 135273536 132324832 128479120 
1230.870 123943072 118941024 113718416 108509536 103510432 98890472 94769864 
1234.245 91216880 88261816 85898336 84096664 82811224 81989776 81578616 
1237.621 81520248 81761448 82252256 82945520 83803248 84791552 85878232 
1240.996 87031568 88213832 89378640 90477240 91457392 92272328 92890056 
1244.371 93294320 93488600 93492920 93342136 93079680 92752808 92414088 
1247.746 92114184 91897704 91802160 91848128 92038448 92357032 92774304 
1251.122 93252216 93750192 94235688 94685104 95086336 95439656 95756120 
1254.497 96057568 96372536 96737704 97192120 97769448 98495680 99381208 
1257.872 100418128 101578840 102818600 104080608 105292960 106378984 
1260.765 107258960 107848944 108074080 107870816 107192328 106018656 
1263.658 104355992 102237376 99713480 96850464 93723344 90406728 86982296 
1267.033 83533320 80137056 76869184 73792456 70951704 68378272 66089384 
1270.409 64091944 62388080 60974688 59843592 58979176 58359608 57958964 
1273.784 57749508 57708224 57817908 58066668 58447464 58953292 59576064 
1277.159 60306540 61135696 62057088 63069516 64175480 65381280 66693036 
1280.534 68117256 69659520 71326296 73127136 75074016 77178968 79450424 
1283.910 81886784 84472296 87172280 89936584 92701040 95389264 97926224 
1287.285 100238424 102258552 103935152 105228536 106113784 106580616 
1290.178 106629064 106265432 105495984 104323048 102742784 100749776 
1293.071 98345344 95548272 92402864 88987552 85406056 81778848 78240952 
1296.446 74917920 71924528 69363368 67309960 65816784 64908200 64577476 
1299.822 64788984 65480664 66578776 67996528 69644320 71440248 73299696 
1303.197 75140744 76886504 78457712 79782232 80801320 81468688 81757488 
1306.572 81658264 81177760 80338024 79179408 77772016 76212640 74630160 
1309.947 73179288 72002744 71215840 70870960 70937664 71296496 71753768 
1313.323 72096024 72113392 71659544 70682280 69220808 67392760 65350816 
1316.698 63263768 61272000 59470760 57912888 56608732 55542892 54687776 
1320.073 54017332 53510924 53153412 52933568 52840760 52862988 52989156 
1323.448 53209248 53515344 53902116 54363388 54890792 55472676 56093716 
1326.823 56737056 57387776 58033260 58664536 59276680 59865992 60430020 
1330.199 60967060 61477052 61961848 62426372 62878528 63326360 63777880 
1333.574 64238900 64713024 65201864 65707416 66231996 66779240 67353296 
1336.949 67957360 68593144 69260880 69960040 70691216 71456816 72260976 
1340.324 73109528 74007008 74955480 75954800 77003400 78099776 79244376 
1343.700 80440728 81695136 83016032 84410968 85885904 87443264 89082768 
1347.075 90801712 92597392 94467832 96412208 98429752 100517888 102670208 
1350.450 104876320 107124224 109402664 111706784 114041256 116421480 
1353.343 118871008 121417208 124088768 126910928 129904296 133085232 
1356.236 136460960 140024160 143742096 147555440 151369072 155060128 
1359.129 158507008 161598160 164262656 166482208 168290000 169756880 
1362.022 170963936 171994320 172912432 173761232 174570560 175357712 
1364.916 176130928 176891056 177631744 178345552 179031632 179706528 
1367.809 180410432 181207904 182169264 183360960 184829568 186595936 
1370.702 188661744 191020384 193668928 196609376 199844064 203366272 
1373.595 207147904 211141744 215295520 219572560 223967776 228504144 
1376.488 233213216 238099712 243111424 248113504 252906656 257242384 
1379.381 260844704 263461920 264857232 264815248 263177040 259860192 
1382.274 254916224 248541408 241062032 232846768 224184000 215248656 
1385.167 206065328 196562864 186658000 176346912 165751920 155104304 
1388.060 144674208 134694032 125328344 116665304 108751568 101624888 
1390.953 95305528 89802552 85100512 81151352 77884936 75221152 73092040 
1394.328 71437832 70203552 69333056 68752424 68379704 68144232 67998352 
1397.704 67937248 68000016 68265112 68821952 69743672 71075168 72825088 
1401.079 74979464 77511984 80390256 83562240 86931896 90356472 93627600 
1404.454 96486304 98681776 99995704 100292968 99544608 97817880 95258688 
1407.829 92051056 88413000 84565328 80708944 77035680 73696648 70790880 
1411.205 68371048 66441416 64978040 63946076 63316776 63069932 63188068 
1414.580 63649340 64419264 65450540 66699340 68130544 69730440 71508296 
1417.955 73485120 75673896 78057928 80588736 83200832 85837288 88471000 
1421.330 91103128 93747888 96405920 99048104 101606800 103971736 106022120 
1424.706 107651656 108783616 109379048 109416640 108874840 107729144 
1427.599 105962360 103589920 100674568 97338360 93743824 90053328 86418512 
1430.974 82960032 79765360 76903792 74421360 72335768 70638608 69294024 
1434.349 68253320 67468616 66915512 66601908 66562132 66830488 67412224 
1437.724 68267744 69326792 70510056 71746968 72988752 74199368 75352688 
1441.100 76430280 77415120 78293608 79057712 79705240 80239648 80667528 
1444.475 80994448 81222368 81348032 81367056 81281304 81106904 80881352 
1447.850 80656040 80484480 80407240 80437544 80564920 80766488 81024152 
1451.225 81333968 81708856 82169336 82731160 83392176 84131208 84908496 
1454.601 85677024 86396720 87037760 87590752 88064376 88479656 88850728 
1457.976 89176216 89445320 89649296 89791024 89887920 89966744 90055616 
1461.351 90178096 90346928 90566464 90836840 91160384 91545864 92009120 
1464.726 92568288 93241704 94045600 94993800 96104768 97398728 98893136 
1468.102 100596864 102504456 104598712 106845168 109204368 111630728 
1470.995 114059432 116406744 118561976 120397360 121796256 122675360 
1473.888 122990768 122731576 121904696 120533696 118664984 116376424 
1476.781 113772792 110959904 108029376 105035592 101994552 98903456 95758768 
1480.156 92572632 89383528 86246272 83217168 80343128 77648296 75137632 
1483.531 72803928 70634288 68615536 66736700 64988656 63366956 61873160 
1486.906 60515216 59305888 58258276 57381008 56675400 56137264 55762100 
1490.282 55547824 55494812 55600812 55854372 56232372 56703036 57228792 
1493.657 57776760 58324400 58861004 59389304 59919240 60457400 60997032 
1497.032 61514004 61971972 62336288 62582448 62705120 62717832 62650456 
1500.407 62543304 62436664 62369224 62369568 62452236 62617308 62848008 
1503.783 63113920 63368528 63561536 63650764 63624600 63519424 63416348 
1507.158 63408220 63546272 63826584 64205244 64628728 65050892 65441332 
1510.533 65789104 66095440 66371760 66633164 66894448 67165480 67449216 
1513.908 67741280 68032680 68313888 68579872 68836624 69103168 69410368 
1517.284 69787360 70249664 70790808 71383424 71986400 72555240 73062056 
1520.659 73507560 73929496 74384160 74922992 75563120 76282536 77034016 
1524.034 77766704 78444856 79051712 79594424 80096296 80587464 81091640 
1527.409 81620760 82180392 82775296 83415464 84115040 84886168 85731720 
1530.785 86641048 87595704 88576664 89577776 90615080 91728520 92968352 
1534.160 94365536 95923912 97616840 99407784 101259184 103144816 105058472 
1537.535 107002968 108997000 111071824 113269872 115630816 118175776 
1540.428 120910048 123811744 126849336 130002264 133259072 136618000 
1543.321 140075056 143611840 147182064 150711712 154118528 157322128 
1546.214 160258544 162882848 165141440 166962576 168263456 168959952 
1549.107 169016464 168474096 167454592 166107072 164542256 162798496 
1552.000 160839856 158604864 156071040 153305104 150469696 147780608 
1554.894 145402240 143393280 141678928 140085728 138377056 136314816 
1557.787 133745072 130680800 127367840 124199328 121514240 119428400 
1560.680 117855848 116614512 115524184 114441424 113248840 111859584 
1563.573 110220872 108328232 106233352 104032104 101834464 99710816 97669072 
1566.948 95649224 93551848 91271736 88746616 85994336 83120776 80288352 
1570.323 77647272 75290536 73233840 71438144 69841416 68383232 67012928 
1573.698 65690800 64387748 63092804 61830448 60674304 59741648 59163328 
1577.074 59028824 59367464 60158628 61360416 62938348 64878112 67188376 
1580.449 69889432 73000472 76525984 80442648 84690136 89173568 93746536 
1583.824 98217632 102370608 105960032 108760464 110598904 111362680 
1586.717 111025912 109647704 107382448 104459616 101171088 97852208 94806752 
1590.093 92293752 90504344 89542552 89450120 90215696 91793968 94112592 
1593.468 97080480 100600584 104556976 108823376 113273912 117776624 
1596.361 122214096 126491384 130524368 134236272 137543168 140337728 
1599.254 142503792 143932400 144543200 144310192 143264880 141490176 
1602.147 139096656 136216992 132998896 129585488 126122568 122738784 
1605.040 119523544 116530568 113771800 111230264 108876456 106683496 
1607.933 104637240 102733080 100971216 99348392 97853824 96473648 95197592 
1611.308 94023992 92960640 92017400 91196640 90483288 89841872 89217888 
1614.684 88554080 87804160 86959704 86065144 85216368 84526848 84077488 
1618.059 83895408 83952808 84193144 84552240 84977392 85436184 85913888 
1621.434 86416208 86964408 87592824 88336896 89224640 90271864 91476608 
1624.809 92823992 94290768 95850648 97473576 99127112 100782040 102412384 
1628.185 104001496 105544360 107047648 108525320 109993096 111466192 
1631.078 112957104 114478512 116041496 117660304 119354816 121152736 
1633.971 123093560 125229360 127623992 130328360 133365944 136729696 
1636.864 140378544 144271024 148381712 152705760 157254688 162047024 
1639.757 167103632 172430752 178017296 183839248 189853264 196006624 
1642.650 202250752 208526880 214786224 221000768 227162752 233301456 
1645.543 239471216 245737248 252115072 258549184 264922448 271090368 
1648.436 276933536 282373888 287370368 291845920 295619616 298371392 
1651.329 299554112 298481664 294627712 288098400 279880384 271343648 
1654.222 263463680 256439056 249959280 243549280 236840880 229647664 
1657.115 221962144 213898368 205621616 197295856 189005872 180762448 
1660.008 172522672 164222080 155818176 147320608 138805648 130416664 
1662.901 122340688 114764584 107833104 101617184 96105968 91229632 86880576 
1666.277 82942104 79313496 75929432 72772072 69875304 67309488 65153860 
1669.652 63464924 62257124 61502060 61142712 61118380 61374912 61871132 
1673.027 62584936 63510948 64662412 66066540 67755728 69749240 72038496 
1676.402 74597424 77396856 80422704 83681536 87193824 90978048 95024648 
1679.778 99292576 103718848 108233592 112805640 117458856 122274328 
1682.671 127370592 132854776 138745856 144892816 151000480 156735392 
1685.564 161843344 166184016 169688016 172318160 174026640 174772384 
1688.457 174539248 173336544 171206016 168216800 164475360 160127600 
1691.350 155349264 150334544 145226544 140073968 134810896 129264328 
1694.243 123233608 116628944 109613624 102637016 96273472 90927144 86688576 
1697.618 83349624 80565768 77978584 75346184 72631208 70015160 67795232 
1700.993 66175268 65139616 64484252 63952372 63306124 62379472 61069484 
1704.369 59323592 57143068 54579968 51733608 48725152 45679708 42708220 
1707.744 39888532 37267944 34859460 32645680 30593524 28672264 26868516 
1711.119 25192122 23667950 22315914 21137276 20105066 19173500 18292862 
1714.494 17433628 16595958 15805254 15092310 14472128 13931481 13439487 
1717.870 12969727 12522196 12125416 11816763 11617492 11518707 11485331 
1721.245 11469306 11431647 11353550 11245508 11137085 11061861 11036031 
1724.620 11050951 11078143 11087320 11062337 11007618 10943019 10889607 
1727.995 10857229 10837831 10811300 10758821 10676158 10577349 10487082 
1731.371 10424189 10389505 10359710 10297718 10171350 9981071 9768102 
1734.746 9596969 9513645 9521165 9585283 9656558 9693759 9672854 9596189 
1738.603 9486620 9377891 9294678 9241366 9202105 9154761 9084988 8994727 
1742.461 8898228 8812098 8743800 8686601 8622819 8535053 8417271 8277975 
1746.318 8137439 8014466 7918421 7841560 7765184 7668081 7541196 7392406 
1750.176 7244880 7123877 7044799 7006645 6995668 6995870 6998564 7005063 
1754.033 7021664 7052477 7093564 7131590 7149745 7138428 7101715 7058337 
1757.890 7030419 7033517 7066588 7113873 7150857 7157830 7129333 7079015 
1761.748 7032709 7014390 7035841 7089826 7158032 7221431 7269981 7304720 
1765.605 7334373 7366961 7404370 7439693 7462985 7466457 7452940 7433862 
1769.463 7423851 7430963 7451592 7469828 7466693 7431267 7370870 7308999 
1773.320 7272676 7278101 7322074 7386272 7446570 7486211 7501179 7500943 
1777.177 7500571 7512202 7537184 7565740 7582936 7578519 7554985 7527643 
1781.035 7516888 7535970 7584251 7646026 7700222 7729261 7728419 7708890 
1784.892 7690610 7691689 7719008 7765994 7818046 7862410 7894397 7919164 
1788.750 7947138 7986049 8034515 8080792 8107697 8103376 8069181 8022465 
1792.607 7987298 7982843 8012442 8063948 8117217 8156211 8176064 8183694 
1796.465 8192338 8213273 8248999 8291517 8327250 8344273 8340626 8325325 
1800.322 8314382 8321609 8350759 8394334 8439264 8474233 8496634 8513326 
1804.179 8535999 8573746 8626976 8687750 8743091 8783966 8809359 8827044 
1808.037 8849159 8885682 8937258 8996149 9049734 9089455 9115745 9139026 
1811.894 9173306 9228809 9306153 9396242 9485198 9562520 9626576 9685356 
1815.752 9751498 9834765 9936388 10047155 10153034 10241603 10308846 
1819.127 10359506 10403759 10449305 10496520 10537492 10560985 10557726 
1822.502 10526052 10472148 10407492 10343286 10284960 10232273 10181899 
1825.877 10132446 10086933 10051733 10031626 10025590 10024912 10016774 
1829.253 9990022 9943744 9888963 9845882 9832053 9853507 9901911 9959034 
1833.110 10005856 10029896 10031490 10021589 10015993 10025522 10050987 
1836.485 10083270 10110334 10124103 10127190 10130852 10150083 10194212 
1839.861 10261754 10340267 10412413 10464104 10488848 10490477 10479547 
1843.236 10468143 10463764 10467498 10476798 10490681 10512338 10548220 
1846.611 10602779 10674493 10755016 10831954 10894567 10939756 10973670 
1849.986 11008876 11058224 11125867 11207086 11289204 11360148 11414264 
1853.362 11455631 11495368 11545622 11610924 11686039 11757047 11809852 
1856.737 11836988 11841075 11833038 11825718 11826467 11833889 11839508 
1860.112 11834639 11817342 11794871 11781491 11789559 11824084 11878666 
1863.487 11938842 11989012 12020622 12035065 12042594 12054279 12075570 
1866.863 12102894 12125381 12133150 12124393 12109777 12107869 12136251 
1870.238 12200790 12292674 12392794 12482332 12548935 12591978 12620050 
1873.613 12644338 12671834 12700560 12721850 12726182 12710624 12681489 
1876.988 12652696 12637856 12644679 12669957 12703528 12732734 12752080 
1880.364 12764159 12779344 12807530 12852203 12907087 12959963 12998916 
1883.739 13020698 13032000 13047842 13083252 13144448 13225806 13312065 
1887.114 13387270 13440922 13474040 13497794 13527293 13573749 13638502 
1890.489 13714925 13793483 13868771 13941917 14019113 14105975 14202542 
1893.865 14301322 14390433 14459658 14507516 14542599 14580633 14635118 
1897.240 14712574 14808317 14910974 15008269 15094917 15174480 15258485 
1900.615 15357300 15475502 15608094 15743269 15869308 15979882 16076420 
1903.990 16165931 16253600 16338605 16411273 16457971 16467640 16439388 
1907.365 16384296 16320130 16266258 16234752 16225567 16230898 16241079 
1910.741 16251193 16264539 16289720 16334374 16400605 16481854 16566593 
1914.116 16643740 16708437 16763637 16816984 16875128 16939824 17005804 
1917.491 17066074 17116806 17162784 17215390 17286998 17382896 17496892 
1920.866 17612780 17711130 17780162 17819618 17844200 17874236 17927928 
1924.242 18009634 18110562 18212378 18299496 18366272 18419644 18474474 
1927.617 18544560 18634720 18737732 18838828 18923892 18988444 19039296 
1930.992 19091088 19156876 19241170 19336774 19430182 19508012 19566620 
1934.367 19613138 19662364 19727544 19812402 19909378 20003498 20081156 
1937.743 20136402 20174408 20205962 20240396 20278410 20310596 20322296 
1941.118 20303792 20256018 20194402 20140118 20112352 20116204 20143658 
1944.493 20177290 20202524 20215404 20224846 20246054 20291604 20362784 
1947.868 20447244 20526646 20584418 20615616 20628786 20640774 20666140 
1951.244 20708848 20761084 20808008 20838112 20850382 20855214 20869226 
1954.619 20905068 20961466 21024792 21074108 21093726 21081308 21050772 
1957.994 21024026 21022080 21051398 21102318 21154774 21192000 21209674 
1961.369 21218686 21238900 21286746 21367242 21470416 21578002 21673774 
1964.745 21753124 21824438 21902524 21997774 22107618 22215572 22301404 
1968.120 22348390 22356202 22338412 22317342 22308764 22315216 22323726 
1971.495 22315844 22279150 22215502 22142450 22084782 22061496 22076310 
1974.870 22116648 22162116 22198274 22223592 22250968 22297148 22371274 
1978.246 22466172 22561826 22634252 22669402 22670206 22654846 22646956 
1981.621 22660814 22697472 22743660 22781896 22799948 22800088 22796108 
1984.996 22807840 22848212 22917470 23003196 23089184 23163024 23225204 
1988.371 23285224 23356896 23446170 23547286 23642722 23711688 23742274 
1991.747 23736430 23710044 23684080 23674878 23685584 23707456 23726946 
1995.122 23735066 23734576 23737830 23759912 23808946 23881720 23963470 
1998.497 24037320 24091568 24126838 24154720 24190384 24241076 24303164 
2001.872 24361968 24400800 24410334 24394806 24370098 24355834 24364316 
2005.248 24391758 24421130 24430908 24407356 24352576 24283052 24222052 
2008.623 24186598 24180014 24190384 24199946 24195952 24177070 24154092 
2011.998 24141482 24149748 24177982 24216376 24251588 24277306 24297032 
2015.373 24323664 24369642 24438480 24519038 24591930 24637902 24648280 
2018.749 24631274 24607848 24603186 24631448 24692156 24769778 24845518 
2022.124 24904606 24945732 24978686 25016766 25068330 25129730 25188222 
2025.499 25229062 25244758 25240334 25230184 25230044 25248866 25282406 
2028.874 25318264 25340672 25342852 25328310 25310152 25302354 25311346 
2032.250 25333016 25356340 25369828 25370566 25364524 25363504 25375098 
2035.625 25397228 25416374 25414372 25379804 25313944 25233450 25161854 
2039.000 25120006 25114598 25136364 25165120 25180148 25171754 25144228 
2042.375 25111438 25089006 25084302 25093148 25103786 25104594 25092202 
2045.750 25075456 25070928 25091884 25143034 25215400 25290694 25349982 
2049.126 25382510 25389324 25381456 25371970 25368422 25371478 25376712 
2052.501 25379418 25380892 25388130 25411350 25458640 25528914 25612730 
2055.876 25694632 25761850 25809352 25842160 25871348 25908170 25956884 
2059.251 26013484 26067032 26106614 26128044 26134764 26137230 26145074 
2062.627 26162426 26185792 26205994 26213172 26203530 26181604 26157884 
2066.002 26143034 26143174 26156478 26176078 26192690 26201314 26202404 
2069.377 26200714 26201314 26205994 26211906 26213104 26205326 26188538 
2072.752 26168372 26152042 26145674 26149790 26159538 26166438 26164642 
2076.128 26152888 26136032 26121040 26113018 26111436 26110134 26100738 
2079.503 26076952 26039130 25993892 25951538 25920024 25902298 25893926 
2082.878 25887420 25876272 25858090 25836992 25819796 25811498 25812868 
2086.253 25818354 25819690 25810336 25788148 25756504 25721698 25689394 
2089.629 25660884 25633364 25602150 25565144 25525084 25490472 25470058 
2093.004 25469882 25489382 25520620 25552108 25574106 25582364 25579764 
2096.379 25573086 25567568 25564758 25560962 25550384 25528948 25497920 
2099.754 25463100 25432428 25411210 25398386 25387638 25370530 25341270 
2103.130 25300316 25254486 25213574 25185450 25172634 25170806 25172598 
2106.505 25172142 25167894 25163506 25164732 25175162 25193594 25214416 
2109.880 25229552 25234012 25228394 25218878 25212662 25215154 25224952 
2113.255 25235698 25238402 25227304 25202548 25171124 25143562 25128114 
2116.631 25128008 25139174 25153920 25164628 25167718 25164382 25158976 
2120.006 25154902 25151954 25146124 25131940 25106174 25070472 25032036 
2123.381 24999254 24979178 24973142 24977072 24983600 24987354 24987144 
2126.756 24986128 24989708 25001290 25018838 25036248 25045900 25043514 
2130.132 25031754 25019820 25019468 25039478 25082126 25140614 25204516 
2133.507 25262282 25308430 25342992 25371550 25398774 25426596 25452806 
2136.882 25473150 25486150 25494794 25505546 25526032 25559486 25602012 
2140.257 25643380 25672448 25682432 25674382 25657194 25640604 25633222 
2143.633 25636070 25643662 25648722 25647176 25641904 25641798 25656244 
2147.008 25689076 25735128 25782208 25816104 25828024 25818776 25797994 
2150.383 25778234 25768494 25767544 25766560 25753868 25722296 25672730 
2153.758 25615016 25561418 25520550 25492546 25469882 25444936 25418060 
2157.134 25401198 25415566 25481724 25607354 25781644 25977182 26160174 
2160.509 26307226 26409116 26472642 26511944 26538960 26558226 26566012 
2163.884 26557558 26532338 26497682 26467042 26452534 26458062 26476058 
2167.259 26490216 26484016 26447464 26382286 26300608 26218806 26148876 
2170.635 26093384 26046344 25998148 25943062 25882146 25824648 25781926 
2174.010 25760548 25759212 25768074 25773628 25767052 25746274 25717270 
2177.385 25688198 25664610 25645524 25624610 25593788 25549260 25493914 
2180.760 25436926 25388374 25353634 25330206 25310152 25285110 25250588 
2184.135 25209748 25171158 25144440 25133064 25133380 25135346 25128956 
2187.511 25109086 25079424 25048252 25026454 25020522 25028946 25044706 
2190.886 25058924 25066364 25067698 25068576 25074578 25087918 25104066 
2194.261 25115090 25112000 25091638 25057202 25017750 24982722 24956998 
2197.636 24939522 24923800 24902360 24871658 24834712 24798578 24772338 
2201.012 24761430 24764622 24776688 24791562 24805384 24819278 24837590 
2204.387 24865272 24903764 24949312 24995356 25035720 25067628 25093570 
2207.762 25119268 25150092 25187696 25229096 25268218 25299614 25322128 
2211.137 25339058 25356586 25379770 25409206 25440686 25467140 25482214 
2214.513 25484182 25476628 25466122 25458604 25455582 25453756 25447362 
2217.888 25431690 25406644 25377098 25350614 25333506 25326518 25324692 
2221.263 25319072 25302776 25272712 25232222 25188048 25147530 25113264 
2224.638 25083810 25052956 25015610 24969948 24919170 24869272 24825802 
2228.014 24791210 24762410 24734280 24701064 24660942 24615844 24571348 
2231.389 24531342 24497372 24467258 24436974 24404130 24370554 24340380 
2234.764 24320266 24314028 24319776 24331128 24337962 24333302 24314448 
2238.139 24285154 24252988 24225836 24207408 24197002 24189226 24179136 
2241.515 24164040 24145650 24128836 24118082 24115840 24120324 24127364 
2244.890 24132198 24132618 24128976 24124492 24121970 24122320 24124528 
2248.265 24126210 24125752 24123688 24122846 24126594 24136962 24152656 
2251.640 24169748 24183972 24192310 24195392 24197248 24203028 24215850 
2255.016 24235506 24257964 24277412 24289184 24291426 24285364 24273872 
2258.391 24259226 24241566 24219214 24189752 24152620 24109430 24064566 
2261.766 24022228 23984128 23948940 23912668 23871252 23822878 23769816 
2265.141 23717358 23670994 23634150 23605988 23581988 23557256 23528642 
2268.517 23497058 23466594 23442672 23428370 23423228 23422426 23420118 
2271.892 23412040 23397876 23380708 23365426 23356162 23353154 23353680 
2275.267 23352734 23346162 23333154 23315988 23298894 23285190 23275960 
2278.642 23268898 23260508 23247086 23226950 23201122 23172076 23141986 
2282.018 23111932 23081182 23048476 23013258 22976332 22939512 22905002 
2285.393 22873322 22843042 22811438 22775890 22736120 22694050 22653972 
2288.768 22619416 22592748 22572608 22555472 22536940 22513838 22485678 
2292.143 22454728 22424058 22396462 22372494 22350726 22329204 22306216 
2295.519 22282114 22258780 22238868 22223732 22212956 22204482 22195520 
2298.894 22184676 22172296 22161000 22153782 22152806 22158280 22168530 
2302.269 22181084 22193880 22206226 22218850 22232766 22248702 22265966 
2305.644 22282602 22297148 22309008 22319576 22331646 22347794 22369494 
2309.020 22395692 22423708 22450156 22472592 22490806 22506372 22521552 
2312.395 22538406 22557218 22577182 22596936 22615576 22633378 22651808 
2315.770 22671812 22693874 22716150 22735770 22750016 22757210 22757978 
2319.145 22754520 22750016 22746594 22744464 22741218 22733782 22718698 
2322.521 22693526 22657464 22610968 22555192 22491994 22423988 22354704 
2325.896 22288602 22230288 22184048 22151690 22132268 22121914 22115324 
2329.271 22107722 22096044 22080460 22063274 22047342 22034896 22026356 
2332.646 22020988 22017922 22017016 22019594 22027020 22039744 22056336 
2336.021 22073418 22086492 22092416 22090432 22082412 22072372 22063448 
2339.397 22057764 22054348 22050620 22043472 22031620 22015064 21995126 
2342.772 21971530 21942288 21902944 21849280 21779424 21697040 21610806 
2346.147 21534094 21479502 21456214 21468084 21513238 21585700 21676838 
2349.522 21778762 21883604 21984390 22075682 22152770 22212852 22255398 
2352.898 22283022 22300706 22314274 22328960 22347238 22368482 22388854 
2356.273 22403684 22409406 22403962 22387460 22361330 22326796 22284870 
2359.648 22235694 22179934 22119368 22056964 21995822 21938418 21885100 
2363.023 21834752 21785068 21734450 21682968 21632676 21586082 21544924 
2366.399 21509340 21476786 21443506 21406294 21364006 21317056 21267432 
2369.774 21217224 21167160 21116858 21065344 21011854 20957188 20903470 
2373.149 20852816 20806652 20764908 20725946 20687720 20649218 20610822 
2376.524 20574724 20543390 20518344 20499064 20483330 20467978 20450368 
2379.900 20429634 20406782 20384104 20363896 20347366 20334520 20324276 
2383.275 20315594 20308270 20303410 20302228 20305838 20314276 20326360 
2386.650 20340110 20354172 20367888 20381988 20397266 20414284 20432482 
2390.025 20450160 20465616 20477668 20486908 20495416 20505456 20518518 
2393.401 20534496 20551204 20566144 20577052 20583446 20586814 20589560 
2396.776 20593764 20599880 20606794 20612004 20613290 20609746 20602102 
2400.151 20592480 20583028 20574796 20568054 20561558 20554506 20546828 
2403.526 20539324 20533280 20529738 20528694 20528764 20528068 20525498 
2406.902 20520530 20514036 20507782 20502782 20499064 20495870 20492048 
2410.277 20487324 20482392 20479266 20479788 20485102 20494376 20505734 
2413.652 20517058 20527270 20536718 20547454 20561766 20580736 20603980 
2417.027 20629168 20653388 20674514 20692028 20706798 20720490 20734010 
2420.403 20746556 20756184 20760076 20757226 20748016 20735156 20721810 
2423.778 20710690 20702836 20697276 20692132 20686156 20679032 20672186 
2427.153 20667356 20665548 20666384 20668154 20668364 20665826 20660824 
2430.528 20655680 20653212 20655228 20661936 20671074 20679692 20684904 
2433.904 20685600 20682056 20675730 20668050 20659330 20648800 20635250 
2437.279 20618050 20597688 20576114 20554888 20535120 20515876 20495730 
2440.654 20472216 20444950 20415012 20385632 20360562 20342400 20331534 
2444.029 20326324 20323408 20320006 20314694 20308060 20301498 20296500 
2447.405 20293098 20290250 20286328 20279938 20271120 20261608 20253486 
2450.780 20248694 20247340 20248138 20248694 20246992 20241924 20234010 
2454.155 20224740 20215612 20207350 20199886 20192666 20185342 20178608 
2457.530 20173716 20171980 20174166 20179546 20186350 20192806 20197422 
2460.906 20200130 20202176 20205372 20211098 20220018 20231614 20245050 
2464.281 20260080 20276884 20296186 20318512 20343582 20369834 20394732 
2467.656 20416124 20432932 20445540 20455578 20464436 20473188 20481072 
2471.031 20486732 20488680 20485830 20479370 20470790 20462384 20455960 
2474.406 20451722 20448944 20446548 20443838 20441304 20439740 20440054 
2477.782 20442034 20444396 20445400 20443420 20438420 20431856 20426368 
2481.157 20424146 20426404 20432550 20440504 20448284 20454640 20459850 
2484.532 20465616 20473882 20485934 20501842 20520184 20539256 20557528 
2487.907 20574690 20591018 20607244 20623052 20637854 20650120 20658772 
2491.283 20663534 20665200 20665722 20666278 20667946 20670310 20672776 
2494.658 20674966 20677154 20680456 20686050 20694148 20703532 20711594 
2498.033 20715382 20713192 20705094 20693592 20682264 20674826 20672880 
2501.408 20676042 20682646 20690362 20698074 20705512 20713818 20723374 
2504.784 20733662 20742734 20747702 20746278 20738006 20724522 20708952 
2508.159 20694530 20683514 20675904 20670482 20664922 20657732 20648486 
2511.534 20638028 20627328 20617146 20607176 20596508 20585008 20572848 
2514.909 20561592 20552630 20547244 20544640 20542938 20539290 20531370 
2518.285 20518864 20502920 20486246 20471208 20459050 20449256 20440122 
2521.660 20429702 20417270 20403170 20389176 20376672 20365874 20355908 
2525.035 20344902 20331150 20313894 20294208 20273862 20254282 20235884 
2528.410 20217450 20197388 20173784 20146434 20116622 20086812 20059430 
2531.786 20035246 20013526 19992360 19969636 19944518 19917182 19889572 
2535.161 19863038 19838552 19815280 19791940 19766936 19739682 19710798 
2538.536 19681604 19653524 19626484 19599756 19571714 19541768 19510368 
2541.911 19479838 19453502 19433924 19422246 19417220 19415906 19414830 
2545.287 19411400 19404576 19395116 19384098 19372736 19361510 19350494 
2548.662 19339858 19330122 19323228 19320804 19324060 19332998 19346404 
2552.037 19361752 19377134 19391340 19404990 19419092 19435552 19454852 
2555.412 19476822 19500630 19525236 19550606 19576880 19604956 19634560 
2558.788 19664860 19693254 19717768 19736560 19749634 19758754 19766972 
2562.163 19776612 19789060 19804146 19820760 19837476 19853846 19870496 
2565.538 19889224 19911598 19938170 19967972 19999404 20030112 20058564 
2568.913 20084486 20108084 20130226 20151432 20171528 20190306 20207626 
2572.289 20224116 20240882 20259386 20280216 20302924 20327088 20350734 
2575.664 20373064 20393864 20413762 20433490 20453008 20471068 20485692 
2579.039 20494340 20495798 20490346 20480030 20467874 20456620 20447658 
2582.414 20440956 20435086 20428974 20421716 20414144 20407928 20404802 
2585.790 20405670 20410568 20418590 20428140 20438038 20448216 20458668 
2589.165 20470026 20482740 20496460 20510874 20525846 20541340 20557910 
2592.540 20576184 20596404 20618258 20640670 20662698 20683514 20702974 
2595.915 20721428 20739466 20756774 20773076 20786806 20796814 20802342 
2599.291 20803350 20800916 20796466 20791010 20784892 20777940 20769774 
2602.666 20760354 20750136 20740092 20731020 20723026 20715660 20708014 
2606.041 20699152 20689214 20678892 20670066 20664264 20662074 20662874 
2609.416 20664786 20665688 20664124 20659884 20653978 20648244 20643902 
2612.792 20641296 20639940 20638098 20634588 20628856 20621316 20612906 
2616.167 20604882 20598210 20592790 20588586 20585112 20582438 20580630 
2619.542 20580110 20580422 20580980 20580458 20577262 20570868 20561280 
2622.917 20549504 20536928 20524770 20513618 20503546 20494062 20484752 
2626.292 20475722 20467560 20460788 20455820 20452694 20450714 20448978 
2629.668 20446826 20443908 20440296 20436232 20432240 20428280 20424528 
2633.043 20421020 20418382 20417652 20420222 20427098 20438456 20453668 
2636.418 20471312 20490172 20509000 20527654 20546482 20566282 20587892 
2639.793 20611380 20636708 20663152 20690186 20717224 20743950 20770226 
2643.169 20795840 20820520 20843882 20865922 20886956 20907676 20928608 
2646.544 20950374 20972732 20995128 21016722 21036928 21055432 21072474 
2649.919 21088508 21103918 21118388 21131398 21142112 21149800 21154670 
2653.294 21157348 21158462 21159088 21159158 21158566 21156340 21152270 
2656.670 21146634 21140826 21136686 21135886 21139816 21148652 21161942 
2660.045 21178918 21198646 21220912 21245824 21273592 21304076 21336860 
2663.420 21371106 21405808 21440338 21474350 21507842 21540640 21572814 
2666.795 21603562 21632016 21657682 21680218 21699860 21717522 21733544 
2670.171 21748524 21761970 21773328 21782004 21787890 21791444 21793778 
2673.546 21796008 21799492 21804614 21811580 21820326 21830954 21843810 
2676.921 21859246 21877818 21899666 21924340 21951246 21979476 22008580 
2680.296 22038140 22068362 22099182 22130594 22162288 22193776 22224778 
2683.672 22255050 22285008 22315006 22345388 22376298 22407800 22439828 
2687.047 22472280 22505884 22541234 22579382 22620812 22665494 22712692 
2690.422 22761748 22811682 22862704 22914990 22969728 23027966 23090580 
2693.797 23158270 23231112 23309242 23392876 23482578 23578140 23679812 
2697.173 23786930 23898314 24012772 24128836 24245492 24362318 24478756 
2700.548 24594454 24708534 24819662 24926010 25025894 25117478 25199740 
2703.923 25271622 25332558 25381946 25419324 25444690 25458744 25462292 
2707.298 25457094 25444972 25427266 25405590 25380682 25353460 25325008 
2710.674 25296208 25268428 25242722 25219684 25199248 25181376 25165856 
2714.049 25152972 25143808 25139278 25140542 25147670 25160238 25176670 
2717.424 25195808 25216910 25240228 25266600 25297190 25332558 25372462 
2720.799 25415144 25458674 25501224 25541704 25580152 25617124 25653292 
2724.175 25688584 25721980 25751864 25776686 25795182 25807664 25815224 
2727.550 25819550 25822432 25825070 25828094 25831470 25835268 25839380 
2730.925 25843918 25849298 25855276 25861606 25867760 25873176 25877996 
2734.300 25882146 25886118 25890304 25894736 25898816 25902192 25904548 
2737.676 25906202 25908100 25911722 25918722 25930328 25947176 25969160 
2741.051 25995756 26026396 26060802 26098908 26140994 26187376 26238058 
2744.426 26292934 26351726 26414010 26479580 26548224 26619274 26692166 
2747.801 26766024 26840176 26914200 26988132 27062744 27139028 27218112 
2751.177 27300668 27387192 27478042 27573214 27672930 27777578 27887268 
2754.552 28001970 28121048 28243556 28368220 28493732 28619282 28744478 
2757.927 28869782 28995228 29121240 29247928 29375256 29502904 29630696 
2761.302 29758278 29885578 30012028 30137270 30260240 30380262 30496654 
2764.677 30609202 30717760 30822540 30923822 31021500 31115318 31204884 
2768.053 31289768 31369540 31444128 31513560 31578228 31638026 31693730 
2771.428 31746056 31795718 31844060 31892232 31940910 31990662 32041456 
2774.803 32093004 32145306 32198652 32253966 32312748 32376572 32447048 
2778.178 32524604 32609568 32701336 32799556 32903698 33013616 33129572 
2781.554 33251710 33380180 33514488 33654280 33798664 33947220 34099408 
2784.929 34255052 34414164 34576384 34741568 34909008 35077592 35245772 
2788.304 35412148 35574956 35732572 35884344 36029832 36170004 36306324 
2791.679 36440676 36574780 36709900 36846288 36983548 37120708 37256972 
2795.055 37391688 37524932 37657092 37788104 37917924 38045720 38170336 
2798.430 38290752 38406100 38516588 38622904 38726168 38827500 38927732 
2801.805 39026896 39124784 39220696 39313688 39403368 39488996 39570184 
2805.180 39646556 39717820 39784012 39845492 39902660 39955732 40004776 
2808.556 40049248 40088420 40122108 40149796 40172660 40191848 40209696 
2811.931 40228344 40249064 40272764 40299304 40327956 40358496 40390932 
2815.306 40425768 40463264 40503708 40546448 40590136 40633032 40672948 
2818.681 40708716 40739248 40764360 40784016 40798576 40807892 40811968 
2822.057 40810912 40805052 40795188 40782524 40768076 40752788 40737288 
2825.432 40721928 40706968 40693400 40682228 40674952 40673020 40677932 
2828.807 40690340 40711012 40740052 40777500 40823544 40878476 40942588 
2832.182 41016432 41100380 41194980 41300860 41418940 41550800 41697688 
2835.558 41861336 42042644 42242060 42459476 42694472 42946168 43214148 
2838.933 43498260 43798868 44116888 44453232 44809124 45185276 45582100 
2842.308 45999732 46437604 46895184 47371280 47864208 48371036 48887020 
2845.683 49405660 49917112 50409224 50867880 51276348 51618364 51878536 
2849.059 52043112 52103144 52053420 51894776 51632432 51276648 50841772 
2852.434 50343180 49797260 49219660 48622372 48015360 47404684 46793796 
2855.809 46184208 45576656 44971784 44370876 43775452 43187612 42609816 
2859.184 42044172 41493632 40961156 40450680 39966120 39511608 39090048 
2862.560 38703348 38351624 38033964 37748920 37495236 37272100 37079240 
2865.935 36916988 36784652 36681200 36604232 36550632 36517112 36500352 
2869.310 36498084 36508248 36529620 36560580 36599400 36643560 36690576 
2872.685 36737812 36782848 36824468 36862372 36897220 36930732 36964784 
2876.061 37001300 37041784 37086928 37136836 37190980 37248668 37308960 
2879.436 37371464 37435712 37501452 37568316 37635340 37701652 37765800 
2882.811 37826672 37883432 37936184 37985180 38031324 38075344 38118060 
2886.186 38159988 38201344 38242552 38283516 38324520 38365708 38406716 
2889.562 38447148 38486320 38523396 38557832 38589228 38617872 38644020 
2892.937 38667960 38689728 38708672 38724612 38736964 38745768 38751344 
2896.312 38754788 38757288 38760332 38765256 38772976 38784352 38799348 
2899.687 38818116 38840764 38867036 38896816 38930304 38967744 39009392 
2903.063 39056152 39109084 39169312 39238720 39319208 39413672 39525216 
2906.438 39657696 39815496 40003396 40225980 40487740 40792896 41144744 
2909.813 41545804 41996796 42496452 43040364 43620972 44227480 44846304 
2913.188 45461372 46057420 46618728 47131816 47586248 47974060 48290856 
2916.563 48534736 48706804 48810452 48851124 48836296 48774304 48673556 
2919.939 48542960 48388960 48216988 48029720 47827736 47609428 47371648 
2923.314 47110840 46823280 46505304 46154876 45770852 45353664 44904868 
2926.689 44427064 43924192 43400592 42861644 42313716 41763636 41219896 
2930.064 40691140 40186360 39714624 39283440 38899176 38566304 38286740 
2933.440 38060732 37886036 37759076 37674508 37626164 37607732 37612468 
2936.815 37634112 37667064 37706528 37748236 37788752 37825480 37856968 
2940.190 37882924 37904220 37922912 37940956 37960520 37982868 38008324 
2943.565 38036860 38068360 38103084 38142300 38188208 38243348 38310948 
2946.941 38393760 38494252 38614504 38755548 38917764 39099516 39297148 
2950.316 39504096 39710628 39905276 40074868 40206860 40291124 40319776 
2953.691 40288652 40197120 40047212 39843024 39590216 39296244 38968540 
2957.066 38615880 38247440 37871356 37495744 37127528 36771308 36431308 
2960.442 36109576 35807404 35525260 35262696 35018864 34792148 34580796 
2963.817 34383464 34198588 34025044 33861956 33708132 33562488 33423516 
2967.192 33289808 33160362 33034318 32911632 32792482 32677438 32567102 
2970.567 32462362 32363828 32272596 32189838 32116730 32054440 32003574 
2973.943 31964344 31936630 31920228 31915270 31922330 31942158 31975470 
2977.318 32022908 32084334 32158970 32246042 32344446 32453544 32573066 
2980.693 32702766 32842298 32990522 33145916 33305980 33468212 33629720 
2984.068 33787672 33939156 34081236 34210812 34325224 34421696 34498928 
2987.444 34556504 34594860 34615208 34619012 34607312 34580436 34538420 
2990.819 34480488 34406384 34316584 34212500 34096824 33973196 33846304 
2994.194 33720952 33601868 33493086 33397608 33316784 33250816 33198916 
2997.569 33159684 33132110 33115946 33111550 33119738 33141446 33176672 
3000.945 33224814 33284192 33352632 33427738 33507728 33591272 33677480 
3004.320 33765896 33855760 33946536 34037588 34128832 34220240 34312496 
3007.695 34405952 34501004 34597480 34694872 34792684 34890732 34989196 
3011.070 35088724 35190432 35294752 35401864 35511124 35621024 35730520 
3014.446 35838172 35943908 36047576 36149980 36251828 36353664 36455776 
3017.821 36558560 36661948 36766300 36872004 36979472 37089596 37202496 
3021.196 37318744 37438384 37561164 37686580 37813660 37941428 38068508 
3024.571 38193888 38316776 38436940 38554716 38670496 38784640 38897144 
3027.947 39007472 39114704 39218412 39318732 39416572 39514148 39613740 
3031.322 39717744 39827588 39943276 40064076 40187780 40312244 40435696 
3034.697 40557104 40676516 40795080 40914664 41037444 41165944 41302428 
3038.072 41448612 41605784 41774068 41953184 42141756 42338080 42540012 
3041.448 42745364 42952128 43157856 43360320 43556572 43742980 43916016 
3044.823 44071560 44206240 44318108 44406584 44473352 44522244 44558260 
3048.198 44587116 44614288 44644216 44680060 44723540 44775296 44835316 
3051.573 44903436 44979280 45062232 45151488 45245504 45342188 45438932 
3054.948 45533488 45624236 45710332 45792060 45870124 45945952 46020252 
3058.324 46093928 46167072 46239932 46312804 46385944 46459984 46534920 
3061.699 46610720 46686972 46762652 46837232 46910428 46982416 47053860 
3065.074 47125244 47196676 47267420 47336176 47401284 47461080 47514496 
3068.449 47561552 47602960 47640452 47676024 47711892 47749692 47790780 
3071.825 47835948 47885336 47938392 47994636 48053332 48113888 48176704 
3075.200 48242572 48312856 48388296 48469752 48556300 48646460 48737904 
3078.575 48828140 48915352 48998836 49079072 49157096 49234060 49310516 
3081.950 49385948 49458456 49525336 49583792 49630852 49665100 49685796 
3085.326 49693708 49691068 49681336 49668296 49655964 49648052 49647048 
3088.701 49654292 49669672 49692556 49721980 49757240 49798372 49845828 
3092.076 49900388 49962352 50031800 50107800 50189284 50274944 50364052 
3095.451 50456600 50552848 50652960 50756848 50863336 50970484 51075460 
3098.827 51175464 51268220 51352160 51427164 51494008 51554744 51611796 
3102.202 51668032 51725584 51786540 51852176 51923452 52000720 52084352 
3105.577 52174540 52271432 52375228 52486336 52604992 52732060 52868936 
3108.952 53018692 53185580 53375492 53596420 53856240 54163844 54528012 
3112.328 54956220 55455996 56033808 56694880 57443628 58282376 59210296 
3115.703 60222188 61306992 62447188 63614668 64773904 65880060 66878328 
3119.078 67712512 68325872 68666448 68697496 68398744 67771136 66835740 
3122.453 65633176 64218572 62649920 60989252 59292896 57606060 55967544 
3125.829 54405896 52940720 51586384 50350396 49234912 48236832 47349108 
3129.204 46561772 45862944 45241644 44687552 44191676 43747160 43348236 
3132.579 42989660 42667384 42376948 42113972 41874728 41654868 41450472 
3135.954 41258156 41074776 40898536 40727680 40561544 40399296 40240048 
3139.330 40082388 39924892 39766800 39608040 39449484 39293380 39141680 
3142.705 38995944 38856488 38722040 38590388 38458916 38325168 38188284 
3146.080 38047852 37904652 37760020 37614888 37470708 37328060 37188020 
3149.455 37050984 36917276 36786744 36658236 36529728 36399024 36264256 
3152.831 36124016 35978604 35829028 35677244 35525508 35375264 35227516 
3156.206 35082404 34939568 34798212 34657764 34517688 34377512 34236984 
3159.581 34095964 33954384 33812208 33669640 33527016 33384692 33242912 
3162.956 33101932 32962032 32823570 32687404 32553672 32422874 32294866 
3166.332 32168820 32043810 31918656 31792794 31665932 31538822 31412426 
3169.707 31287632 31165688 31046766 30930582 30816850 30704922 30594022 
3173.082 30484106 30374826 30266102 30158084 30050978 29945320 29841640 
3176.457 29740360 29641160 29543440 29446024 29347426 29246546 29142996 
3179.833 29037062 28930020 28823218 28718104 28615636 28515916 28418342 
3183.208 28322346 28227008 28131654 28036040 27940128 27843990 27748120 
3186.583 27653154 27559658 27467946 27378158 27289484 27201002 27110846 
3189.958 27017924 26921392 26821744 26720214 26618358 26517652 26418622 
3193.333 26320850 26222888 26123644 26022034 25918406 25813818 25710554 
3196.709 25610130 25513732 25421362 25332490 25245496 25159360 25073384 
3200.084 24987354 24901868 24817348 24734490 24653648 24574608 24496670 
3203.459 24419026 24340520 24260206 24177420 24091814 24003562 23913648 
3206.834 23823122 23733280 23644996 23559354 23476526 23397074 23321338 
3210.210 23249846 23182842 23120318 23061300 23004454 22948070 22890542 
3213.585 22830784 22768802 22705326 22641372 22577636 22514606 22452110 
3216.960 22389588 22327318 22265616 22205494 22147992 22093324 22040964 
3220.335 21989164 21936086 21879910 21820326 21758244 21695648 21634940 
3223.711 21577898 21525390 21477274 21432228 21388822 21345664 21301640 
3227.086 21256124 21208768 21159296 21107778 21055084 21002360 20951520 
3230.461 20904442 20862064 20824344 20790210 20757434 20723478 20687058 
3233.836 20647270 20604466 20559508 20513480 20466798 20420084 20373582 
3237.212 20328200 20285146 20246054 20212904 20186384 20166392 20151606 
3240.587 20139494 20127172 20112248 20092848 20068280 20038126 20003464 
3243.962 19965508 19925856 19886206 19848296 19812608 19779318 19747622 
3247.337 19716070 19683408 19648738 19612304 19574870 19537746 19501878 
3250.713 19467430 19433924 19400104 19365216 19329290 19292884 19257346 
3254.088 19223542 19191508 19160270 19127964 19092786 19053870 19011428 
3257.463 18967120 18923372 18882188 18844814 18811044 18780042 18750428 
3260.838 18721194 18691896 18662874 18634580 18607292 18581112 18555800 
3264.214 18530902 18506420 18483326 18462304 18444810 18431570 18423066 
3267.589 18418744 18417294 18416740 18414216 18407026 18392644 18368830 
3270.964 18335164 18292550 18243512 18191508 18140654 18093878 18052944 
3274.339 18017786 17987082 17958730 17930932 17902928 17874582 17846374 
3277.715 17818618 17791036 17762592 17732116 17698774 17662364 17624340 
3281.090 17586418 17550846 17519520 17493130 17471536 17453462 17437492 
3284.465 17422006 17405794 17388034 17368412 17347168 17325238 17303926 
3287.840 17285376 17271380 17263000 17260414 17262312 17265898 17267862 
3291.216 17265104 17255726 17239418 17217732 17192878 17167818 17143656 
3294.591 17120908 17098092 17072898 17043090 17007424 16966076 16921116 
3297.966 16875576 16832658 16795666 16766289 16744973 16731370 16724208 
3301.341 16722554 16726034 16733918 16745765 16760195 16774589 16785610 
3304.717 16789192 16781580 16760470 16725551 16678067 16620846 16558023 
3308.092 16492316 16426655 16362516 16300624 16241699 16186221 16134910 
3311.467 16088592 16047779 16012711 15983114 15958330 15937876 15920725 
3314.842 15906392 15894363 15883606 15873399 15863054 15852503 15842229 
3318.218 15833465 15827693 15826490 15830614 15839925 15853535 15870202 
3321.593 15888693 15908282 15928837 15950320 15972732 15995421 16017251 
3324.968 16037121 16054140 16067721 16078655 16088180 16097566 16108157 
3328.343 16120194 16133536 16147187 16160186 16171571 16181199 16188698 
3331.719 16194819 16199840 16204655 16210021 16216453 16224433 16233513 
3335.094 16242869 16250849 16255217 16253704 16244210 16225291 16196264 
3338.469 16157366 16109396 16053693 15991604 15924850 15854977 15783433 
3341.844 15711730 15640553 15570280 15500775 15431383 15361967 15292427 
3345.219 15223343 15155815 15091178 15030289 14973731 14921090 14871128 
3348.595 14821996 14771567 14717853 14659381 14594990 14524441 14448457 
3351.970 14368479 14287009 14206547 14130106 14059940 13997143 13942395 
3355.345 13894771 13853172 13816058 13781820 13748919 13716122 13681824 
3358.720 13644861 13604415 13560109 13512491 13462932 13412967 13364478 
3362.096 13318386 13275544 13235473 13198310 13163335 13130856 13101316 
3365.471 13074920 13051530 13030326 13009431 12986796 12960202 12928250 
3368.846 12889781 12845139 12794939 12740411 12682785 12623563 12564316 
3372.221 12506953 12453314 12405205 12364054 12330067 12302832 12280710 
3375.597 12261657 12243594 12224884 12204164 12181298 12156320 12130219 
3378.972 12103815 12077922 12053154 12029410 12006145 11982506 11957575 
3382.347 11930498 11901380 11870835 11840427 11812269 11788027 11769507 
3385.722 11757252 11751669 11752043 11757660 11767874 11781389 11796676 
3389.098 11811418 11822755 11827420 11822313 11805357 11776384 11736860 
3392.473 11690532 11641622 11594895 11553414 11518843 11490570 11466993 
3395.848 11445731 11425184 11404978 11385454 11368311 11354808 11345251 
3399.223 11338415 11331544 11321512 11305085 11280533 11248024 11209840 
3402.599 11168838 11128416 11091161 11057987 11028316 11001229 10975436 
3405.974 10950120 10925451 10902075 10881078 10862903 10847649 10834637 
3409.349 10823325 10812896 10802808 10793229 10783345 10772611 10760281 
3412.724 10745337 10727030 10705465 10681591 10656632 10632014 10609061 
3416.100 10588315 10569981 10553991 10539529 10526425 10513933 10501510 
3419.475 10488135 10472963 10455754 10436713 10416892 10398396 10383159 
3422.850 10372130 10365344 10361372 10357878 10352754 10344372 10332597 
3426.225 10317939 10301959 10285910 10270338 10255037 10239567 10223317 
3429.601 10206492 10189294 10172028 10154899 10137093 10117320 10094530 
3432.976 10067773 10038102 10007245 9977681 9951405 9929946 9913369 9900081 
3436.833 9887946 9875031 9859744 9841137 9819377 9794773 9767898 9739265 
3440.691 9710090 9681494 9655068 9632132 9613466 9598595 9585689 9572038 
3444.548 9555102 9532409 9503080 9467960 9429391 9390520 9354733 9324907 
3448.406 9302598 9287738 9279343 9274909 9271761 9266955 9258086 9244006 
3452.263 9224409 9200346 9173948 9147384 9122750 9100756 9082214 9066380 
3456.120 9052712 9040533 9029436 9019186 9009645 9000106 8989383 8976461 
3459.978 8960293 8940066 8916120 8889198 8860656 8832149 8804963 8779706 
3463.835 8757087 8736566 8717702 8700055 8683120 8666150 8648946 8631505 
3467.693 8613659 8595882 8578004 8559823 8540865 8520692 8498830 8475618 
3471.550 8451697 8427947 8405481 8384908 8365959 8347752 8329074 8309349 
3475.407 8288612 8268181 8250215 8236673 8228739 8225767 8225395 8224045 
3479.265 8218101 8204865 8183221 8154692 8122045 8089097 8058751 8032929 
3483.122 8011665 7993339 7975553 7956081 7933674 7908096 7880226 7851614 
3486.980 7823949 7798344 7775473 7755234 7737222 7721234 7706933 7694826 
3490.837 7685045 7677659 7671252 7664338 7654794 7640429 7620803 7596322 
3494.695 7569180 7542544 7519417 7501819 7490256 7483784 7480210 7477211 
3498.552 7473266 7467300 7458671 7447480 7433188 7415560 7393821 7368107 
3502.409 7340102 7312099 7287670 7269880 7260412 7259199 7263882 7271059 
3506.267 7276618 7277797 7272912 7262130 7247642 7231808 7217253 7206170 
3510.124 7199500 7197242 7198624 7202094 7206237 7209438 7209842 7206877 
3513.982 7199971 7189124 7175616 7160996 7147354 7136878 7131826 7133645 
3517.839 7142773 7158571 7179355 7202430 7224699 7243633 7257548 7266106 
3521.697 7270857 7274057 7278370 7285715 7296767 7310987 7326623 7341854 
3525.554 7354896 7364871 7371275 7374678 7375790 7375251 7373870 7372589 
3529.411 7372589 7375117 7381486 7392540 7408314 7428166 7450109 7472525 
3533.269 7493593 7512034 7527137 7538903 7547264 7552355 7554277 7553232 
3537.126 7550265 7546354 7543623 7544601 7551276 7564931 7585937 7613013 
3540.984 7643699 7674793 7702886 7725045 7738402 7741168 7732533 7712499 
3544.841 7682550 7644812 7602459 7560110 7521945 7491672 7471648 7462412 
3548.698 7461806 7465884 7469626 7467873 7456614 7434098 7401236 7361367 
3552.556 7319108 7279111 7244677 7217119 7195659 7178142 7162512 7146646 
3556.413 7129468 7110303 7089118 7065544 7039276 7010181 6978631 6945904 
3560.271 6914089 6885945 6863862 6849354 6842790 6842218 6844305 6844170 
3564.128 6836159 6814887 6775475 6715439 6635560 6540425 6438887 6341912 
3567.986 6259884 6200355 6165670 6153370 6157033 6168662 6181265 6189028 
3571.843 6189264 6181970 6168964 6152732 6135424 6118286 6101283 6083205 
3575.700 6063112 6040332 6014764 5986914 5958091 5929539 5903139 5880233 
3579.558 5862298 5850510 5845003 5845473 5851215 5860484 5872004 5884028 
3583.415 5894977 5902534 5904146 5896287 5875463 5838790 5785766 5719588 
3587.273 5647143 5578167 5523329 5489269 5478867 5489303 5514839 5547022 
3591.130 5577596 5600520 5611663 5609045 5593404 5566890 5533397 5496719 
3594.988 5461151 5430685 5407200 5391969 5383918 5380731 5378886 5375061 
3598.845 5366809 5353424 5336418 5319042 5305055 5298179 5300360 5311864 
3602.702 5330950 5354732 5379355 5401229 5416326 5421325 5413440 5390392 
3606.560 5351747 5299119 5236871 5171950 5111632 5062955 5028797 5008652 
3610.417 4997021 4986966 4971280 4945340 4908141 4863407 4818476 4781188 
3614.275 4758174 4752077 4760753 4778140 4794723 4801356 4789195 4752747 
3618.132 4691549 4610903 4520965 4434158 4362831 4315107 4293221 4294560 
3621.990 4312965 4341846 4375850 4412200 4450929 4493244 4539413 4586324 
3625.847 4625973 4646436 4632068 4569783 4453439 4291950 4109915 3941097 
3629.704 3817735 3755800 3752792 3792332 3852835 3914315 3961360 3986940 
3633.562 3990686 3978647 3958684 3938924 3923944 3914550 3909066 3903884 
3637.419 3896663 3885998 3872057 3855710 3838460 3821212 3805067 3791229 
3641.277 3781736 3778929 3785780 3803763 3833112 3870853 3912443 3951195 
3645.134 3979784 3992692 3985302 3955775 3904921 3835284 3750720 3655580 
3648.991 3555683 3458414 3373489 3311918 3283940 3294523 3342469 3419272 
3652.849 3511789 3602889 3676464 3719840 3725855 3696247 3642415 3582743 
3656.706 3535840 3515363 3525718 3561963 3613747 3668912 3717601 3753060 
3660.564 3773213 3779196 3774851 3764858 3753695 3745640 3743702 3750052 
3664.421 3766295 3793401 3831273 3878743 3932604 3988713 4040714 4082822 
3668.279 4111053 4126673 4138515 4163839 4226032 4344390 4529704 4778508 
3672.136 5076096 5398578 5716869 6001258 6219312 6341912 6351629 6248690 
3675.993 6053637 5797955 5511819 5214202 4914911 4620113 4337128 4077805 
3679.851 3856345 3684116 3565104 3494286 3460351 3449764 3452436 3463992 
3683.708 3484733 3517134 3561128 3611375 3657217 3685119 3681510 3639073 
3687.566 3558522 3451701 3336792 3232529 3152454 3101393 3077132 3074429 
3691.423 3088778 3117211 3157594 3207794 3263976 3320198 3370651 3410590 
3695.281 3437674 3452770 3459249 3461888 3464526 3468701 3473678 3476049 
3699.138 3471707 3457646 3432464 3397933 3358162 3319931 3290317 3275126 
3702.995 3277530 3297561 3332352 3377095 3425818 3473611 3516532 3552443 
3706.853 3580571 3601786 3616053 3623136 3620931 3605929 3574859 3525551 
3710.710 3459283 3381670 3302770 3234065 3186732 3167140 3176619 3211032 
3714.568 3262440 3321868 3380602 3431729 3471440 3498829 3516065 3526286 
3718.425 3533468 3539715 3545862 3551073 3553712 3553077 3550004 3546663 
3722.282 3545561 3548601 3555416 3563099 3567075 3563066 3549169 3527288 
3726.140 3503539 3486404 3485201 3505643 3547899 3606965 3673557 3736349 
3729.997 3784978 3812755 3817802 3804231 3779296 3751489 3725220 3698820 
3733.855 3665537 3616921 3548267 3462355 3371118 3291118 3239072 3223082 
3737.712 3242310 3288280 3350883 3422078 3497994 3578600 3664368 3751856 
3741.570 3831842 3886466 3893687 3834482 3703030 3518971 3326175 3180657 
3745.427 3120515 3151620 3250823 3381670 3508148 3599915 3639508 3623069 
3749.284 3560794 3470104 3371719 3280968 3205858 3149550 3114074 3102294 
3753.142 3117545 3159430 3223316 3299631 3376428 3443552 3493518 3524215 
3756.999 3537945 3539180 3531664 3517267 3495890 3467967 3437106 3411057 
3760.857 3398901 3408018 3439812 3488541 3542521 3588022 3614015 3616019 
3764.714 3598345 3571217 3548367 3539314 3546229 3562832 3578433 3582209 
3768.572 3567275 3533535 3487239 3439778 3401807 3381103 3379800 3395462 
3772.429 3423180 3457245 3493385 3528825 3562164 3593300 3622434 3649164 
3776.286 3671619 3686823 3690967 3680641 3654644 3615952 3571084 3530529 
3780.144 3504207 3498261 3513025 3543256 3579736 3612645 3634696 3643116 
3784.001 3639608 3629150 3617857 3610306 3607867 3610239 3615451 3622534 
3787.859 3631288 3642314 3656616 3673323 3690833 3706740 3719606 3730133 
3791.716 3740159 3752759 3769136 3788187 3805200 3813891 3808777 3787953 
3795.573 3755232 3720074 3695244 3690699 3710549 3749717 3795975 3831541 
3799.431 3838026 3802226 3719973 3601552 3470538 3358596 3293321 3286210 
3803.288 3332786 3414430 3506979 3584347 3626911 3623938 3577598 3503372 
3807.146 3425584 3368948 3348112 3364640 3409120 3468802 3531598 3590962 
3811.003 3646190 3700190 3755934 3812922 3865204 3901945 3911273 3883825 
3814.861 3819340 3728763 3635064 3564001 3534470 3551073 3603323 3670683 
3818.718 3727994 3753394 3731804 3660291 3551006 3430060 3329614 3274191 
3822.575 3273190 3319263 3394427 3476484 3545928 3591262 3609003 3605060 
3826.433 3591162 3581006 3584547 3604158 3635398 3669480 3697048 3711518 
3830.290 3711485 3700724 3686422 3676163 3675929 3687959 3710884 3740928 
3834.148 3772578 3800120 3817167 3817702 3796944 3752826 3687592 3608836 
3838.005 3528725 3460719 3414497 3394627 3398334 3419005 3447059 3473945 
3841.863 3493952 3504441 3505944 3501735 3496357 3494754 3501267 3518704 
3845.720 3548100 3588823 3638171 3693440 3751856 3811986 3874163 3938924 
3849.577 4005801 4070648 4124064 4150324 4130888 4048273 3895693 3686121 
3853.435 3456711 3254161 3118379 3065253 3086443 3159830 3260938 3370818 
3857.292 3476817 3571919 3653876 3721377 3773681 3810081 3830672 3836655 
3861.150 3830972 3817535 3799485 3777959 3752358 3721678 3687391 3655513 
3865.007 3635732 3637804 3667342 3721410 3788354 3849358 3885563 3882220 
3868.865 3835518 3755700 3665671 3593133 3556518 3560226 3593568 3638739 
3872.722 3677567 3698686 3700323 3690499 3682445 3688795 3716966 3766195 
3876.579 3828666 3891748 3942635 3971023 3969753 3938255 3882554 3815863 
3880.437 3754363 3714727 3707709 3735012 3788789 3853303 3909969 3940395 
3884.294 3932537 3885496 3811251 3732405 3673757 3654210 3678268 3737485 
3888.152 3813189 3885095 3934711 3949523 3926519 3872324 3801490 3731670 
3892.009 3678903 3653040 3656148 3684384 3730768 3788087 3849492 3909367 
3895.866 3963299 4007473 4038173 4052988 4050580 4031886 4000149 3961125 
3899.724 3921470 3885998 3857548 3834616 3813189 3788087 3755499 3715128 
3903.581 3671385 3630988 3602388 3591763 3601319 3628682 3668511 3714493 
3907.439 3760780 3803295 3840834 3872458 3898836 3920066 3936182 3947851 
3911.296 3955876 3962363 3970054 3981088 3996705 4015432 4034561 4049577 
3915.154 4056467 4052922 4039009 4017037 3991254 3965606 3943304 3926318 
3919.011 3915285 3910972 3914015 3924747 3942802 3965907 3990117 4010415 
3922.868 4021585 4020615 4007774 3987174 3965472 3949824 3946213 3956545 
3926.726 3979283 4009412 4041417 4069644 4090281 4101218 4102088 4093459 
3930.583 4076935 4054293 4028675 4003660 3983864 3973297 3974735 3988478 
3934.441 4012155 4041350 4070548 4095031 4112256 4121623 4125302 4126506 
3938.298 4128112 4131290 4135371 4137110 4133430 4121188 4099011 4068808 
3942.156 4034661 4002657 3978447 3966175 3967479 3980553 4001353 4024194 
3946.013 4044126 4056668 4059644 4053557 4040882 4025431 4011419 4002557 
3949.870 4000717 4006168 4017639 4033023 4050012 4066534 4081284 4093659 
3953.728 4103760 4111855 4118478 4124566 4130520 4136943 4144336 4152464 
3957.585 4161296 4169927 4177253 4182104 4183342 4180532 4174176 4165377 
3961.443 4155843 4147380 4141693 4139385 4140790 4144871 4150591 4156847 
3965.300 4162701 4167786 4172068 4175848 4179194 4182372 4185349 4187725 
3969.157 4189197 4189899 4189999 4189933 4189999 4190535 4191773 4193111 
3973.015 4194315 4194650 4193847 4192475 4191037 4191003 4193646 4200036 
3976.872 4210575 4224661 4241256 4258354 4274014 4286362 4294426 4297806 
3980.730 4297337 4294192 4290109 4286562 4284756 4284856 4286964 4290277 
3984.587 4293957 4297571 4300784 4303662 4306908 4310823 4315843 4322402 
3988.445 4330601 4340541 4352087 4364839 4378528 4392351 4405103 4415680 
3992.302 4423313 4427062 4427262 4424785 4420835 4417086 4414743 4414509 
3996.159 4416384 4420166 4424752 4429873 4434660 4439078 4442828 4446142 
4000.017 4448518 4450092 
##END=
