
##TITLE=Z244_1_b
##JCAMP-DX=5.01  $$ Nicolet v. 1
##DATATYPE=INFRARED SPECTRUM
##ORIGIN=UniL
##OWNER=Nicolet
##LONGDATE=2011/09/20
##TIME=11:57:13
##SPECTROMETER/DATA SYSTEM=Nicolet iS5
##DATA PROCESSING=
Ratio against background
%Transmittance->Absorbance
Truncated
ElementMultiply or ElementDivide
##COMMENTS=
Number of sample scans: 32
Collection length: 51.17 sec
Sample gain: 2.0
Background collected on: Mar Sep 20 11:38:25 2011 (GMT+02:00);
Number of background scans: 32
Background gain: 2.0
Sample spacing:  1.000
Number of scan points: 12415
Resolution points: 8192
Number of FFT points: 65536
Apodization: N-B fort;
Phase correction: Mertz;
Laser frequency: 15798.0 cm-1
Number of rejected sample scans: 0
Number of rejected background scans: 0
Bench serial number: ASB1000141;
##RESOLUTION=4.000
##XUNITS=1/CM
##YUNITS=ABSORBANCE
##FIRSTX=649.893372
##LASTX=4000.122314
##FIRSTY=0.062348
##MAXX=4000.122314
##MINX=649.893372
##MAXY=0.278525
##MINY=0.003144
##XFACTOR=1.000000
##YFACTOR=1.000000E-009
##NPOINTS=6950
##DELTAX=0.482117
##ZPD=6100
##XYDATA=(X++(Y..Y))
649.893 62348108 62869296 63448364 64095096 64807600 65575488 66382960 
653.268 67221096 68091360 69007992 69990248 71057216 72220832 73486024 
656.643 74857096 76347720 77984296 79807912 81864776 84193232 86819144 
660.018 89750648 92978736 96474928 100180656 103996488 107759288 111260872 
663.393 114289792 116654728 118234104 118967472 118815896 117730384 
666.285 115643264 112522448 108472232 103836376 99161288 94967072 91555808 
669.660 88955304 87019624 85551896 84379976 83389848 82518504 81746288 
673.035 81075952 80518296 80078208 79751816 79528528 79397984 79354784 
676.410 79401168 79546512 79801712 80176792 80676432 81300000 82043720 
679.785 82905568 83889576 85008624 86280872 87727640 89368544 91217448 
683.159 93286840 95595336 98172552 101068128 104348496 108083720 112346880 
686.534 117200688 122698080 128888680 135815472 143498768 151891344 
689.427 160824064 169932864 178583120 185950912 191066736 192993200 
692.320 191115264 185248432 175748224 163407136 149350064 134812976 
695.212 120872840 108435104 98080352 90048560 84331936 80717280 78896320 
698.587 78530160 79347264 81182952 83971296 87710968 92379696 97825560 
701.962 103709640 109460888 114305656 117477744 118338648 116577280 
704.855 112306672 106034896 98543864 90642184 83078488 76374024 70772240 
708.229 66306756 62850728 60214844 58200648 56651464 55460664 54551644 
711.604 53870152 53370664 53012252 52765512 52614268 52551588 52574548 
714.979 52673780 52829604 53015284 53204864 53382612 53549264 53719728 
718.354 53916108 54155132 54443080 54773656 55134460 55513752 55908900 
721.729 56325988 56777796 57275932 57825400 58423396 59060936 59726100 
725.104 60406452 61090040 61762528 62404492 62994392 63510412 63940428 
728.478 64289228 64583668 64870416 65201788 65627940 66181092 66869364 
731.853 67680600 68591944 69582816 70642624 71776200 72997960 74325328 
735.228 75768328 77328000 78997776 80773032 82658648 84676040 86858320 
738.603 89244656 91870312 94756888 97914056 101344160 105051296 109050576 
741.978 113371424 118055656 123161928 128769888 134987456 141971424 
744.870 149912160 158991808 169309168 180754720 192896976 204833920 
747.763 215295760 222782704 225879488 223807264 216685664 205630816 
750.656 192361056 178878288 167009392 157988928 152502512 150599536 
753.548 151830912 155366656 160201152 165389392 170077680 173668160 
756.441 175827184 176410976 175414912 172891312 168902848 163509584 
759.334 156792304 148895312 140049264 130591136 120962712 111624816 
762.227 103046216 95639320 89677440 85301200 82484928 81059936 80737152 
765.601 81164328 82004304 82938176 83720232 84188480 84243512 83854728 
768.976 83046232 81894096 80511800 79036128 77615376 76372048 75390800 
772.351 74709368 74320648 74190488 74278072 74554264 75004112 75623848 
775.726 76409696 77349496 78420880 79599240 80864264 82208416 83635016 
779.101 85150816 86755904 88437576 90169008 91919776 93665128 95392144 
782.475 97100776 98795576 100475544 102125864 103716240 105204808 106551904 
785.850 107724600 108701040 109469456 110020368 110340512 110413696 
788.743 110220792 109747936 108993128 107966360 106687392 105178376 
791.636 103459472 101544928 99446272 97178024 94761416 92225040 89601760 
795.010 86919072 84195880 81442544 78666360 75881680 73118232 70419096 
798.385 67837376 65424040 63213132 61220952 59445688 57876052 56499508 
801.760 55306300 54289304 53437432 52731164 52143192 51639336 51189520 
805.135 50773312 50380984 50012576 49671084 49358028 49071284 48809524 
808.510 48578204 48393000 48282564 48284452 48433820 48759772 49276740 
811.885 49981720 50851048 51837352 52871516 53852900 54660904 55173324 
815.259 55275968 54897372 54024908 52711712 51064616 49221924 47331700 
818.634 45511852 43844060 42371248 41102744 40030500 39138052 38407620 
822.009 37817996 37343772 36957176 36629896 36339940 36077172 35841696 
825.384 35640588 35480416 35362180 35279120 35221512 35181056 35156804 
828.759 35154144 35182528 35247784 35348448 35474632 35613576 35754912 
832.133 35896292 36043580 36207528 36397184 36615588 36858228 37117136 
835.508 37386632 37667064 37965400 38291080 38651408 39046620 39470816 
838.883 39915376 40375296 40852956 41358876 41906620 42508144 43169240 
842.258 43888928 44663204 45489852 46372008 47318216 48338112 49436512 
845.633 50609100 51840188 53106188 54375780 55611956 56774776 57813932 
849.008 58672084 59291872 59619432 59622700 59302508 58699548 57889112 
852.382 56968384 56044028 55203948 54510168 53994628 53660412 53490908 
855.757 53457856 53529700 53673720 53858564 54060256 54261220 54455476 
859.132 54648052 54853124 55088940 55371412 55711920 56115808 56584688 
862.507 57120128 57723628 58394288 59121104 59877176 60614904 61264484 
865.882 61748700 61991008 61930092 61535996 60812900 59801116 58565564 
869.256 57193224 55779992 54415512 53185952 52161948 51391616 50905508 
872.631 50713540 50812048 51190860 51841980 52764496 53968292 55471844 
876.006 57299600 59476920 62021164 64931288 68171720 71662240 75258896 
879.381 78745752 81870336 84346624 85911584 86390616 85719248 83979704 
882.756 81377360 78227184 74885400 71678728 68896808 66739172 65317504 
886.131 64677372 64806716 65656500 67145672 69171272 71600376 74256448 
889.505 76935160 79392728 81360936 82599488 82908376 82174024 80395352 
892.880 77685696 74259520 70378184 66334592 62391292 58739448 55506260 
896.255 52740852 50434752 48544816 47014648 45789448 44816764 44052452 
899.630 43455852 42987316 42614456 42311452 42062064 41859076 41699692 
903.005 41580516 41494980 41432248 41381400 41334936 41291788 41256772 
906.379 41236804 41237096 41258044 41295176 41341564 41392592 41448100 
909.754 41512264 41590544 41685872 41796796 41917568 42041404 42164576 
913.129 42288332 42418848 42564168 42729568 42915404 43117460 43329896 
916.504 43548772 43774828 44012992 44269524 44548456 44848804 45165384 
919.879 45490992 45821004 46155208 46498152 46856720 47237492 47644632 
923.254 48080944 48550488 49060524 49622832 50249576 50946376 51705356 
926.628 52498752 53283448 54001608 54594244 55016240 55241912 55273484 
930.003 55138896 54888576 54585116 54290692 54066640 53961276 54007988 
933.378 54226120 54619384 55178436 55882860 56704356 57607836 58549976 
936.753 59485128 60365136 61144964 61794000 62300720 62680164 62971248 
940.128 63235476 63544160 63961088 64538992 65307176 66270940 67415392 
943.502 68709296 70111096 71565760 73010072 74373064 75573648 76535432 
946.877 77192304 77496576 77430720 77007312 76268680 75274816 74100016 
950.252 72823008 71515208 70244328 69068704 68030704 67160920 66472808 
953.627 65964476 65622852 65428816 65363868 65412208 65562928 65808108 
957.002 66140116 66550232 67028552 67566072 68157368 68802192 69504888 
960.377 70271672 71108656 72020032 73007840 74075728 75231712 76489672 
963.751 77870984 79400808 81102304 82993808 85083736 87369960 89841016 
967.126 92481936 95279320 98227472 101332944 104614896 108101824 111818728 
970.501 115773832 119937808 124235144 128528832 132621024 136290288 
973.394 139300048 141446480 142608464 142765168 142018976 140570096 
976.286 138709008 136759024 135015312 133738488 133097840 133157536 
979.179 133872360 135089072 136567680 137987648 139018336 139351520 
982.072 138738640 137051632 134287728 130572976 126120496 121205336 
984.964 116118376 111106784 106380264 102086496 98306168 95071904 92372320 
988.339 90168152 88401424 87009296 85933920 85121552 84528856 84121032 
991.714 83866744 83740528 83719504 83784520 83921408 84119872 84372984 
995.089 84675888 85022960 85407632 85823152 86263208 86723816 87203952 
998.464 87705088 88228888 88776256 89345144 89931328 90529728 91135952 
1001.839 91748040 92366376 92993840 93633848 94289744 94965056 95663352 
1005.213 96389248 97148720 97947728 98791248 99681672 100618344 101597888 
1008.588 102615864 103668328 104753032 105869296 107017088 108196224 
1011.481 109405216 110641744 111903992 113192768 114512024 115870256 
1014.374 117278816 118749736 120295672 121926848 123651688 125476856 
1017.266 127407816 129448368 131600960 133866416 136243072 138726480 
1020.159 141308608 143974992 146700784 149449712 152164832 154769392 
1023.052 157174640 159278176 160984928 162226640 162970896 163236720 
1025.945 163090800 162644464 162026864 161365664 160775168 160330400 
1028.838 160064368 159962352 159964608 159967008 159824880 159379552 
1031.731 158457568 156895184 154572448 151416416 147425424 142668144 
1034.624 137284192 131466448 125429304 119408504 113618888 108230064 
1037.517 103369544 99099640 95427192 92316088 89704480 87521600 85696848 
1040.892 84173240 82903608 81848888 80978640 80266032 79688400 79228992 
1044.267 78874664 78615688 78444136 78350912 78326104 78360792 78447632 
1047.643 78583760 78769984 79008624 79299856 79638048 80009040 80390808 
1051.018 80756832 81076584 81323056 81474480 81516608 81445616 81268760 
1054.393 81005432 80684360 80343280 80023504 79761176 79586032 79516464 
1057.768 79558768 79710968 79965744 80312792 80737872 81220376 81730928 
1061.144 82226272 82654712 82960872 83091128 83007280 82690872 82147160 
1064.519 81401784 80497360 79487264 78424688 77361576 76344560 75407824 
1067.894 74576064 73862208 73268040 72788568 72415816 72142888 71966024 
1071.269 71884296 71897392 72002856 72194968 72464592 72800872 73194776 
1074.645 73639568 74131104 74666320 75241440 75850864 76489192 77153240 
1078.020 77845616 78575424 79359080 80217040 81169168 82234120 83428392 
1081.395 84766288 86265272 87946296 89832944 91952816 94331944 96991240 
1084.770 99945232 103196672 106734840 110527528 114522592 118643176 
1087.663 122786656 126843480 130700720 134257168 137442848 140216480 
1090.556 142564528 144487296 145982160 147028832 147589616 147615712 
1093.449 147074752 145977376 144402400 142502144 140482240 138595648 
1096.343 137084560 136149184 135933216 136489952 137781680 139671312 
1099.236 141945776 144318320 146444736 147989936 148633824 148123696 
1102.129 146323504 143216768 138915680 133624632 127623320 121216464 
1105.022 114683592 108285288 102225256 96641584 91623032 87201800 83368168 
1108.397 80083264 77292528 74935712 72950216 71279592 69870408 68671104 
1111.772 67637152 66727696 65908404 65155208 64450816 63785136 63152848 
1115.147 62551716 61981376 61443652 60942660 60484784 60077004 59725108 
1118.523 59432008 59196512 59014548 58880544 58790360 58741500 58733192 
1121.898 58765432 58836984 58944756 59084736 59253440 59450020 59676604 
1125.273 59937916 60239276 60584732 60976212 61413576 61896848 62427484 
1128.648 63009636 63649304 64352320 65121444 65954724 66844472 67778112 
1132.024 68737984 69704144 70654832 71566040 72415304 73182976 73855568 
1135.399 74430248 74916928 75340632 75735824 76146064 76617408 77189776 
1138.774 77898856 78771688 79826232 81073472 82517024 84153248 85970992 
1142.149 87951368 90070048 92294000 94585144 96899240 99180776 101368224 
1145.525 103389632 105161752 106602000 107627968 108166296 108165656 
1148.418 107598040 106463240 104785928 102613304 100008800 97042904 93796208 
1151.793 90352432 86790696 83190440 79620616 76136904 72786848 69606312 
1155.168 66622540 63858056 61328700 59042752 57001064 55196652 53616476 
1158.543 52243516 51060664 50050092 49192944 48470012 47858364 47333256 
1161.919 46871556 46452056 46059152 45684232 45322844 44973912 44637240 
1165.294 44312824 44001444 43705604 43431060 43185124 42975576 42808472 
1168.669 42685700 42605756 42564860 42560000 42590260 42657260 42764304 
1172.044 42914088 43107360 43342924 43618696 43934168 44291392 44695260 
1175.420 45151856 45666160 46240668 46875248 47568280 48318632 49126784 
1178.795 49994696 50923652 51911392 52949928 54024348 55115800 56203292 
1182.170 57267692 58295520 59279948 60221504 61127416 62012144 62895916 
1185.545 63802176 64757400 65784476 66898236 68100816 69377832 70700016 
1188.921 72021088 73286832 74441296 75428440 76202768 76731096 76992352 
1192.296 76979424 76696152 76154592 75370816 74363240 73150624 71751264 
1195.671 70186960 68487536 66691800 64853572 63037024 61304888 59715000 
1199.046 58305184 57087176 56048284 55157372 54376156 53667088 53004204 
1202.422 52374368 51776164 51215952 50703784 50250544 49865488 49556308 
1205.797 49328372 49183256 49118400 49127004 49200476 49329556 49508028 
1209.172 49734352 50010720 50341728 50731452 51182324 51694568 52267660 
1212.547 52902280 53601408 54370336 55215348 56141300 57150968 58245164 
1215.923 59424524 60691676 62052848 63517540 65097928 66806600 68654960 
1219.298 70653504 72812664 75143624 77659784 80376176 83305832 86458744 
1222.673 89836696 93431320 97219928 101164736 105211896 109283320 113280920 
1226.048 117083880 120540776 123489616 125759872 127185688 127641544 
1228.941 127051680 125409720 122780856 119299032 115152344 110547272 
1231.834 105710808 100862200 96185648 91842400 87948408 84571560 81743936 
1235.210 79463072 77703728 76425224 75580272 75119232 74989616 75142712 
1238.585 75533352 76119488 76867280 77746848 78728784 79783704 80875408 
1241.960 81959560 82989560 83915216 84692032 85288576 85687968 85891352 
1245.335 85915224 85789968 85555160 85254384 84937664 84653376 84444616 
1248.711 84347024 84380624 84548216 84835208 85214832 85652816 86112776 
1252.086 86565576 86989176 87371136 87709792 88013048 88298600 88591984 
1255.461 88927128 89341520 89868768 90536048 91355680 92323136 93415048 
1258.836 94591072 95798880 96970984 98034208 98912360 99524520 99798912 
1262.212 99674720 99107712 98078608 96593120 94681264 92389168 89776928 
1265.587 86912912 83865464 80709784 77523552 74379008 71347184 68486992 
1268.962 65839916 63435092 61288332 59406592 57792580 56444680 55356468 
1272.337 54514448 53899224 53486636 53250672 53170036 53228424 53414984 
1275.713 53723328 54147404 54680296 55314128 56041612 56857856 57762152 
1279.088 58757772 59849716 61043212 62342524 63752092 65277412 66927612 
1282.463 68714768 70651912 72748680 75005096 77407744 79924560 82509416 
1285.838 85102160 87631944 90028912 92224512 94156496 95776240 97045968 
1289.214 97941088 98449824 98569464 98303008 97653808 96621840 95203240 
1292.589 93393240 91193992 88624408 85726280 82571920 79256824 75890600 
1295.964 72596240 69489024 66675112 64250888 62288556 60839848 59930084 
1299.339 59555388 59684548 60261512 61219008 62478136 63957596 65583080 
1302.715 67277920 68967136 70580256 72043384 73288400 74259280 74910392 
1306.090 75214176 75158864 74747464 73997424 72943984 71649536 70202304 
1309.465 68721296 67349960 66222236 65448464 65082064 65100468 65398924 
1312.840 65802596 66115812 66143400 65745732 64868228 63540324 61864524 
1316.216 59978544 58037540 56172932 54475684 52997992 51752160 50725644 
1319.591 49893588 49232016 48721740 48348740 48102856 47973768 47950564 
1322.966 48022464 48180260 48416784 48727636 49108084 49551776 50049128 
1326.341 50587136 51151084 51727676 52305180 52874924 53431176 53968928 
1329.717 54484284 54973968 55436608 55873364 56288792 56690424 57086308 
1333.092 57483912 57888808 58303860 58730800 59171380 59628248 60105352 
1336.467 60607016 61136536 61695988 62286148 62907480 63562036 64253956 
1339.842 64988276 65770404 66603376 67487072 68418296 69393072 70408464 
1343.218 71464472 72564832 73716872 74929528 76211136 77567720 79002304 
1346.593 80514872 82103648 83766400 85502064 87310280 89190336 91140192 
1349.968 93154320 95223296 97336408 99482904 101657640 103863056 106111544 
1353.343 108422600 110819816 113329056 115973680 118773784 121745824 
1356.236 124898008 128225040 131698144 135263168 138832560 142291968 
1359.129 145527216 148432912 150940208 153030608 154734432 156119648 
1362.022 157265072 158253008 159146944 159987024 160798576 161592160 
1364.916 162369792 163126976 163855552 164548160 165205888 165846768 
1367.809 166510704 167259072 168157488 169266352 170627408 172258048 
1370.702 174158880 176323632 178750800 181444736 184412000 187651776 
1373.595 191143952 194849488 198722048 202726768 206855872 211126240 
1376.488 215563424 220170224 224900288 229632912 234189328 238345120 
1379.381 241848624 244467568 245980032 246180048 244911888 242087792 
1382.274 237743984 232051872 225306064 217843456 209929280 201725264 
1385.167 193255040 184455168 175253968 165657680 155792000 145883680 
1388.060 136191520 126931744 118251600 110224288 102884192 96259672 90365976 
1391.435 85210280 80778976 77029504 73900736 71324464 69246224 67618960 
1394.811 66398172 65533416 64951644 64568712 64311012 64128428 64015640 
1398.186 64012380 64197600 64660564 65471268 66668624 68253864 70207016 
1401.561 72498848 75098872 77963872 81013976 84128112 87124128 89769952 
1404.936 91835968 93117576 93482232 92893248 91401112 89129472 86239768 
1408.312 82927952 79396472 75832992 72420000 69303200 66578968 64298636 
1411.687 62466504 61058728 60041164 59385848 59074260 59090964 59416544 
1415.062 60019172 60854716 61881756 63069432 64409772 65920824 67635456 
1418.437 69580016 71747320 74091568 76540496 79025360 81506344 83975800 
1421.813 86445152 88919440 91379112 93769976 95996480 97949176 99527520 
1425.188 100654976 101288680 101402328 100971040 99969136 98379464 96217360 
1428.563 93543592 90475496 87168304 83775600 80438456 77265848 74333592 
1431.938 71699320 69399176 67444152 65822952 64501664 63437320 62592856 
1435.313 61957648 61555468 61435484 61641112 62176364 62993588 64012228 
1438.689 65144964 66317952 67483712 68610336 69677072 70670544 71577680 
1442.064 72387000 73090792 73685496 74172840 74557488 74843944 75033728 
1445.439 75124864 75115648 75011752 74832960 74618752 74419312 74283576 
1448.814 74243912 74305400 74451016 74654280 74896696 75175568 75505472 
1452.190 75906736 76393184 76959368 77580672 78215880 78820080 79360512 
1455.565 79822976 80220712 80586392 80958512 81352184 81752568 82127824 
1458.940 82450520 82709872 82912752 83077128 83223464 83368248 83521352 
1462.315 83688728 83878680 84106352 84396800 84781560 85287288 85931776 
1465.691 86721792 87657808 88744744 89992712 91413216 93011816 94781816 
1469.066 96706160 98753192 100889536 103080704 105281008 107429976 109441664 
1472.441 111205992 112611448 113566080 114010792 113920848 113294136 
1475.334 112150200 110534328 108521744 106211648 103701216 101072688 
1478.227 98372648 95613056 92790712 89904712 86970232 84028112 81132976 
1481.603 78338648 75686752 73195680 70865376 68685000 66640504 64719824 
1484.978 62915028 61221336 59638096 58170300 56827228 55622392 54569224 
1488.353 53678784 52956964 52406664 52030452 51829956 51803564 51940968 
1491.728 52218668 52601064 53047332 53514744 53970580 54397036 54792596 
1495.104 55172380 55560292 55976816 56424228 56883240 57316464 57686048 
1498.479 57963092 58137040 58215952 58222128 58185988 58137456 58103824 
1501.854 58103748 58144464 58220880 58314356 58395232 58423588 58362296 
1505.229 58192768 57939468 57678444 57518144 57550408 57796936 58212620 
1508.604 58718172 59241932 59732792 60164488 60533496 60849148 61128180 
1511.980 61386900 61637868 61885960 62129224 62360460 62571428 62757604 
1515.355 62922880 63083916 63268976 63512824 63840820 64258456 64745636 
1518.730 65264164 65767632 66214940 66589548 66910916 67237688 67638120 
1522.105 68162720 68814928 69555328 70322512 71059008 71729184 72319992 
1525.481 72843896 73327704 73803096 74293208 74808752 75353752 75931792 
1528.856 76550168 77218392 77941792 78716160 79525416 80351336 81182024 
1532.231 82027672 82924416 83931584 85106600 86471152 88004600 89652272 
1535.606 91355552 93063256 94744440 96394336 98023880 99666088 101372744 
1538.982 103214360 105259568 107550456 110097640 112867208 115805496 
1541.875 118867648 122025048 125268832 128597168 132001776 135450736 
1544.768 138882192 142218720 145376128 148279888 150875056 153102960 
1547.661 154895664 156182064 156894848 157013184 156584032 155723184 
1550.554 154563984 153198848 151650704 149876224 147813536 145443968 
1553.447 142836336 140151696 137598432 135330256 133394688 131708696 
1556.340 130096408 128326464 126177952 123528232 120441600 117221736 
1559.233 114291560 111967200 110300144 109140248 108263560 107476104 
1562.126 106638720 105645640 104425984 102942648 101205440 99274208 97246000 
1565.501 95224320 93269304 91378784 89487336 87496632 85310840 82883360 
1568.877 80249448 77529808 74891416 72475240 70353800 68518064 66909328 
1572.252 65452464 64081652 62747992 61418500 60075520 58722912 57403960 
1575.627 56209216 55265392 54700060 54587556 54935648 55703972 56838864 
1579.002 58300144 60073504 62170932 64618924 67443920 70658224 74246152 
1582.378 78155776 82301312 86548152 90719552 94615096 98005896 100680416 
1585.753 102473328 103274248 103051720 101853560 99815584 97145288 94110488 
1589.128 91022296 88165360 85784880 84063896 83104648 82950976 83596344 
1592.503 85001600 87101816 89814280 93050944 96706120 100665128 104812664 
1595.879 109026856 113197712 117234976 121058064 124593400 127761632 
1598.772 130461096 132582400 134021608 134700272 134590352 133716944 
1601.665 132154288 130003336 127386672 124441480 121300312 118098320 
1604.558 114954552 111952152 109141656 106536736 104125376 101885440 
1607.451 99797408 97852584 96049464 94388600 92865760 91468888 90182872 
1610.826 88995688 87903216 86908824 86017240 85224744 84511704 83840904 
1614.201 83160576 82420592 81587776 80671640 79734776 78885592 78237544 
1617.577 77858696 77754688 77875824 78149992 78503448 78880944 79252488 
1620.952 79610664 79972712 80374264 80864304 81489272 82281008 83249752 
1624.327 84382760 85653216 87028976 88481360 89984064 91513224 93049880 
1627.702 94577440 96085224 97568640 99029296 100471576 101900608 103319896 
1631.078 104731776 106140144 107549528 108970264 110421384 111934608 
1633.971 113560232 115369232 117451992 119884616 122705120 125902640 
1636.864 129417208 133183104 137153024 141308464 145654112 150206928 
1639.757 154989824 160013728 165273136 170748016 176396656 182164960 
1642.650 187999504 193834912 199614912 205305360 210896432 216422688 
1645.543 221953952 227584240 233364960 239274432 245218400 251055040 
1648.436 256652288 261908912 266760624 271110624 274767616 277414624 
1651.329 278525376 277455872 273736896 267540656 259895600 252151008 
1654.222 245202592 239155344 233636272 228142320 222300384 215927280 
1657.115 209017024 201685088 194097424 186420080 178740800 171074368 
1660.008 163380256 155595712 147679344 139644448 131573912 123619888 
1662.901 115978088 108836696 102334280 96527072 91388680 86834968 82749752 
1666.277 79013912 75529488 72238640 69134520 66266076 63720128 61590476 
1669.652 59942632 58790624 58097116 57789404 57790996 58034284 58470212 
1673.027 59075700 59851732 60826240 62045664 63561804 65405436 67565920 
1676.402 70002664 72667048 75529680 78588248 81861736 85373552 89122064 
1679.778 93072616 97164720 101324288 105510520 109735960 114074728 118650440 
1683.153 123594736 128972544 134682656 140463344 145982112 150963200 
1686.046 155239248 158721264 161365136 163123984 163963760 163876240 
1688.939 162878464 161017280 158361840 155012464 151100848 146783040 
1691.832 142229664 137563632 132820936 127932416 122730784 117027264 
1694.725 110745200 104055936 97408552 91366064 86313288 82320616 79167160 
1698.100 76508520 73996912 71412448 68746208 66212236 64126164 62685408 
1701.476 61846300 61376288 61003020 60487792 59674016 58473436 56851324 
1704.851 54824852 52456688 49847504 47110436 44355572 41676680 39137544 
1708.226 36775420 34598772 32589816 30717690 28954174 27287578 25728098 
1711.601 24299346 23020246 21892106 20889564 19969496 19085098 18209234 
1714.977 17343822 16517580 15767457 15119446 14575150 14117544 13726929 
1718.352 13398684 13146020 12985669 12919853 12928148 12970819 13001989 
1721.727 12989356 12923267 12822716 12723384 12662111 12654777 12689608 
1725.102 12734474 12755287 12733893 12673881 12595866 12523117 12468829 
1728.478 12427638 12381067 12308490 12201778 12068246 11925594 11787959 
1731.853 11656631 11516700 11348005 11143136 10927490 10753624 10676769 
1735.228 10715517 10843538 11003574 11135589 11197804 11172883 11073622 
1738.603 10935747 10805865 10717895 10679248 10671335 10665359 10640400 
1741.979 10593238 10535184 10482229 10441702 10407153 10361033 10285334 
1745.354 10172877 10032134 9883030 9745703 9631081 9533933 9437755 9324433 
1749.211 9188027 9040295 8908442 8820720 8792317 8817744 8875063 8938104 
1753.069 8988706 9021756 9041242 9053828 9061779 9061744 9047738 9017697 
1756.926 8979065 8946762 8935465 8951092 8985560 9020133 9032109 9007616 
1760.783 8949840 8880980 8832860 8830627 8881048 8968749 9065974 9145319 
1764.641 9192595 9208028 9203020 9191309 9182240 9175776 9164846 9140210 
1768.498 9098319 9042833 8981840 8922140 8865018 8807059 8744916 8682950 
1772.356 8636339 8625557 8665272 8755599 8880101 9013603 9130566 9216726 
1776.213 9271151 9304867 9332964 9366211 9405485 9441682 9462643 9462508 
1780.071 9446322 9430779 9434436 9467080 9523976 9587484 9637112 9658523 
1783.928 9651984 9632267 9621833 9638061 9684543 9750243 9815955 9865337 
1787.785 9890894 9895878 9889912 9880793 9869371 9848186 9807380 9743907 
1791.643 9668009 9603472 9575594 9599510 9670720 9769051 9867642 9946694 
1795.500 9999854 10032744 10057770 10084933 10115963 10143368 10155612 
1798.875 10145335 10116099 10082796 10065773 10079743 10127054 10195807 
1802.251 10268200 10328967 10372741 10405218 10438037 10480226 10532740 
1805.626 10587296 10631436 10656632 10662744 10658839 10659043 10674493 
1809.001 10707774 10752707 10797746 10835317 10865926 10898950 10946144 
1812.376 11014789 11101834 11195730 11281213 11348584 11397937 11440254 
1815.752 11490740 11560968 11652275 11754630 11853026 11934279 11994598 
1819.127 12039937 12081907 12128448 12178844 12222362 12243900 12231257 
1822.502 12181468 12102213 12009108 11919464 11844377 11786495 11740911 
1825.877 11701084 11662588 11624367 11587375 11550964 11511392 11463829 
1829.253 11407393 11349264 11304099 11289952 11317668 11384773 11475192 
1832.628 11566038 11636449 11674704 11682839 11673922 11665685 11670110 
1836.003 11689205 11715142 11737268 11749353 11754869 11765081 11793067 
1839.378 11845024 11914901 11985810 12036974 12052848 12028117 11970483 
1842.754 11897328 11829872 11784487 11767839 11779210 11813835 11868212 
1846.129 11941226 12031251 12133286 12237323 12331806 12406806 12460338 
1849.504 12498564 12533690 12577379 12633968 12699127 12762589 12815004 
1852.879 12853160 12883126 12916098 12962660 13024829 13094828 13157289 
1856.255 13198139 13211357 13202443 13185022 13174025 13177680 13193664 
1859.630 13211357 13218598 13209786 13189224 13168936 13161251 13172727 
1863.005 13199266 13229837 13250436 13253100 13238070 13212929 13186491 
1866.380 13163505 13141989 13116512 13084447 13051974 13034970 13052998 
1869.756 13119483 13232911 13376267 13524045 13653443 13751689 13818726 
1873.131 13864221 13900245 13933294 13960872 13973327 13961762 13924365 
1876.506 13870105 13816024 13778366 13766840 13778708 13803266 13826285 
1879.881 13839695 13844142 13847733 13859364 13883037 13914477 13944928 
1883.257 13965936 13976749 13984961 14003474 14042760 14103510 14175360 
1886.632 14240990 14285673 14303857 14303685 14303070 14321800 14371767 
1890.007 14450924 14546163 14641458 14725633 14797380 14862900 14930554 
1893.382 15004016 15080337 15151217 15209411 15254538 15294829 15343706 
1896.758 15411814 15501221 15603320 15704034 15789757 15855940 15908591 
1900.133 15961938 16030004 16119231 16225774 16338054 16444102 16536785 
1903.508 16617956 16694663 16772868 16851980 16922356 16969316 16981962 
1906.883 16958324 16909060 16852152 16806722 16783542 16782062 16792636 
1910.259 16803622 16809650 16813232 16823392 16849122 16893178 16949574 
1913.634 17006942 17053116 17083064 17099642 17112498 17131798 17163786 
1917.009 17208494 17262620 17323030 17391690 17474124 17575618 17694806 
1920.384 17822002 17940324 18033190 18092772 18124450 18146594 18181006 
1923.760 18244930 18340036 18454042 18565792 18658100 18724376 18771878 
1927.135 18815714 18869902 18939916 19018836 19093408 19151338 19189880 
1930.510 19217516 19250556 19302514 19378486 19471900 19569842 19659798 
1933.885 19737602 19808552 19883120 19968838 20063804 20156012 20229358 
1937.260 20272302 20284452 20277474 20268170 20270322 20285806 20304174 
1940.636 20308408 20286432 20237968 20178436 20129254 20109196 20123250 
1944.011 20161324 20204190 20235120 20249250 20253796 20263344 20289486 
1947.386 20333130 20383654 20424424 20443492 20441304 20431058 20433766 
1950.761 20464400 20525186 20602762 20676946 20730430 20757678 20767374 
1954.137 20776168 20798100 20835086 20876804 20905902 20910700 20892032 
1957.512 20865366 20852678 20872040 20925236 20997526 21064404 21106282 
1960.887 21119258 21116684 21121274 21151818 21213988 21297012 21381130 
1964.262 21448242 21494020 21528628 21570934 21635916 21726648 21830082 
1967.638 21926814 21999830 22044240 22068466 22087362 22110686 22136626 
1971.013 22151166 22137708 22088060 22010636 21927442 21864996 21841788 
1974.388 21857400 21895974 21934134 21957274 21966754 21980660 22019456 
1977.763 22094264 22196706 22303148 22385298 22425978 22427476 22409020 
1981.139 22396740 22407764 22445760 22498240 22547236 22578962 22592050 
1984.514 22597424 22610620 22640848 22685496 22731582 22764680 22777252 
1987.889 22775400 22775820 22796526 22846884 22921488 23001800 23066470 
1991.264 23104594 23119480 23128776 23153170 23205596 23282356 23366302 
1994.640 23434490 23471386 23476072 23461208 23445856 23444282 23459670 
1998.015 23483558 23504332 23514126 23516926 23526684 23558446 23618862 
2001.390 23700980 23785252 23850914 23884730 23888652 23878536 23875348 
2004.765 23893062 23930524 23971628 23995332 23986998 23946734 23889352 
2008.141 23834358 23796556 23775908 23761486 23737306 23695662 23642444 
2011.516 23594862 23571074 23581288 23619282 23667146 23703116 23714488 
2014.891 23702800 23683974 23677222 23693632 23730096 23770796 23799320 
2018.266 23807510 23804468 23810906 23851020 23938400 24068174 24219284 
2021.642 24365438 24485556 24572994 24634884 24685280 24734630 24782828 
2025.017 24819732 24831838 24813346 24769182 24715970 24670972 24646318 
2028.392 24641514 24646036 24647194 24638674 24625206 24619246 24632818 
2031.767 24668096 24715584 24758272 24779670 24773988 24748906 24720950 
2035.143 24706324 24711410 24728774 24743224 24741610 24719722 24686368 
2038.518 24657012 24645546 24655050 24675214 24687104 24673776 24630188 
2041.893 24565282 24498142 24447172 24421866 24417906 24422110 24419902 
2045.268 24405496 24385134 24373708 24385870 24426842 24489554 24557426 
2048.644 24611706 24640286 24642670 24627276 24605114 24583162 24562932 
2052.019 24541404 24516232 24490782 24473534 24474864 24501298 24550556 
2055.394 24611602 24668656 24710358 24733858 24747012 24762656 24792860 
2058.769 24841344 24901484 24960438 25004870 25028876 25035196 25033124 
2062.145 25032492 25038142 25047480 25053798 25051130 25039442 25025472 
2065.520 25019960 25030596 25057658 25093008 25123726 25139454 25136928 
2068.895 25122252 25106384 25100206 25107436 25122918 25136014 25137348 
2072.270 25122602 25096730 25068996 25049832 25043618 25047374 25053060 
2075.646 25052392 25042424 25025718 25009430 24999464 24996832 24997042 
2079.021 24991602 24973982 24943242 24904676 24867974 24840572 24824854 
2082.396 24815732 24804892 24784792 24753360 24715338 24679740 24654770 
2085.771 24643652 24642600 24643584 24638848 24624574 24602660 24578676 
2089.146 24558058 24542772 24530432 24515320 24493866 24466382 24437920 
2092.522 24415766 24405496 24407634 24417730 24428384 24433642 24433046 
2095.897 24430382 24431504 24439180 24450538 24457584 24451168 24425896 
2099.272 24384222 24335788 24293600 24267952 24261852 24269842 24282000 
2102.647 24288940 24285680 24273346 24257402 24242970 24231162 24218970 
2106.023 24201242 24174828 24141866 24108940 24084214 24073218 24074722 
2109.398 24082218 24086316 24080782 24065266 24046146 24032626 24031472 
2112.773 24043974 24064706 24084844 24096752 24098188 24092584 24086666 
2116.148 24085790 24090342 24095946 24095666 24084108 24061414 24032872 
2119.524 24007238 23991130 23985458 23984898 23980452 23964870 23935110 
2122.899 23895092 23852070 23814442 23786476 23767332 23753682 23741958 
2126.274 23731496 23724882 23725722 23735170 23749412 23760964 23761732 
2129.649 23746894 23719388 23688068 23665362 23660846 23677920 23712600 
2133.025 23757148 23804222 23851370 23900728 23956748 24021666 24092060 
2136.400 24159030 24213190 24248716 24266830 24275448 24284034 24298504 
2139.775 24317322 24332006 24331550 24310384 24270858 24223348 24181518 
2143.150 24155878 24148206 24152410 24157838 24157384 24150134 24142636 
2146.526 24144108 24160150 24187826 24217778 24238344 24241952 24230144 
2149.901 24212488 24201206 24203028 24215990 24228008 24224890 24197002 
2153.276 24144072 24076404 24008746 23953070 23912282 23882210 23855990 
2156.651 23833134 23823752 23846960 23921490 24054550 24234876 24436060 
2160.027 24626012 24781846 24896466 24977704 25040248 25095360 25145002 
2163.402 25182220 25196720 25183132 25144930 25095500 25050954 25021364 
2166.777 25008378 25002902 24994130 24972544 24937100 24893834 24851694 
2170.152 24816786 24787668 24757360 24718812 24668096 24610232 24555816 
2173.528 24516758 24499580 24502208 24514094 24522612 24518826 24500526 
2176.903 24472516 24440898 24409002 24374340 24331060 24274958 24208424 
2180.278 24141550 24089924 24067472 24078540 24115736 24163094 24203590 
2183.653 24225416 24227412 24217394 24206496 24202398 24205200 24208880 
2187.029 24206286 24193710 24174408 24156718 24149748 24157594 24176580 
2190.404 24197460 24210596 24210842 24200646 24187684 24180118 24181240 
2193.779 24187754 24190276 24179136 24148976 24102566 24048386 23996104 
2197.154 23952160 23916590 23884452 23850040 23811186 23771286 23737830 
2200.530 23717602 23713368 23721452 23734400 23746088 23754522 23764218 
2203.905 23783222 23817766 23867892 23926426 23981396 24022156 24044604 
2207.280 24053324 24058962 24072900 24100500 24139800 24181764 24216132 
2210.655 24236626 24244474 24247208 24253934 24270858 24297172 24327450 
2214.031 24353978 24372202 24382716 24391196 24404620 24425686 24452360 
2217.406 24477738 24493794 24495058 24482226 24460598 24437462 24418256 
2220.781 24404024 24392388 24379350 24362774 24343500 24324786 24309052 
2224.156 24296158 24282140 24261748 24230776 24189716 24143968 24102006 
2227.531 24070730 24052552 24044184 24038896 24028880 24011126 23986998 
2230.907 23961998 23941482 23927966 23919284 23910496 23896528 23875454 
2234.282 23849654 23824698 23804816 23791130 23779898 23764882 23740804 
2237.657 23706054 23664976 23625300 23595456 23580170 23578596 23584998 
2241.032 23592238 23594232 23588040 23574258 23554948 23531720 23504228 
2244.408 23472364 23435888 23397736 23363014 23337734 23325604 23326444 
2247.783 23335916 23347246 23354168 23353818 23347632 23340148 23336198 
2251.158 23338750 23348050 23361512 23377036 23393260 23411130 23431762 
2254.533 23455858 23481284 23503634 23518184 23521612 23514300 23499540 
2257.909 23481808 23465092 23449598 23433370 23412494 23384414 23348748 
2261.284 23308122 23266522 23226392 23188224 23150162 23110010 23067554 
2264.659 23025380 22988802 22963126 22950970 22949886 22953624 22954114 
2268.034 22945136 22924456 22895048 22862564 22833160 22809762 22792232 
2271.410 22777846 22763250 22747082 22730500 22716044 22706408 22702184 
2274.785 22702184 22703406 22703616 22702148 22700054 22698692 22699042 
2278.160 22699320 22697228 22688848 22672370 22648282 22619660 22590478 
2281.535 22563430 22539034 22515932 22491330 22463520 22432676 22400752 
2284.911 22370646 22344238 22321458 22300218 22277860 22252540 22224082 
2288.286 22194300 22165392 22138718 22113824 22088966 22061704 22030888 
2291.661 21997146 21963234 21932286 21906812 21887262 21872556 21860256 
2295.036 21848236 21835588 21822450 21809386 21796566 21783500 21769182 
2298.412 21753612 21738040 21725462 21719298 21722120 21734382 21753784 
2301.787 21776428 21798308 21817956 21836388 21856912 21883636 21919810 
2305.162 21965812 22019664 22078018 22137986 22197438 22255922 22313262 
2308.537 22368866 22420952 22466906 22504730 22533904 22556346 22576030 
2311.913 22597496 22623884 22656764 22695550 22738494 22784618 22833404 
2315.288 22885860 22942690 23003684 23066574 23128110 23184834 23234746 
2318.663 23277778 23315848 23351790 23386826 23420852 23450786 23472750 
2322.038 23482822 23478346 23458446 23424104 23376896 23319416 23254602 
2325.414 23186650 23120248 23061334 23015146 22984854 22970602 22969518 
2328.789 22976086 22984332 22990234 22992122 22991318 22990270 22991144 
2332.164 22995022 23001206 23008962 23017660 23027896 23040930 23057350 
2335.539 23076742 23096730 23113994 23125560 23130384 23129684 23125804 
2338.915 23121820 23118606 23115252 23109100 23097394 23078910 23054100 
2342.290 23024368 22990130 22948944 22895536 22823312 22727008 22606710 
2345.665 22469312 22328680 22201134 22102458 22045146 22034932 22072478 
2349.040 22153922 22272558 22419872 22585350 22758676 22928928 23086284 
2352.416 23223910 23338364 23429978 23501570 23557326 23600810 23633486 
2355.791 23656158 23668998 23672428 23668126 23658082 23643632 23625440 
2359.166 23602140 23571982 23533154 23485830 23431098 23371336 23308122 
2362.541 23242436 23173474 23100294 23022586 22942166 22861830 22785492 
2365.917 22715486 22651984 22592854 22534498 22473570 22408112 22338098 
2369.292 22264502 22188406 22109814 22027682 21940232 21846772 21748420 
2372.667 21647896 21548266 21451860 21359306 21268616 21177214 21082214 
2376.042 20982816 20879862 20775716 20673124 20574378 20479996 20390356 
2379.417 20304936 20223978 20148412 20079420 20017654 19963010 19913956 
2382.793 19869072 19827140 19787916 19752684 19722968 19700432 19685176 
2386.168 19676612 19673284 19674048 19678726 19687950 19702268 19721790 
2389.543 19744744 19768428 19789270 19804770 19814238 19818920 19821418 
2392.918 19824400 19829672 19837060 19845488 19853394 19859674 19864148 
2396.294 19867234 19869454 19870634 19869974 19866506 19859984 19851314 
2399.669 19842434 19835672 19832724 19833904 19837928 19842956 19847186 
2403.044 19849892 19851418 19852840 19854886 19857212 19858772 19857662 
2406.419 19853326 19846076 19837892 19830816 19827000 19826932 19829708 
2409.795 19833938 19838308 19843026 19849024 19858042 19870980 19887352 
2413.170 19905632 19923462 19939142 19952048 19962836 19973104 19983686 
2416.545 19994894 20005440 20013700 20018868 20021020 20021402 20021646 
2419.920 20022998 20025358 20027092 20026190 20020882 20011130 19998052 
2423.296 19983444 19969116 19956314 19945248 19935674 19927452 19921312 
2426.671 19918016 19918154 19921486 19925994 19929464 19929810 19926446 
2430.046 19920514 19914374 19910870 19911252 19915206 19920376 19924260 
2433.421 19925266 19923288 19919784 19916802 19915658 19915830 19915206 
2436.797 19910730 19900118 19882426 19858528 19830088 19799604 19768046 
2440.172 19736354 19704836 19674048 19645340 19620694 19601490 19588144 
2443.547 19579480 19573550 19568388 19563188 19558162 19555008 19555008 
2446.922 19558302 19563258 19566792 19566274 19560034 19548596 19534352 
2450.298 19520454 19508774 19499902 19492520 19484550 19474534 19462440 
2453.673 19449378 19437352 19427754 19420790 19415178 19409148 19401560 
2457.048 19392588 19383614 19376788 19373462 19374364 19378554 19384652 
2460.423 19391686 19399378 19408698 19420652 19435586 19453084 19471900 
2463.799 19490336 19507596 19523608 19539204 19555564 19572962 19590640 
2467.174 19607104 19620694 19630816 19637924 19643468 19649362 19656506 
2470.549 19665136 19673872 19681604 19687706 19692388 19696514 19701158 
2473.924 19706498 19711734 19715548 19716624 19714334 19709204 19702582 
2477.300 19695474 19688158 19680148 19670200 19657892 19643920 19630192 
2480.675 19619480 19613864 19613934 19618580 19625512 19632204 19637438 
2484.050 19642152 19648012 19657372 19671376 19690030 19711768 19734652 
2487.425 19757402 19779212 19800540 19821626 19841950 19860088 19874206 
2490.801 19883154 19886346 19885720 19883744 19882634 19883780 19887040 
2494.176 19890786 19893318 19893528 19891688 19889260 19887872 19888566 
2497.551 19891444 19895816 19900326 19904418 19907886 19911112 19914338 
2500.926 19916906 19917910 19915866 19910488 19902370 19893528 19886312 
2504.302 19882046 19881178 19882252 19882704 19880622 19875384 19867652 
2507.677 19859742 19853256 19849060 19846390 19843718 19838758 19830332 
2511.052 19818574 19804596 19789788 19775224 19760868 19746616 19732156 
2514.427 19717976 19704836 19694086 19685904 19679802 19673944 19666524 
2517.802 19656608 19644336 19631682 19620868 19613416 19609532 19607626 
2521.178 19605442 19600658 19593238 19583916 19574766 19567312 19561732 
2524.553 19556672 19549568 19538094 19521148 19499590 19475504 19451248 
2527.928 19428518 19407726 19387806 19367366 19345226 19320874 19294926 
2531.303 19267736 19239508 19210208 19179766 19148324 19117368 19088802 
2534.679 19064464 19045146 19030224 19017554 19004262 18987992 18967882 
2538.054 18944486 18919460 18895062 18872500 18852808 18835888 18822150 
2541.429 18811528 18804884 18801804 18801010 18799936 18795162 18784334 
2544.804 18766376 18742954 18717804 18695630 18680100 18672766 18672730 
2548.180 18677678 18684284 18690302 18694904 18697982 18700336 18702342 
2551.555 18703830 18704730 18705004 18706008 18709814 18718600 18733752 
2554.930 18755202 18781668 18810974 18840938 18870354 18899006 18927248 
2558.305 18954936 18981624 19006026 19026660 19042792 19055116 19064984 
2561.681 19074228 19084336 19095520 19106808 19117576 19127340 19137000 
2565.056 19148392 19163630 19183612 19208198 19235214 19262264 19287306 
2568.431 19309476 19329428 19348170 19367226 19386626 19405962 19424152 
2571.806 19440542 19455580 19470308 19486526 19505274 19526346 19548492 
2575.182 19569668 19588076 19602912 19614592 19623606 19630610 19635530 
2578.557 19637888 19637196 19633380 19627490 19621318 19616464 19614108 
2581.932 19613864 19614314 19613830 19611056 19606446 19600866 19596602 
2585.307 19595146 19597330 19602598 19610296 19619584 19630470 19643746 
2588.683 19660110 19679942 19702650 19726714 19749912 19771098 19789720 
2592.058 19806436 19822526 19839106 19857106 19876426 19896266 19915762 
2595.433 19933904 19949688 19962248 19970260 19972620 19968872 19959506 
2598.808 19946496 19932724 19921414 19914720 19913056 19915066 19917910 
2602.184 19918848 19916386 19910802 19903690 19897100 19892382 19889814 
2605.559 19888080 19885340 19880380 19872644 19863106 19852874 19843476 
2608.934 19835188 19827902 19821036 19814238 19807928 19802310 19798250 
2612.309 19795338 19792390 19787778 19779698 19767526 19751506 19733404 
2615.685 19715340 19699218 19686044 19676094 19668848 19664026 19661254 
2619.060 19660560 19661878 19664166 19666248 19666420 19663056 19655778 
2622.435 19645066 19631994 19618026 19604088 19590120 19575840 19560866 
2625.810 19545408 19530366 19517334 19507352 19500976 19497684 19495778 
2629.186 19493804 19490788 19486594 19481916 19477654 19474256 19471174 
2632.561 19467604 19462822 19456620 19449828 19444318 19441962 19444214 
2635.936 19451664 19463966 19479732 19498202 19518582 19540556 19563950 
2639.311 19588248 19612686 19636086 19657336 19676230 19692874 19708614 
2642.687 19724634 19741796 19760798 19781120 19802482 19824470 19846944 
2646.062 19869628 19892868 19915970 19938136 19958292 19975916 19990904 
2649.437 20004088 20016406 20028688 20041318 20053220 20063526 20071056 
2652.812 20075256 20076262 20075048 20072410 20069148 20065192 20060576 
2656.188 20055094 20049196 20044234 20041560 20042324 20046904 20055094 
2659.563 20065366 20076954 20089274 20102808 20118878 20138626 20163094 
2662.938 20191938 20223630 20256366 20288272 20318234 20345804 20371360 
2666.313 20395462 20418728 20441234 20462560 20482600 20500766 20516918 
2669.688 20530884 20542658 20551692 20558118 20561696 20563260 20563608 
2673.064 20563954 20565276 20568262 20572710 20578268 20584418 20591400 
2676.439 20599704 20610476 20624546 20642650 20664368 20689178 20715938 
2679.814 20743950 20772450 20801542 20831158 20861472 20891928 20922350 
2683.189 20952008 20980766 21008552 21035572 21062318 21088718 21114944 
2686.565 21141070 21167334 21194296 21223068 21254210 21288278 21325130 
2689.940 21364006 21403928 21444448 21485700 21528592 21574764 21625678 
2693.315 21682202 21744484 21812068 21884092 21959888 22039012 22121738 
2696.690 22208388 22299274 22394194 22492760 22594388 22697890 22802462 
2700.066 22906642 23008890 23107458 23200562 23287112 23366406 23438546 
2703.441 23504298 23564498 23619386 23668474 23710430 23743570 23766456 
2706.816 23778460 23780212 23773248 23759598 23741190 23719632 23695978 
2710.191 23671098 23645698 23620612 23596822 23574992 23555682 23538892 
2713.567 23524480 23512518 23503144 23496848 23494364 23496042 23502164 
2716.942 23512552 23526894 23544836 23566526 23591958 23621206 23653814 
2720.317 23689084 23725372 23761312 23796310 23829948 23862712 23895548 
2723.692 23928526 23961298 23992498 24020334 24043308 24060398 24072096 
2727.068 24079450 24084178 24087820 24091078 24094404 24097276 24099344 
2730.443 24100360 24100430 24099938 24099484 24099308 24099906 24101516 
2733.818 24104422 24108870 24114964 24122180 24129676 24136330 24141130 
2737.193 24143478 24143546 24142742 24142706 24145718 24153110 24165966 
2740.569 24184146 24207022 24233648 24263256 24295490 24330288 24368066 
2743.944 24409526 24454920 24504592 24558724 24616616 24677706 24740594 
2747.319 24804296 24867518 24929696 24990760 25051166 25111578 25173020 
2750.694 25236364 25302354 25371830 25445464 25524204 25609006 25700360 
2754.070 25798558 25902684 26011480 26123434 26236930 26351302 26466022 
2757.445 26581404 26697980 26815680 26934330 27053292 27171690 27289236 
2760.820 27405298 27519906 27632816 27743670 27852046 27957408 28059934 
2764.195 28160078 28258796 28357396 28456406 28555830 28654320 28750142 
2767.571 28841170 28925736 29002808 29072702 29135838 29193740 29247290 
2770.946 29297798 29346362 29393762 29441096 29488720 29536630 29584336 
2774.321 29630802 29675608 29718680 29761258 29805368 29854168 29909786 
2777.696 29974040 30046718 30126652 30211824 30300742 30392664 30488052 
2781.072 30588332 30694682 30808134 30928520 31055094 31186478 31321104 
2784.447 31458412 31598006 31740248 31885530 32034106 32185696 32339484 
2787.822 32494142 32648038 32799448 32946482 33087626 33222132 33349804 
2791.197 33471540 33588980 33704196 33819368 33935756 34054428 34175288 
2794.573 34297796 34421264 34545060 34668388 34790492 34910520 35027556 
2797.948 35140636 35249332 35353588 35454208 35552804 35650732 35748724 
2801.323 35847308 35945848 36043224 36137988 36228920 36315264 36396428 
2804.698 36472464 36543028 36608452 36668832 36724320 36774952 36820932 
2808.073 36862448 36899168 36931056 36957932 36980156 36998776 37015048 
2811.449 37030816 37047520 37066212 37087360 37110676 37136120 37163548 
2814.824 37193292 37225996 37261736 37300548 37341496 37382988 37423432 
2818.199 37461032 37495200 37525328 37552024 37575504 37595848 37612720 
2821.574 37625476 37633316 37635844 37633280 37625984 37614528 37600040 
2824.950 37583096 37565100 37547036 37530640 37517488 37509504 37507588 
2828.325 37512540 37524352 37542776 37567592 37598988 37637256 37683220 
2831.700 37737468 37800648 37872980 37954772 38046372 38148668 38262964 
2835.075 38390936 38534188 38694000 38870620 39063948 39273468 39498144 
2838.451 39737716 39992204 40262260 40548524 40852372 41174580 41515836 
2841.826 41876952 42258424 42660256 43082292 43523532 43982192 44454920 
2845.201 44936652 45420648 45897672 46356376 46784388 47167200 47490652 
2848.576 47741184 47907016 47979800 47954896 47832584 47617380 47318252 
2851.952 46947008 46516776 46041580 45534668 45006476 44465896 43918916 
2855.327 43369436 42819440 42270256 41722416 41176616 40633760 40094960 
2858.702 39562164 39037520 38523904 38025360 37546208 37090680 36663028 
2862.077 36266232 35901976 35570424 35270888 35001948 34762352 34550948 
2865.453 34367144 34210276 34079264 33972944 33889180 33826280 33782224 
2868.828 33755364 33744444 33748028 33764572 33791824 33827392 33868120 
2872.203 33911392 33954276 33995160 34032712 34066900 34098044 34127148 
2875.578 34155716 34185004 34216372 34250928 34289224 34331464 34377404 
2878.954 34426828 34479268 34534188 34591056 34649012 34706932 34763860 
2882.329 34818604 34870484 34919136 34964812 35008520 35050972 35093036 
2885.704 35134852 35176708 35217960 35257988 35296408 35332780 35367176 
2889.079 35399672 35430624 35460068 35487968 35514216 35538708 35561144 
2892.455 35581824 35600776 35618468 35635376 35651632 35667384 35681812 
2895.830 35694364 35704044 35710480 35713792 35715088 35716420 35720052 
2899.205 35728184 35742212 35762252 35787796 35817228 35849432 35883804 
2902.580 35920584 35961076 36007152 36060288 36122576 36195568 36281076 
2905.956 36381768 36500932 36642444 36810940 37010896 37246464 37521640 
2909.331 37839180 38201452 38609832 39063512 39559584 40091652 40650680 
2912.706 41223944 41796360 42353200 42879124 43360828 43788096 44153456 
2916.081 44453088 44686372 44855780 44965608 45021984 45031872 45001920 
2919.457 44938088 44845936 44729456 44592076 44436164 44263472 44074272 
2922.832 43867592 43641228 43391516 43114388 42806500 42465648 42091556 
2926.207 41686016 41252288 40794532 40317484 39825992 39325588 38822136 
2929.582 38323032 37836540 37371140 36935348 36536320 36179652 35868652 
2932.958 35605344 35389388 35219360 35092176 35003132 34946428 34915616 
2936.333 34904236 34906424 34918380 34936984 34960576 34987904 35017320 
2939.708 35046840 35074612 35098784 35118688 35134712 35148328 35161512 
2943.083 35176208 35194136 35216376 35243940 35278008 35320056 35371960 
2946.458 35435876 35513820 35607788 35719512 35850152 36000344 36169028 
2949.834 36353736 36548648 36744948 36932104 37097140 37228128 37314916 
2953.209 37350232 37330484 37255240 37126952 36949272 36727028 36466116 
2956.584 36172844 35854688 35519896 35176564 34832464 34494584 34167688 
2959.959 33855044 33558876 33280116 33019158 32776080 32550280 32340732 
2963.335 32145984 31964236 31793364 31631540 31477612 31330794 31190786 
2966.710 31057694 30931650 30812866 30701118 30595942 30496762 30402650 
2970.085 30312644 30226032 30142598 30062766 29987388 29917560 29854556 
2973.460 29799158 29752140 29714104 29685366 29667166 29660850 29667768 
2976.836 29689268 29725918 29777476 29842738 29920294 30008442 30105948 
2980.211 30211966 30326216 30447998 30577026 30711786 30851106 30992994 
2983.586 31135642 31276486 31413316 31543132 31662938 31769764 31861390 
2986.961 31936348 31994552 32036818 32064214 32078092 32079018 32066748 
2990.337 32040528 31999114 31941660 31868060 31779532 31678122 31567290 
2993.712 31451430 31334926 31222792 31119126 31027264 30949370 30886040 
2997.087 30837124 30801802 30779396 30769294 30771250 30785192 30810518 
3000.462 30846124 30890522 30942148 30999400 31061538 31128346 31199758 
3003.838 31275276 31354156 31434688 31515200 31594586 31672988 31751438 
3007.213 31831902 31916518 32005928 32100138 32197330 32295506 32392852 
3010.588 32488216 32581780 32674256 32766576 32858986 32951198 33042610 
3013.963 33132576 33221022 33308662 33396642 33486288 33578204 33672400 
3017.339 33768008 33863960 33959112 34053140 34146360 34239780 34334980 
3020.714 34433712 34537560 34647612 34764112 34886064 35011392 35137048 
3024.089 35259496 35375984 35484952 35586608 35682636 35776140 35869480 
3027.464 35964168 36060180 36156136 36250424 36342280 36431740 36520644 
3030.840 36611296 36706148 36806148 36910964 37018908 37128284 37237584 
3034.215 37346368 37455616 37566692 37681012 37799704 37923308 38051976 
3037.590 38185964 38326040 38472708 38626816 38788516 38957160 39131384 
3040.965 39309520 39489832 39671092 39851848 40031008 40206204 40374564 
3044.341 40532368 40675496 40800648 40905852 40991016 41057912 41109924 
3047.716 41151192 41186016 41218372 41251740 41288764 41331216 41380272 
3051.091 41436328 41498848 41567100 41639700 41715412 41793112 41872212 
3054.466 41952232 42033224 42114776 42196704 42278180 42358392 42436164 
3057.842 42510924 42582184 42650424 42716736 42782400 42848880 42917380 
3061.217 42988232 43060892 43134220 43206568 43276700 43343844 43408064 
3064.592 43470172 43531368 43592104 43652368 43711396 43767608 43819688 
3067.967 43867044 43909820 43949012 43986300 44022860 44059712 44096972 
3071.343 44134640 44172568 44211412 44252356 44297192 44347500 44404748 
3074.718 44469092 44540016 44616088 44695408 44776324 44857176 44937168 
3078.093 45015736 45092812 45168696 45243664 45318316 45393024 45467664 
3081.468 45541620 45613564 45681512 45743352 45796996 45840740 45874028 
3084.844 45896896 45910672 45916820 45917740 45915460 45912436 45910448 
3088.219 45911372 45916268 45926252 45941680 45962896 45990192 46023748 
3091.594 46063868 46110916 46164824 46225560 46292344 46364416 46440808 
3094.969 46521164 46605484 46694096 46787448 46885732 46988024 47092856 
3098.344 47197268 47298232 47392712 47478308 47554120 47620336 47678724 
3101.720 47731568 47781572 47831284 47882856 47938092 47998408 48064988 
3105.095 48139128 48221208 48311820 48410744 48517360 48630824 48750764 
3108.470 48877900 49014304 49164036 49332900 49528340 49758688 50032204 
3111.845 50357652 50742068 51192948 51716476 52317628 53000312 53766264 
3115.221 54614500 55539732 56531508 57573864 58641784 59703136 60718044 
3118.596 61636908 62409044 62982708 63310304 63358144 63107140 62557764 
3121.971 61728796 60656892 59391624 57985776 56495168 54970960 53453960 
3125.346 51979356 50573324 49253616 48033384 46919248 45912256 45008900 
3128.722 44202024 43482256 42839152 42263280 41746784 41283080 40866932 
3132.097 40493376 40157536 39854500 39579620 39328528 39097808 38884896 
3135.472 38687412 38503336 38330416 38166356 38008940 37855920 37705736 
3138.847 37557332 37410216 37264408 37120384 36978932 36840556 36705824 
3142.223 36574888 36447128 36321420 36196616 36070980 35943940 35814816 
3145.598 35684004 35552404 35421064 35291016 35163092 35037612 34914972 
3148.973 34795232 34678296 34563684 34450428 34337060 34221676 34102524 
3152.348 33978316 33848848 33714724 33577308 33438366 33299468 33161792 
3155.724 33025592 32890900 32757536 32624964 32492998 32361150 32229092 
3159.099 32096534 31963058 31828836 31694088 31559416 31425212 31291940 
3162.474 31159814 31028368 30897068 30766092 30635440 30505610 30377240 
3165.849 30251112 30127434 30006454 29887778 29771478 29657480 29545710 
3169.225 29436096 29328354 29221632 29114898 29007164 28897862 28787316 
3172.600 28676372 28566376 28458672 28354142 28252890 28154564 28058308 
3175.975 27962920 27867872 27772562 27677132 27581618 27486478 27391780 
3179.350 27298164 27205836 27114868 27025048 26936058 26847298 26758130 
3182.726 26668208 26577776 26487186 26397180 26308178 26220600 26134378 
3186.101 26048982 25964132 25879472 25794934 25710732 25626580 25541914 
3189.476 25456250 25368600 25278542 25186398 25092552 24998306 24904640 
3192.851 24812190 24720914 24630398 24540318 24449908 24359620 24269632 
3196.227 24180432 24092374 24005384 23919214 23833588 23748398 23663820 
3199.602 23579888 23496568 23413578 23330464 23246632 23162186 23078002 
3202.977 22995336 22915584 22839726 22767404 22697436 22628038 22557462 
3206.352 22484770 22410522 22335970 22263246 22193428 22127142 22063762 
3209.728 22002202 21941172 21880188 21819456 21759846 21702126 21647024 
3213.103 21594334 21543774 21494648 21446222 21398220 21350466 21302510 
3216.478 21254036 21204106 21152132 21097728 21040930 20982296 20922350 
3219.853 20861924 20801264 20740474 20680144 20620550 20562496 20506950 
3223.229 20454570 20405044 20357644 20311012 20263934 20215334 20165142 
3226.604 20114226 20063874 20015052 19968736 19925266 19884750 19847222 
3229.979 19812954 19782194 19754904 19730180 19706464 19681362 19652414 
3233.354 19617748 19576566 19529464 19478208 19425468 19373392 19324268 
3236.729 19279410 19239544 19204772 19175092 19149916 19128588 19109924 
3240.105 19092750 19075542 19057230 19036942 19014058 18988650 18960440 
3243.480 18930086 18898246 18865612 18833152 18801562 18771082 18741466 
3246.855 18712026 18681864 18650284 18617080 18582842 18548504 18514928 
3250.230 18482358 18450412 18417984 18384072 18347848 18309898 18271054 
3253.606 18232836 18196520 18162280 18129668 18097780 18065518 18032464 
3256.981 17999240 17966706 17935282 17905310 17875582 17844578 17811370 
3260.356 17775364 17737810 17700328 17665298 17634104 17607086 17582932 
3263.731 17560334 17537252 17513346 17489026 17465880 17445942 17430766 
3267.107 17421178 17416660 17415936 17417004 17417834 17416384 17410624 
3270.482 17399002 17380792 17355582 17323926 17287240 17247176 17205702 
3273.857 17164094 17123388 17083926 17045778 17009112 16974416 16942096 
3277.232 16912368 16885254 16859730 16834516 16808202 16779790 16749209 
3280.608 16716702 16683955 16652279 16622810 16596507 16573306 16552893 
3283.983 16534789 16517958 16501471 16484126 16465334 16444858 16423592 
3287.358 16403187 16386155 16375041 16371256 16374663 16383573 16394448 
3290.733 16403118 16406043 16401019 16387669 16367197 16341977 16314488 
3294.109 16286796 16259860 16233616 16207613 16180752 16152173 16121259 
3297.484 16088111 16053006 16017353 15983010 15952175 15927359 15910896 
3300.859 15904330 15908524 15922444 15943961 15970256 15997209 16020929 
3304.234 16037671 16044239 16038738 16020276 15989371 15947260 15895842 
3307.610 15837487 15774019 15707195 15638972 15570692 15504345 15442266 
3310.985 15386238 15338351 15299188 15269021 15246507 15229726 15216480 
3314.360 15204504 15192426 15179696 15166382 15153447 15142124 15133581 
3317.735 15129293 15129738 15135469 15145933 15160240 15176881 15194861 
3321.111 15213083 15231201 15249046 15266995 15284739 15302071 15317963 
3324.486 15331624 15342333 15350434 15356819 15362448 15369005 15377175 
3327.861 15386822 15397395 15408174 15418783 15429494 15441167 15454729 
3331.236 15470352 15487760 15505306 15521172 15533878 15542291 15546995 
3334.612 15548576 15548369 15547099 15544695 15540059 15531267 15516708 
3337.987 15494868 15465236 15428052 15384143 15334988 15281787 15225779 
3341.362 15168063 15109326 15050116 14990742 14931137 14871472 14811985 
3344.737 14752815 14694957 14638888 14585361 14534582 14486550 14440715 
3348.113 14396016 14351389 14305603 14257357 14205452 14149035 14087424 
3351.488 14020858 13950436 13877598 13804907 13734657 13668659 13608141 
3354.863 13552861 13502716 13457053 13415086 13376813 13342234 13310836 
3358.238 13281694 13253203 13223278 13190283 13153328 13112859 13069934 
3361.614 13026912 12985294 12946786 12911831 12880600 12853330 12830293 
3364.989 12812138 12798965 12790537 12785451 12781084 12774020 12761088 
3368.364 12739523 12708134 12666853 12616741 12559609 12497609 12432889 
3371.739 12367600 12303752 12243526 12189033 12141634 12102247 12070529 
3375.115 12045455 12025289 12008325 11992827 11977499 11961866 11945552 
3378.490 11928557 11910882 11892288 11872640 11851357 11828169 11803008 
3381.865 11776180 11748434 11721065 11695399 11672799 11653773 11638151 
3385.240 11625149 11613749 11603267 11593568 11585877 11581453 11581828 
3388.615 11587375 11596971 11607555 11615926 11618275 11612013 11596325 
3391.991 11572197 11542049 11508840 11475158 11442499 11411577 11382290 
3395.366 11354365 11327939 11303453 11281927 11264516 11252003 11244250 
3398.741 11240884 11239897 11239319 11236497 11228949 11215008 11194030 
3402.116 11166594 11134128 11099251 11064410 11031681 11002589 10977203 
3405.492 10955285 10935883 10917739 10900580 10883763 10867047 10850910 
3408.867 10835350 10820574 10806782 10794214 10782801 10772475 10762659 
3412.242 10752911 10742450 10730936 10718642 10705906 10693613 10682406 
3415.617 10672185 10662370 10652013 10639755 10624917 10607295 10587296 
3418.993 10565976 10544214 10522929 10502494 10483179 10465665 10450459 
3422.368 10438783 10431011 10427380 10426972 10428330 10429688 10429382 
3425.743 10426871 10421983 10415365 10407628 10398906 10388351 10374947 
3429.118 10357335 10335312 10309694 10282178 10255172 10231188 10211580 
3432.494 10197028 10186953 10179898 10174267 10168704 10161887 10153034 
3435.869 10142112 10128851 10113453 10095987 10076623 10055192 10031591 
3439.244 10005347 9976087 9943914 9909776 9875269 9842322 9812904 9787994 
3443.102 9767288 9749498 9732115 9712699 9689727 9662859 9632979 9602592 
3446.959 9573969 9549683 9530919 9517710 9509006 9503147 9498202 9492208 
3450.816 9483437 9471245 9455160 9435452 9413002 9389199 9365059 9342004 
3454.674 9321184 9302869 9287670 9275450 9265567 9257578 9250437 9242889 
3458.531 9233750 9221802 9206709 9188467 9167789 9145794 9123257 9101060 
3462.389 9079609 9059140 9039822 9022027 9006635 8993915 8984106 8976799 
3466.246 8970913 8964757 8957045 8946898 8934215 8919367 8902795 8884870 
3470.104 8865864 8845236 8823087 8799789 8775919 8752658 8731055 8711278 
3473.961 8692922 8675176 8657092 8638536 8620420 8603588 8589360 8578106 
3477.818 8568609 8558945 8546509 8529308 8506872 8480416 8452812 8427069 
3481.676 8406157 8391327 8382037 8376768 8372816 8367377 8358865 8345624 
3485.533 8327419 8304519 8278413 8250992 8225227 8203650 8188692 8181364 
3489.391 8181027 8185281 8191291 8195445 8194938 8188489 8175929 8158000 
3493.248 8136258 8112154 8086936 8061754 8037756 8015715 7996883 7981695 
3497.105 7970019 7961211 7953989 7946902 7938398 7927161 7912415 7893452 
3500.963 7869496 7840851 7808397 7774764 7743091 7718064 7703359 7700998 
3504.820 7710441 7728486 7749803 7768457 7780128 7782489 7775911 7763127 
3508.678 7748083 7734523 7725012 7720054 7719008 7719986 7721065 7720087 
3512.535 7716141 7708215 7695804 7679211 7659010 7636753 7614463 7594838 
3516.393 7580374 7573023 7573596 7581924 7596525 7615037 7634864 7653378 
3520.250 7668250 7677862 7681369 7679379 7672769 7663529 7653850 7645420 
3524.107 7639215 7635573 7633718 7633212 7633616 7635674 7640462 7649567 
3527.965 7664203 7684539 7709632 7737424 7765488 7791901 7815110 7834577 
3531.822 7850636 7863389 7873511 7881203 7886737 7890719 7893891 7897804 
3535.680 7903710 7912887 7925710 7941908 7960873 7981358 8002721 8024491 
3539.537 8046801 8069552 8092304 8114449 8133996 8148952 8156616 8154860 
3543.395 8142234 8118028 8083797 8041705 7996241 7952537 7915823 7890482 
3547.252 7878775 7879922 7890382 7904587 7915789 7918556 7909344 7887817 
3551.109 7856506 7820205 7784311 7753210 7729295 7712363 7700559 7691183 
3554.967 7682077 7671555 7659516 7645521 7629671 7611327 7589545 7563616 
3558.824 7533442 7500268 7466356 7434874 7408246 7387586 7372589 7360457 
3562.682 7346606 7325005 7290163 7236962 7162680 7068036 6957553 6840939 
3566.539 6730346 6639732 6580757 6558589 6572515 6614869 6674488 6739466 
3570.396 6799909 6848849 6882780 6901363 6906312 6900185 6885743 6865074 
3574.254 6839963 6811958 6781869 6750941 6720621 6691581 6664831 6640842 
3578.111 6619950 6602489 6588932 6579310 6573289 6570194 6568882 6567940 
3581.969 6566023 6561616 6553005 6538575 6515332 6479983 6429976 6363430 
3585.826 6282137 6191785 6103467 6030555 5985604 5977172 6006063 6065296 
3589.684 6142885 6225396 6299685 6356504 6391305 6402771 6393524 6368138 
3593.541 6332834 6293399 6254942 6221430 6194910 6176156 6164293 6157907 
3597.398 6154345 6151051 6145674 6136836 6124436 6109549 6094831 6083507 
3601.256 6078366 6081626 6093453 6112204 6134652 6155757 6170174 6172426 
3605.113 6157672 6123125 6068118 5995111 5909352 5819547 5734931 5663860 
3608.971 5611899 5579073 5560916 5549439 5536551 5515947 5485645 5448267 
3612.828 5410387 5381167 5366608 5369392 5385964 5407569 5423036 5420620 
3616.686 5392036 5333835 5249649 5149183 5048406 4964912 4912699 4900702 
3620.543 4928919 4990217 5072676 5163870 5252398 5329575 5390661 5433772 
3624.400 5458399 5464271 5449105 5407871 5334170 5221545 5069022 4884852 
3628.258 4691415 4521668 4406978 4366110 4396033 4476538 4578723 4677415 
3632.115 4754657 4802462 4822430 4823602 4818108 4816198 4823234 4837976 
3635.973 4855399 4868266 4871717 4864546 4849502 4831275 4814188 4800887 
3639.830 4791172 4783533 4775996 4768157 4761222 4757102 4756666 4758643 
3643.688 4758040 4748124 4720723 4669276 4590376 4484707 4357408 4215694 
3647.545 4068975 3926252 3795440 3685587 3606698 3569346 3583044 3651102 
3651.402 3768568 3920668 4087037 4245104 4373607 4457323 4488925 4471751 
3655.260 4418793 4352891 4299914 4279703 4301186 4360320 4444000 4535429 
3659.117 4620012 4688033 4735529 4763768 4777101 4781490 4782595 4784270 
3662.975 4788860 4797202 4809062 4823368 4838579 4852149 4859722 4856002 
3666.832 4834726 4790602 4721728 4632638 4538409 4462946 4437639 4491101 
3670.689 4637025 4870075 5165814 5492222 5814074 6100409 6328161 6478739 
3674.547 6542409 6520613 6426814 6282507 6108172 5916842 5713444 5498631 
3678.404 5275875 5053367 4845515 4669109 4536467 4452268 4411463 4402492 
3682.262 4411831 4428200 4446443 4465022 4484171 4502183 4513331 4507707 
3686.119 4473793 4401890 4288336 4139218 3971291 3808209 3673223 3583211 
3689.977 3544793 3555382 3607099 3690566 3795741 3912343 4030481 4140555 
3693.834 4234263 4306473 4356070 4385991 4402359 4413003 4424484 4439614 
3697.691 4457356 4472554 4478346 4468671 4440284 4394727 4339169 4284588 
3701.549 4243397 4226568 4239449 4281142 4344691 4419597 4494081 4556958 
3705.406 4600188 4618673 4610770 4577317 4521333 4446778 4357978 4259224 
3709.264 4155375 4051049 3952432 3867544 3804498 3771475 3774283 3813824 
3713.121 3886165 3982861 4093224 4205155 4308548 4395899 4462712 4508678 
3716.979 4537002 4552806 4561981 4568845 4575039 4579158 4578321 4569983 
3720.836 4553710 4532248 4510352 4493579 4484975 4484907 4489561 4493511 
3724.693 4492172 4484104 4472320 4463650 4466328 4486414 4525251 4577350 
3728.551 4631666 4675272 4695100 4681032 4629356 4542996 4432183 4310823 
3732.408 4193278 4088909 3999246 3920066 3845514 3772979 3706940 3658086 
3736.266 3638706 3657718 3714727 3801390 3903951 4009680 4109012 4196390 
3740.123 4270132 4328359 4365943 4373742 4337562 4243732 4085866 3875500 
3743.980 3649131 3458181 3351952 3348946 3432497 3561596 3692170 3788388 
3747.838 3826226 3798148 3711385 3587521 3453872 3336792 3254728 3215705 
3751.695 3220879 3268683 3356059 3477385 3622802 3778528 3928057 4055631 
3755.553 4149955 4204586 4220512 4204051 4166280 4118545 4071015 4031785 
3759.410 4007573 4004128 4026000 4074059 4144202 4225865 4305703 4368955 
3763.268 4404166 4407714 4383648 4344089 4303762 4275185 4262537 4261600 
3767.125 4261065 4249086 4218906 4170730 4113561 4060881 4027438 4022421 
3770.982 4047135 4096001 4159657 4228743 4295631 4356605 4410191 4456787 
3774.840 4496893 4530340 4555184 4568376 4566166 4545407 4505765 4450929 
3778.697 4389807 4334182 4296869 4286562 4304633 4344289 4393556 4438978 
3782.555 4469575 4480221 4472822 4455113 4436869 4426961 4429873 4444535 
3786.412 4466562 4490030 4510251 4525418 4535931 4543431 4549860 4556690 
3790.270 4564392 4574303 4587362 4604106 4623830 4643354 4656885 4657554 
3794.127 4639269 4600389 4545038 4482999 4427631 4391380 4379030 4386125 
3797.984 4398510 4397706 4364872 4287064 4160961 3998611 3827195 3681844 
3801.842 3596073 3587086 3649565 3760045 3886566 3999581 4074929 4100783 
3805.699 4078675 4025163 3966743 3932471 3942769 4001186 4096101 4206928 
3809.557 4315007 4407179 4479049 4533219 4575374 4609698 4634848 4643689 
3813.414 4624801 4567673 4468504 4335688 4189598 4060480 3974869 3944374 
3817.271 3961493 4003727 4042822 4052085 4015365 3929027 3806571 3675395 
3821.129 3571986 3528324 3558189 3654210 3792198 3943972 4082521 4189297 
3824.986 4256949 4288168 4295196 4293957 4300952 4325414 4367583 4419229 
3828.844 4467834 4501245 4511055 4495186 4458461 4409689 4358881 4314036 
3832.701 4278766 4252398 4230482 4206627 4174577 4128011 4063055 3978547 
3836.559 3878309 3772144 3673690 3599581 3562164 3566641 3608535 3676397 
3840.416 3755767 3832343 3897164 3946781 3983529 4013793 4045296 4085097 
3844.273 4136742 4200170 4271939 4346565 4417957 4480455 4530507 4566401 
3848.131 4588668 4598145 4595868 4580029 4544938 4480790 4374980 4216531 
3851.988 4003058 3748815 3488875 3275126 3153088 3143510 3234866 3395362 
3855.846 3588088 3782338 3959822 4110450 4231051 4322202 4385958 4424651 
3859.703 4440719 4437204 4418091 4387631 4350180 4308648 4264444 4218538 
3863.561 4173172 4133631 4109012 4107941 4134802 4185516 4247346 4301018 
3867.418 4325716 4307009 4241290 4140589 4030046 3942401 3904285 3923042 
3871.275 3986238 4068641 4144971 4196658 4218739 4218872 4214423 4224226 
3875.133 4261198 4327222 4413003 4502651 4577283 4621519 4626208 4589874 
3878.990 4520262 4433622 4351719 4294894 4277393 4301889 4358881 4429170 
3882.848 4489528 4519927 4506535 4447347 4353828 4250458 4167184 4127409 
3886.705 4141124 4200271 4284822 4368955 4430944 4455649 4438844 4386661 
3890.563 4315140 4246375 4200036 4189564 4217735 4278163 4358279 4444468 
3894.420 4525418 4592653 4641646 4670784 4680128 4670616 4643254 4599417 
3898.277 4541355 4472354 4397840 4323440 4255075 4196223 4148082 4109079 
3902.135 4076902 4049510 4027772 4014629 4015231 4033892 4073156 4131858 
3905.992 4205456 4287499 4371600 4451799 4524112 4586257 4636556 4674903 
3909.850 4701296 4717273 4725246 4728595 4731074 4736266 4745109 4756298 
3913.707 4766046 4768827 4759581 4735395 4696674 4647708 4595231 4547081 
3917.564 4509749 4486715 4478446 4482966 4497094 4517114 4539279 4560809 
3921.422 4578287 4589505 4593021 4589137 4579861 4569046 4561713 4561914 
3925.279 4572662 4593624 4622390 4654909 4686324 4712885 4731844 4742061 
3929.137 4742865 4735294 4720288 4699856 4676645 4654674 4637996 4630662 
3932.994 4635685 4653301 4681501 4716302 4752379 4784371 4808526 4822899 
3936.852 4827958 4825479 4818476 4809330 4799447 4788257 4774354 4755695 
3940.709 4731107 4701430 4669276 4639302 4616998 4606483 4609932 4625940 
3944.566 4650655 4678185 4702569 4718881 4724241 4718178 4702636 4681367 
3948.424 4658459 4637962 4622792 4614453 4612812 4616664 4624433 4634011 
3952.281 4644292 4654172 4663851 4674434 4686492 4701330 4718982 4739180 
3956.139 4760485 4781356 4800184 4815629 4827054 4834458 4838177 4838780 
3959.996 4836803 4832850 4827422 4821190 4814992 4809598 4805578 4803199 
3963.854 4802696 4803735 4806114 4809832 4814757 4820855 4827724 4834525 
3967.711 4840187 4843370 4843638 4841192 4837105 4833620 4832146 4834626 
3971.568 4840925 4850473 4861330 4871851 4880865 4888371 4895407 4903584 
3975.426 4914140 4927377 4942022 4955897 4966353 4971213 4969403 4961494 
3979.283 4949428 4935889 4923456 4914174 4909147 4907974 4909650 4913302 
3983.141 4917759 4922551 4927511 4932840 4938604 4945172 4952210 4959449 
3986.998 4966320 4972453 4977648 4981837 4984854 4987133 4989044 4991055 
3990.855 4993434 4996216 4999467 5002517 5005099 5006473 5006875 5006439 
3994.713 5005769 5006003 5007847 5011836 5017802 5025578 5033858 5041702 
3998.570 5047970 5051960 5053065 5051255 5046931 
##END=
