
##TITLE=Z244_2_a
##JCAMP-DX=5.01  $$ Nicolet v. 1
##DATATYPE=INFRARED SPECTRUM
##ORIGIN=UniL
##OWNER=Nicolet
##LONGDATE=2011/09/20
##TIME=13:36:28
##SPECTROMETER/DATA SYSTEM=Nicolet iS5
##DATA PROCESSING=
Ratio against background
%Transmittance->Absorbance
Truncated
ElementMultiply or ElementDivide
##COMMENTS=
Number of sample scans: 32
Collection length: 51.16 sec
Sample gain: 2.0
Background collected on: Mar Sep 20 13:32:44 2011 (GMT+02:00);
Number of background scans: 32
Background gain: 2.0
Sample spacing:  1.000
Number of scan points: 12415
Resolution points: 8192
Number of FFT points: 65536
Apodization: N-B fort;
Phase correction: Mertz;
Laser frequency: 15798.0 cm-1
Number of rejected sample scans: 0
Number of rejected background scans: 0
Bench serial number: ASB1000141;
##RESOLUTION=4.000
##XUNITS=1/CM
##YUNITS=ABSORBANCE
##FIRSTX=649.893372
##LASTX=4000.122314
##FIRSTY=0.066073
##MAXX=4000.122314
##MINX=649.893372
##MAXY=0.298510
##MINY=0.004687
##XFACTOR=1.000000
##YFACTOR=1.000000E-009
##NPOINTS=6950
##DELTAX=0.482117
##ZPD=6100
##XYDATA=(X++(Y..Y))
649.893 66073024 66813244 67550168 68282984 69019488 69771640 70554960 
653.268 71385848 72284896 73273808 74372008 75593368 76942392 78416432 
656.643 80013192 81739728 83616504 85678280 87966864 90516792 93352936 
660.018 96484904 99908112 103600312 107510056 111543072 115536728 119276712 
663.393 122539488 125113816 126857984 127688544 127542872 126350016 
666.285 124028016 120554944 116086904 111067672 106159264 101941000 98688432 
669.660 96342552 94669928 93408192 92353880 91391176 90474344 89612720 
673.035 88839136 88190200 87686072 87327984 87104928 87002824 87013752 
676.410 87135992 87372960 87728368 88203312 88794992 89500320 90319592 
679.785 91259760 92336792 93573384 94992648 96615344 98456520 100524240 
683.159 102828304 105387216 108233672 111421864 115020832 119100968 
686.052 123733320 128977464 134884256 141504304 148883408 157045664 
688.945 165943136 175397792 185021648 194136448 201859600 207152240 
691.838 209010976 206781632 200277936 189896096 176500224 161304464 
694.730 145634192 130638536 117280288 106175848 97579840 91485120 87667008 
698.105 85799296 85521752 86541192 88673832 91835272 96006600 101146624 
701.480 107077032 113426832 119584160 124728056 128050984 128885208 
704.373 126914960 122274992 115518616 107485608 99038240 90971472 83836928 
707.747 77891832 73171128 69539736 66796632 64728828 63166492 61989900 
711.122 61108424 60453024 59964808 59591608 59300308 59079196 58936176 
714.497 58888324 58948016 59112452 59362068 59666488 59995472 60330680 
717.872 60666068 61006068 61357820 61724672 62103536 62489308 62879176 
721.247 63278712 63700796 64163268 64680488 65259472 65898456 66589012 
724.621 67320096 68079736 68855688 69631944 70385280 71089104 71716600 
727.996 72252488 72701520 73095144 73486888 73936208 74497936 75204168 
731.371 76057664 77038216 78114096 79259808 80464104 81735728 83094216 
734.746 84560368 86144528 87842568 89642088 91533712 93522712 95636016 
738.121 97915504 100410152 103161128 106191256 109506464 113103512 116983184 
741.496 121161584 125675336 130578560 135946256 141877568 148500688 
744.388 155996384 164579184 174451712 185720512 198260016 211585424 
747.281 224687376 236145808 244287904 247547088 245085024 237081664 
750.174 224823840 210238336 195524336 182650304 172918160 167029552 
753.066 165007056 166350000 170158560 175349920 180908640 185915024 
755.959 189724352 191976096 192515984 191341952 188514832 184107184 
758.852 178189952 170856176 162269360 152686464 142480608 132135552 
761.744 122151976 113033224 105215192 98979016 94460504 91615904 90251672 
765.119 90047584 90619240 91601344 92649648 93500192 93980800 93990384 
768.494 93504136 92559752 91252600 89716384 88106624 86586448 85285752 
771.869 84289576 83630120 83291736 83230928 83399328 83763752 84308440 
775.244 85030176 85926240 86984488 88181024 89488480 90883728 92356624 
778.619 93910504 95553392 97288528 99105712 100980408 102881672 104781504 
781.993 106661128 108512432 110331672 112109704 113826792 115450616 
784.886 116941632 118265560 119397080 120322992 121037880 121535672 
787.779 121803368 121820472 121561576 121005784 120144688 118984904 
790.671 117545408 115850712 113925632 111789848 109460336 106957184 
793.564 104306616 101541160 98697752 95806400 92886720 89948152 86994808 
796.939 84036432 81098992 78222264 75459976 72867016 70484016 68335376 
800.314 66426860 64751560 63297264 62051012 60999280 60123196 59396828 
803.689 58788612 58262596 57789252 57349132 56934388 56545172 56185040 
807.063 55855804 55556412 55288652 55061524 54895568 54823124 54883948 
810.438 55113244 55537960 56168712 56997060 57993160 59102164 60246776 
813.813 61316872 62182252 62712736 62787732 62334108 61341792 59870860 
817.188 58038148 55992836 53893860 51868300 50004432 48350408 46918992 
820.563 45704624 44692436 43865064 43201340 42674512 42255832 41915452 
823.938 41630768 41390764 41194796 41047968 40953292 40905924 40893000 
827.312 40898424 40909164 40922308 40944988 40990980 41071896 41191740 
830.687 41344592 41518860 41702684 41890124 42082976 42288188 42512128 
834.062 42756512 43017208 43287208 43562764 43846444 44147952 44479808 
837.437 44852364 45269040 45725980 46215828 46733536 47280456 47865024 
840.812 48498872 49192088 49949304 50769212 51648220 52584536 53582212 
844.186 54649972 55798116 57030836 58342928 59716520 61125012 62532164 
847.561 63895940 65170416 66300004 67223656 67882152 68221728 68212576 
850.936 67858792 67205120 66331424 65339184 64339980 63426124 62663936 
854.311 62090080 61711076 61513016 61468732 61547068 61713788 61935480 
857.686 62185808 62444276 62701672 62960372 63231648 63531040 63872756 
861.060 64267328 64720132 65233864 65811500 66456012 67167144 67933408 
864.435 68726336 69495368 70166784 70659664 70893624 70804336 70360568 
867.810 69566800 68466048 67127616 65645324 64123668 62660872 61352132 
871.185 60275824 59485316 59013640 58870640 59049320 59535172 60315376 
874.560 61385260 62752516 64435676 66459908 68851536 71626488 74778400 
877.935 78259520 81973208 85753160 89358816 92516664 94925968 96320048 
881.309 96533360 95524120 93406096 90418408 86909472 83261952 79818352 
884.684 76875904 74633344 73195608 72598424 72819680 73800744 75452016 
888.059 77663512 80295248 83161184 86044664 88686264 90798080 92121560 
891.434 92440776 91633624 89699968 86764040 83058872 78867400 74505056 
894.809 70253480 66316948 62831008 59847964 57359716 55321428 53674136 
898.183 52359640 51322364 50514252 49890760 49408704 49032112 48732860 
901.558 48492280 48301784 48156824 48052440 47980908 47931064 47892104 
904.933 47858404 47830992 47816932 47824592 47859328 47919520 47997224 
908.308 48081756 48164972 48245016 48325964 48415376 48519732 48641832 
911.683 48779832 48930148 49090500 49261820 49448728 49655964 49885000 
915.058 50132864 50392628 50657052 50922720 51192200 51472524 51772544 
918.432 52097952 52448164 52816884 53195504 53577564 53961536 54351636 
921.807 54755424 55181636 55636512 56125272 56654108 57231592 57869428 
925.182 58578608 59362488 60209324 61086684 61946332 62725752 63362472 
928.557 63810348 64044708 64071940 63924888 63660124 63345372 63046908 
931.932 62828020 62738084 62810516 63065224 63506656 64126932 64906472 
935.306 65816708 66819816 67867120 68906512 69882152 70742648 71454864 
938.681 72008064 72422552 72744808 73045312 73402992 73886800 74551160 
942.056 75424104 76507648 77781800 79210496 80747208 82331952 83896248 
945.431 85363592 86646384 87662144 88339376 88626848 88506584 87994384 
948.806 87139232 86009968 84691064 83271984 81832016 80445880 79175632 
952.181 78065424 77145528 76427792 75908320 75571480 75395848 75360888 
955.555 75448352 75645224 75942336 76330608 76801040 77344672 77953680 
958.930 78624264 79356968 80156352 81027592 81974928 83000144 84103984 
962.305 85288976 86563912 87944232 89453912 91120776 92970080 95021672 
965.680 97284384 99756048 102424456 105272824 108286824 111458776 114794024 
969.055 118310072 122033296 125985488 130169424 134547312 139032592 
971.947 143474704 147661616 151359888 154325808 156355664 157336544 
974.840 157263872 156261872 154552816 152449504 150292336 148388608 
977.733 147005088 146312080 146369584 147122128 148401616 149948528 
980.625 151418768 152457872 152736512 151991072 150088080 147029808 
983.518 142957056 138103600 132768256 127265360 121861176 116780232 
986.411 112180224 108146112 104710992 101860344 99549648 97714472 96285144 
989.786 95197632 94392592 93821296 93444840 93227784 93141184 93160432 
993.160 93264904 93440896 93679432 93975488 94325440 94724456 95165576 
996.535 95640392 96140496 96659800 97195512 97748032 98318464 98907864 
999.910 99514360 100134544 100764608 101401448 102044960 102696904 103360840 
1003.285 104040320 104737560 105454376 106192776 106956168 107750080 
1006.178 108580624 109453560 110371736 111334640 112338256 113377360 
1009.070 114447552 115546200 116673408 117830032 119017368 120235144 
1011.963 121482336 122758480 124065104 125407768 126795872 128241704 
1014.856 129757744 131356448 133047056 134836832 136731424 138735504 
1017.748 140853024 143087264 145439568 147908928 150490080 153173856 
1020.641 155942656 158767680 161607776 164400864 167064208 169504208 
1023.534 171614160 173296608 174482560 175141632 175297632 175023712 
1026.427 174440512 173686352 172897680 172196368 171661712 171326816 
1029.320 171172144 171129296 171081056 170867424 170315328 169238224 
1032.213 167464096 164869728 161384832 157015264 151840736 146014656 
1035.106 139745040 133260160 126809272 120618064 114864120 109679992 
1037.999 105129760 101219240 97909576 95135384 92821768 90894056 89290928 
1041.374 87960864 86859528 85951808 85205720 84594760 84099960 83707576 
1044.750 83408320 83195608 83061848 82998384 82996816 83050688 83157416 
1048.125 83318032 83535608 83810320 84136360 84498664 84874240 85234304 
1051.500 85546368 85781256 85915096 85931816 85826832 85607904 85297048 
1054.875 84926656 84540000 84184224 83900064 83720592 83664504 83736864 
1058.250 83932624 84240896 84648624 85138880 85689264 86268944 86832336 
1061.626 87324456 87686632 87860624 87805208 87499352 86947160 86175280 
1065.001 85228336 84163784 83039096 81911904 80834256 79845344 78973688 
1068.376 78234168 77628928 77151536 76791792 76540568 76391800 76343408 
1071.751 76394688 76543496 76784000 77107256 77502640 77960544 78474496 
1075.127 79040064 79654280 80312752 81009176 81737008 82492064 83275840 
1078.502 84097432 84973600 85926088 86976304 88145064 89450728 90909704 
1081.877 92541056 94367520 96414368 98710272 101282368 104152496 107334848 
1085.252 110832224 114632296 118700960 122982496 127394856 131828424 
1088.146 136165856 140285408 144078176 147468656 150412400 152895360 
1091.039 154919472 156484048 157570576 158141456 158147280 157555232 
1093.932 156376832 154695152 152670592 150519776 148509168 146894224 
1096.825 145885520 145633488 146191008 147513328 149447568 151760176 
1099.718 154139456 156215728 157633680 158060768 157242032 155050096 
1102.611 151485872 146683968 140870176 134344016 127425152 120403128 
1105.504 113545336 107060456 101089456 95724192 90998440 86903480 83400368 
1108.879 80433400 77939968 75854296 74115616 72665792 71448024 70412664 
1112.254 69514536 68715160 67987536 67311888 66676392 66075148 65505168 
1115.630 64966648 64461232 63993908 63571392 63200524 62887028 62633312 
1119.005 62438040 62296972 62205500 62160304 62160152 62205464 62296360 
1122.380 62431156 62606448 62817528 63060932 63336060 63645624 63995220 
1125.755 64390056 64833948 65328672 65874084 66471228 67122824 67834392 
1129.131 68612392 69461528 70381928 71367136 72405208 73480248 74572840 
1132.506 75663248 76730624 77752432 78706472 79572456 80334872 80989816 
1135.881 81547072 82033560 82487296 82956504 83491640 84135840 84926504 
1139.256 85891232 87047472 88406744 89972984 91743664 93708088 95847208 
1142.632 98135088 100535720 103006992 105500584 107956040 110306552 
1145.525 112474408 114369200 115900808 116978936 117523264 117478224 
1148.418 116814304 115533488 113664640 111261344 108394016 105139208 
1151.311 101584032 97818336 93927080 89995848 86099200 82297464 78642248 
1154.686 75172296 71916992 68901312 66142356 63650608 61428424 59469584 
1158.061 57761208 56285400 55023500 53955384 53059912 52315088 51695540 
1161.437 51173824 50724600 50324280 49955736 49608716 49278264 48963044 
1164.812 48662732 48377704 48108592 47858072 47631208 47435064 47276764 
1168.187 47161624 47091784 47065824 47081040 47135584 47229996 47367396 
1171.562 47551536 47784752 48066544 48393816 48762260 49169304 49615920 
1174.938 50106684 50648380 51247080 51906948 52629492 53414652 54262836 
1178.313 55175728 56155928 57204564 58318184 59486836 60692516 61913276 
1181.688 63125952 64309856 65451964 66546680 67596888 68612280 69609464 
1185.063 70610624 71640472 72726160 73891272 75150432 76505080 77939128 
1188.438 79419744 80896480 82309368 83596736 84696384 85557696 86143112 
1191.814 86428376 86404808 86075568 85453896 84558240 83410928 82036000 
1195.189 80457120 78702776 76809072 74820720 72797544 70809024 68922016 
1198.564 67197744 65674996 64364768 63251616 62300604 61469344 60716864 
1201.939 60015140 59350936 58724088 58142912 57619644 57166840 56794904 
1205.315 56511544 56321876 56226788 56222904 56302296 56454752 56669584 
1208.690 56938804 57258844 57630876 58058368 58545128 59093656 59704656 
1212.065 60378692 61117424 61925204 62808184 63773276 64825796 65968216 
1215.440 67200944 68524120 69940232 71456112 73082248 74832528 76721456 
1218.816 78761992 80965864 83344520 85909808 88676024 91658384 94870032 
1222.191 98319504 102005192 105913520 110013496 114257240 118580000 
1225.084 122891512 127082496 131021824 134548704 137494048 139682512 
1227.977 140946608 141163664 140265232 138257648 135221504 131308792 
1230.870 126726344 121696440 116460728 111249704 106255024 101642856 
1233.763 97530600 93985360 91036808 88678904 86883088 85604912 84793840 
1237.138 84396560 84356000 84618104 85131752 85848552 86729320 87740528 
1240.514 88850520 90029360 91240504 92439008 93576344 94599072 95458480 
1243.889 96119944 96564232 96791992 96821392 96685672 96428432 96097000 
1247.264 95745584 95426936 95188304 95069592 95094008 95266248 95571184 
1250.639 95979776 96453752 96952224 97442176 97899200 98310728 98676376 
1254.015 99006360 99321816 99650664 100029200 100496336 101085904 101824064 
1257.390 102721040 103769216 104940360 106189856 107460184 108679464 
1260.283 109770552 110653360 111243104 111464008 111251112 110556680 
1263.176 109360080 107668040 105514784 102953400 100052728 96890632 93544368 
1266.551 90097360 86634376 83232776 79967816 76901216 74076160 71522280 
1269.927 69255008 67280056 65598188 64205632 63093692 62246800 61643404 
1273.302 61257960 61062924 61035696 61158848 61420600 61813180 62329288 
1276.677 62960296 63697188 64531496 65458088 66477248 67593328 68813408 
1280.052 70144008 71590456 73156472 74846928 76669424 78635064 80756272 
1283.427 83042584 85493792 88095344 90813024 93596560 96380640 99087488 
1286.803 101641512 103968448 106001480 107689280 108992792 109887080 
1289.696 110361488 110415488 110054400 109284088 108106112 106516840 
1292.589 104510904 102089472 99271136 96099856 92653088 89034488 85364072 
1295.964 81777528 78401744 75353280 72737248 70631752 69091744 68143304 
1299.339 67781056 67969480 68646504 69737088 71153152 72803144 74602896 
1302.715 76465408 78306424 80047296 81607160 82913224 83906456 84540936 
1306.090 84790464 84646848 84118024 83227800 82018512 80562176 78957512 
1309.465 77335168 75850304 74645984 73836640 73473232 73524008 73868056 
1312.840 74310984 74639328 74643616 74178936 73194232 71730944 69908160 
1316.216 67879904 65815432 63854984 62091912 60576696 59316676 58293704 
1319.591 57478012 56842600 56366992 56036676 55841408 55770428 55811792 
1322.966 55953032 56183192 56493696 56879084 57334116 57851784 58421992 
1326.341 59030680 59661856 60300640 60934080 61552908 62151820 62727020 
1329.717 63276260 63798912 64295680 64769900 65227972 65678580 66131012 
1333.092 66592916 67069612 67563560 68075192 68605096 69154488 69726280 
1336.467 70323680 70949208 71603624 72286888 72998392 73739568 74514768 
1339.842 75330264 76194040 77111608 78085136 79112728 80190536 81314664 
1343.218 82483328 83699504 84970096 86304760 87713280 89203688 90780272 
1346.593 92443848 94192432 96022968 97933072 99920632 101983440 104117328 
1349.968 106314440 108563440 110851728 113167784 115506984 117873360 
1352.861 120281952 122755264 125320080 128005344 130837064 133838456 
1355.754 137028912 140418384 144001504 147746016 151590800 155437264 
1358.647 159157408 162624160 165720608 168371104 170555264 172306880 
1361.540 173700992 174826192 175775984 176625488 177425456 178209616 
1364.433 178994000 179781552 180565008 181330832 182065888 182766832 
1367.326 183450832 184161600 184968080 185944768 187160464 188662000 
1370.219 190467712 192574784 194970416 197645072 200594128 203815680 
1373.113 207301792 211028224 214955456 219040640 223255552 227599232 
1376.006 232092560 236759520 241594176 246534672 251438464 256103808 
1378.899 260284928 263712944 266144720 267353392 267134672 265341136 
1381.792 261903376 256884544 250487328 243036720 234890288 226319504 
1384.685 217478032 208372288 198919984 189036080 178725344 168124608 
1387.578 157480768 147074624 137140992 127839816 119251024 111411632 
1390.471 104351192 98084544 92617616 87933032 83982192 80695016 77993488 
1393.846 75814128 74104256 72817528 71905448 71298064 70913048 70675384 
1397.221 70530832 70468664 70524704 70777432 71320008 72230736 73559720 
1400.597 75317856 77490912 80049200 82956144 86155120 89546416 92985344 
1403.972 96264216 99126440 101324752 102644776 102954064 102224336 100520648 
1407.347 97985048 94796904 91169016 87318624 83444736 79740072 76358224 
1410.722 73402288 70929040 68946472 67433048 66355668 65686368 65405972 
1414.098 65497464 65939368 66696516 67719560 68960648 70379704 71957064 
1417.473 73698224 75623056 77749344 80069648 82548680 85131424 87765752 
1420.848 90422856 93097080 95793920 98505864 101197984 103801024 106207032 
1424.223 108300768 109982000 111179328 111854784 111984728 111542216 
1427.116 110496760 108825120 106537888 103695080 100417840 96868936 93212464 
1430.492 89602376 86162552 82984264 80141400 77683368 75629448 73969720 
1433.867 72663952 71656256 70890848 70337040 70001304 69923488 70149768 
1437.242 70697920 71537600 72600192 73802120 75065040 76332824 77563400 
1440.617 78726960 79803976 80777664 81635680 82371600 82985104 83481912 
1443.993 83870928 84160376 84353104 84445736 84431928 84311136 84098072 
1447.368 83831256 83565768 83360416 83260184 83279896 83407800 83617592 
1450.743 83888568 84216240 84616096 85112840 85725912 86453200 87269120 
1454.118 88123720 88956160 89711616 90347456 90850232 91236784 91549184 
1457.494 91826352 92084152 92317520 92513008 92665352 92783904 92888736 
1460.869 93003408 93146432 93325904 93541904 93791392 94076824 94411616 
1464.244 94820560 95332104 95973456 96765568 97722272 98859056 100192880 
1467.619 101738624 103502736 105475752 107633864 109932616 112320360 
1470.512 114740552 117123360 119390360 121449200 123200208 124551864 
1473.406 125434216 125799568 125621616 124886744 123601304 121802792 
1476.299 119567528 117004656 114226424 111329368 108369096 105359680 
1479.192 102294528 99167160 95988544 92798840 89656544 86622400 83746504 
1482.567 81055024 78552712 76231280 74076320 72073688 70211608 68480784 
1485.942 66876552 65399960 64058268 62863016 61825824 60953792 60247196 
1489.317 59702036 59316032 59090848 59032048 59141420 59410468 59815644 
1492.693 60322380 60887992 61473924 62051972 62607020 63140048 63661964 
1496.068 64183736 64703480 65201864 65644780 65997220 66233428 66346436 
1499.443 66350072 66276112 66168016 66069208 66021220 66053584 66179864 
1502.818 66396356 66680908 66995456 67283616 67483936 67545520 67453400 
1506.194 67252048 67041428 66938280 67010380 67258384 67631736 68065896 
1509.569 68504216 68908688 69264688 69574184 69851840 70117096 70388584 
1512.944 70677488 70985336 71304232 71620232 71920112 72196728 72457192 
1516.319 72724912 73037152 73428496 73916296 74491296 75119392 75749432 
1519.695 76326896 76817216 77221472 77587520 77987504 78489264 79118656 
1523.070 79851760 80632296 81396576 82098200 82713072 83246984 83727024 
1526.445 84191384 84672184 85187944 85747664 86357512 87026664 87767616 
1529.820 88589552 89490144 90450640 91442992 92438680 93425984 94423352 
1533.196 95484032 96679840 98063408 99651544 101417728 103314888 105287848 
1536.571 107290936 109299864 111299016 113293264 115306056 117383392 
1539.464 119581888 121948872 124519336 127291248 130239400 133336168 
1542.357 136556096 139881872 143296912 146777792 150282912 153750048 
1545.250 157110752 160294880 163238560 165886752 168168576 169993472 
1548.143 171266944 171903296 171879120 171255504 170175136 168798544 
1551.036 167233296 165502976 163552320 161304352 158731712 155909232 
1553.929 153017696 150293600 147913392 145933616 144261504 142695024 
1556.822 140961328 138787088 135998704 132623000 128964976 125500128 
1559.715 122636120 120507888 119005168 117903224 116982192 116070584 
1562.608 115032624 113773568 112240808 110436208 108421616 106302712 
1565.501 104196296 102173184 100235912 98315512 96302512 94084112 91595248 
1568.877 88857632 85988040 83162912 80543824 78230048 76236328 74518040 
1572.252 73004464 71626328 70325160 69053792 67777528 66482692 65195820 
1575.627 63998864 63021704 62409464 62260832 62606096 63419564 64651488 
1579.002 66259132 68222304 70546848 73253368 76363832 79886648 83801880 
1582.378 88051960 92543520 97131152 101624936 105810352 109443672 112300064 
1585.753 114204568 115039920 114773520 113457384 111239600 108345664 
1588.646 105066400 101738792 98670048 96123544 94295008 93292472 93160600 
1592.021 93889848 95435528 97724048 100662408 104151224 108072240 112298256 
1595.396 116704144 121160056 125551448 129785808 133781104 137461856 
1598.290 140745344 143526304 145690816 147132832 147773024 147585088 
1601.183 146596704 144885776 142557072 139738688 136575168 133208824 
1604.076 129785944 126435872 123248968 120278280 117535680 115004168 
1606.969 112654440 110461120 108411152 106500832 104731064 103098480 
1609.862 101593656 100205360 98927040 97762016 96721520 95815976 95044400 
1613.237 94385304 93793776 93205360 92554176 91789632 90905248 89955248 
1616.612 89051608 88325120 87868088 87711488 87822856 88137104 88578496 
1619.988 89083504 89610432 90137200 90665944 91219656 91839368 92570992 
1623.363 93453888 94511616 95744304 97133728 98649672 100258952 101926624 
1626.738 103618736 105308160 106974096 108607088 110209640 111794984 
1629.631 113382176 114988840 116629160 118311544 120040184 121813544 
1632.524 123630680 125494736 127415688 129421104 131559968 133909256 
1635.417 136547024 139532864 142890432 146590928 150587312 154835456 
1638.310 159309584 164002048 168918496 174074912 179479952 185130640 
1641.203 191011088 197082128 203285680 209556320 215805024 221943136 
1644.096 227898336 233620544 239112752 244432368 249693296 255001664 
1646.990 260417408 265934112 271471552 276921728 282166944 287098784 
1649.883 291554496 295256512 297788192 298509760 296685856 291839424 
1652.776 284266272 275216192 266240304 258338832 251614032 245630000 
1655.669 239807744 233713376 227126944 220025328 212520912 204782128 
1658.562 196975808 189186544 181420832 173627088 165732272 157686464 
1661.455 149495712 141238688 133065792 125175120 117763192 110983256 
1664.348 104910152 99533600 94782312 90546008 86705248 83156288 79831688 
1667.723 76713192 73836328 71275928 69119088 67431576 66236048 65508752 
1671.098 65192932 65223044 65537192 66085212 66836284 67778112 68921424 
1674.474 70297192 71947880 73907336 76179000 78742616 81566464 84628728 
1677.849 87927232 91476368 95294096 99374872 103683808 108161112 112731584 
1681.224 117346840 122000832 126732696 131618472 136734656 142107584 
1684.117 147641232 153132000 158327584 163006096 167010240 170227104 
1687.010 172578640 173989840 174414768 173851760 172340336 169957248 
1689.903 166800112 162993504 158684592 154036896 149222560 144360208 
1692.796 139476160 134485264 129201952 123418648 117044440 110245600 
1695.689 103476792 97316224 92166696 88113408 84937464 82282608 79776584 
1699.065 77167808 74418840 71728168 69423392 67738304 66673836 66024108 
1702.440 65519736 64908124 64011880 62722764 60988300 58814412 56259184 
1705.815 53427128 50441488 47426340 44491412 41713080 39138416 36780900 
1709.190 34622816 32630354 30770432 29027710 27410238 25942322 24644038 
1712.566 23517414 22535370 21651658 20814682 19992778 19184996 18416360 
1715.941 17718412 17107672 16571654 16080031 15606033 15149741 14740853 
1719.316 14418690 14207096 14099163 14060659 14043239 14006793 13931311 
1722.691 13826594 13721663 13650947 13631254 13654264 13691193 13710924 
1726.067 13696733 13653033 13600175 13561032 13546810 13550229 13550366 
1729.442 13526472 13471955 13398512 13329900 13284905 13264988 13247429 
1732.817 13195201 13075091 12887187 12673165 12499826 12416183 12427809 
1736.192 12501974 12588635 12645020 12644918 12588635 12497405 12404488 
1739.568 12334907 12294310 12267758 12233438 12176833 12099317 12014150 
1742.943 11937991 11878020 11827999 11770665 11688966 11576655 11442806 
1746.318 11307534 11189746 11098435 11025019 10949509 10849042 10712902 
1749.693 10548390 10379189 10232714 10126783 10062585 10027929 10006974 
1753.069 9990259 9978121 9976799 9990530 10015858 10040204 10047426 10027319 
1756.926 9983512 9933845 9900114 9897945 9927268 9973341 10012908 10026404 
1760.783 10008433 9971375 9939133 9934082 9965780 10025623 10094767 10153678 
1764.641 10193500 10216600 10233765 10255444 10285877 10320145 10348138 
1768.016 10361814 10361543 10356690 10359710 10377186 10404539 10425310 
1771.391 10420015 10378171 10307693 10233528 10183833 10176709 10209714 
1774.767 10264638 10316853 10349395 10358421 10353772 10351906 10366124 
1778.142 10398363 10438139 10469025 10478122 10464748 10442042 10429280 
1781.517 10440616 10477443 10526425 10568691 10587806 10580337 10556571 
1784.892 10536745 10538171 10567538 10617651 10673848 10722887 10759908 
1788.268 10790104 10824005 10869425 10925112 10978868 11012512 11013192 
1791.643 10980772 10932282 10891780 10880569 10904114 10952295 11006157 
1795.018 11049728 11077700 11095409 11114547 11145040 11188862 11237381 
1798.393 11277574 11297842 11296618 11283015 11273188 11279920 11306820 
1801.769 11346135 11384944 11412292 11426613 11435627 11451854 11484616 
1805.144 11534359 11592207 11644719 11682022 11702548 11714700 11731243 
1808.519 11763209 11812201 11871141 11927263 11971607 12003897 12033600 
1811.894 12073766 12134104 12214898 12306649 12395727 12471830 12533655 
1815.270 12589215 12651604 12730345 12826948 12932381 13033024 13117537 
1818.645 13183246 13236634 13288902 13347770 13412967 13474518 13518371 
1822.020 13533445 13516252 13472570 13414061 13352588 13294744 13240768 
1825.395 13188097 13135671 13087383 13050199 13029678 13025000 13026776 
1828.771 13020835 12993556 12941666 12875378 12815209 12780913 12781698 
1832.146 12812581 12857903 12899748 12925997 12935726 12938389 12947162 
1835.521 12970682 13007963 13048559 13080076 13095306 13097901 13100564 
1838.896 13119655 13165213 13235917 13318660 13395300 13450765 13478244 
1842.271 13481388 13470622 13458079 13450935 13449774 13452200 13457669 
1845.647 13470554 13498854 13548144 13617714 13698648 13777579 13842089 
1849.022 13887518 13919199 13950095 13993379 14054977 14130517 14207540 
1852.397 14273552 14322041 14357041 14389576 14432803 14492271 14563398 
1855.772 14632993 14687210 14718401 14729506 14731529 14737047 14752679 
1859.148 14775440 14794261 14797724 14781165 14750519 14720355 14705204 
1862.523 14713808 14743663 14783942 14821551 14849459 14869037 14889267 
1865.898 14919375 14961796 15009400 15047681 15064283 15056050 15034234 
1869.273 15019931 15034440 15087095 15171460 15268917 15359874 15430456 
1872.649 15478215 15510629 15538685 15568974 15600091 15622829 15627638 
1876.024 15610944 15579003 15545931 15525430 15525533 15543527 15568597 
1879.399 15588070 15596210 15597034 15601877 15622863 15665147 15723616 
1882.774 15785702 15838483 15875494 15901307 15928699 15970943 16033581 
1886.150 16111217 16189454 16253291 16294191 16315693 16331071 16357768 
1889.525 16408108 16482679 16572583 16665328 16752066 16831830 16910092 
1892.900 16993436 17084132 17177608 17264104 17334582 17387622 17430388 
1896.275 17476882 17539082 17622130 17720690 17823624 17919294 18003452 
1899.651 18080580 18162382 18259374 18375328 18503760 18632262 18748732 
1903.026 18847410 18931540 19009768 19089980 19172218 19246954 19299292 
1906.401 19317272 19297976 19251666 19195386 19148428 19121178 19112936 
1909.776 19113732 19112832 19105456 19097182 19100574 19127998 19185758 
1913.152 19269226 19367572 19467050 19559168 19643088 19723488 19805498 
1916.527 19889850 19971788 20044512 20104684 20157366 20214222 20288654 
1919.902 20386884 20503998 20623992 20727164 20800464 20842944 20867938 
1923.277 20896028 20945924 21023504 21120300 21218790 21302614 21365258 
1926.653 21412838 21459556 21519680 21598756 21690910 21782108 21858514 
1930.028 21915036 21958354 22002758 22061914 22141578 22236008 22332342 
1933.403 22418162 22488434 22548248 22609048 22680434 22763180 22848316 
1936.778 22922150 22974234 23004768 23024646 23049978 23093552 23155790 
1940.154 23223910 23277498 23300046 23286308 23247540 23203602 23174522 
1943.529 23168896 23181652 23198326 23206294 23201960 23193712 23195494 
1946.904 23218108 23261244 23312598 23354692 23374028 23370636 23358156 
1950.279 23358294 23388680 23452746 23538820 23627224 23699510 23748854 
1953.655 23782068 23814092 23856972 23911232 23963750 23995438 23992426 
1957.030 23955102 23900834 23854802 23840834 23866212 23920754 23981818 
1960.405 24029370 24055564 24069574 24088556 24128136 24191224 24267598 
1963.780 24338558 24390146 24422952 24452256 24500982 24585022 24704256 
1967.156 24839204 24962368 25049234 25090796 25096448 25085916 25077036 
1970.531 25073980 25067698 25042214 24987496 24908010 24824258 24762586 
1973.906 24743748 24771180 24830186 24898114 24958120 25009186 25065872 
1977.281 25146934 25261790 25400214 25535802 25636772 25682432 25672626 
1980.656 25627176 25575336 25540720 25532322 25543110 25557800 25563422 
1984.032 25558782 25554004 25565390 25602890 25664188 25734216 25795182 
1987.407 25835126 25856226 25872966 25904934 25963990 26047998 26140536 
1990.782 26220072 26271672 26295046 26304340 26320392 26358624 26420840 
1994.157 26494864 26561396 26605148 26622162 26620860 26615046 26615646 
1997.533 26624558 26634880 26636112 26624030 26605042 26594580 26608916 
2000.908 26653058 26718030 26781496 26820298 26820614 26786992 26740194 
2004.283 26707706 26709150 26746326 26801972 26850434 26870560 26856108 
2007.658 26819524 26781672 26761902 26765954 26784668 26800738 26801760 
2011.034 26785688 26763698 26751366 26759328 26786112 26819418 26842610 
2014.409 26844864 26829180 26809760 26805390 26826042 26868974 26918148 
2017.784 26955272 26968740 26962498 26953510 26963168 27004598 27075898 
2021.159 27159874 27234870 27284438 27306454 27312064 27319544 27343752 
2024.535 27386910 27440978 27492160 27531450 27558422 27581160 27609158 
2027.910 27645458 27682324 27705526 27701852 27668092 27615302 27565766 
2031.285 27540734 27550654 27590268 27641714 27684656 27705702 27707046 
2034.660 27700582 27701500 27716758 27741658 27762672 27765922 27745754 
2038.036 27708422 27668516 27640408 27630238 27631932 27631404 27615584 
2041.411 27580488 27535332 27496924 27479734 27488666 27514400 27537662 
2044.786 27539428 27511186 27460144 27405932 27370112 27366866 27397004 
2048.161 27448708 27503986 27548608 27577240 27593586 27604744 27616362 
2051.537 27629248 27640548 27648140 27654568 27667774 27697616 27751052 
2054.912 27826256 27913238 27996102 28062372 28107862 28138548 28167502 
2058.287 28206818 28262368 28329880 28397508 28451560 28483932 28494298 
2061.662 28489876 28478520 28466384 28452976 28434616 28408190 28375790 
2065.038 28346078 28331366 28341338 28378194 28434332 28496458 28550558 
2068.413 28587926 28608204 28617016 28621406 28625156 28626820 28621440 
2071.788 28605196 28579116 28549992 28527700 28519704 28527274 28543624 
2075.163 28557530 28558626 28542916 28514468 28482872 28457822 28444768 
2078.539 28442080 28442716 28438648 28425808 28405396 28382580 28362526 
2081.914 28347244 28333840 28316688 28291048 28255968 28216012 28178992 
2085.289 28151488 28136178 28129886 28126352 28119174 28105920 28087962 
2088.664 28069228 28053040 28038938 28022786 27999212 27965358 27923908 
2092.040 27882500 27850596 27835724 27839820 27858898 27885786 27913662 
2095.415 27940128 27966736 27996138 28028830 28060040 28081036 28083084 
2098.790 28061664 28020278 27968468 27918998 27881368 27857662 27842400 
2102.165 27826750 27803542 27771116 27734380 27701288 27678616 27667564 
2105.541 27663820 27659476 27649554 27633628 27617490 27608628 27612936 
2108.916 27630344 27654710 27677028 27690376 27693414 27691012 27690622 
2112.291 27697756 27712238 27727952 27736216 27730532 27710436 27682042 
2115.666 27655556 27639172 27636416 27643586 27653224 27657746 27653438 
2119.042 27642068 27628790 27618904 27613500 27609616 27601250 27583560 
2122.417 27555350 27520366 27484218 27451674 27424180 27398274 27369760 
2125.792 27336272 27300070 27267890 27247146 27242666 27252966 27271030 
2129.167 27287508 27294776 27292096 27284686 27280910 27287756 27307514 
2132.542 27336552 27368878 27399898 27429826 27463180 27505434 27558458 
2135.918 27617174 27670210 27706408 27720042 27713968 27698922 27688574 
2139.293 27692106 27709764 27732862 27748262 27746636 27726504 27695814 
2142.668 27667174 27651600 27653650 27668198 27685750 27697368 27699488 
2146.043 27694366 27688152 27683878 27679676 27669468 27645952 27607570 
2149.419 27560504 27516624 27488348 27481324 27490254 27500102 27494702 
2152.794 27461416 27399050 27314712 27221074 27128094 27038412 26948960 
2156.169 26859246 26776914 26723386 26727614 26813426 26987214 27229154 
2159.544 27499996 27753348 27955004 28091356 28169412 28207136 28223260 
2162.920 28228600 28224566 28208444 28180548 28148482 28124336 28121120 
2166.295 28141978 28179594 28217460 28238534 28232170 28199500 28150992 
2169.670 28100652 28057812 28022432 27986384 27940798 27882252 27816964 
2173.045 27759776 27726646 27727494 27759600 27808840 27855612 27884336 
2176.421 27888576 27871334 27841906 27808310 27773516 27734416 27687020 
2179.796 27630660 27570708 27518706 27485206 27473770 27478570 27486690 
2183.171 27485346 27466498 27432544 27393828 27363232 27348128 27347280 
2186.546 27351656 27350880 27337752 27313054 27284122 27260022 27246194 
2189.922 27240760 27235892 27223228 27198252 27164566 27130634 27105486 
2193.297 27092826 27088630 27083268 27065848 27031148 26981926 26927350 
2196.672 26877998 26840354 26813460 26791574 26767118 26738644 26710736 
2200.047 26694494 26699954 26732054 26785408 26847226 26903414 26943214 
2203.423 26965250 26975508 26984888 27002130 27030054 27066270 27104498 
2206.798 27139804 27171162 27201074 27233212 27268986 27306208 27339448 
2210.173 27363796 27378830 27389028 27402650 27426614 27463710 27509810 
2213.548 27556620 27595530 27622434 27639030 27652484 27669822 27694438 
2216.924 27723186 27748862 27762426 27758646 27737454 27704502 27667210 
2220.299 27630450 27595810 27560610 27522414 27480440 27437380 27398308 
2223.674 27366830 27343046 27321874 27296398 27261012 27214902 27163576 
2227.049 27116420 27081364 27062144 27055868 27055234 27052200 27041764 
2230.425 27024696 27005866 26990106 26980232 26973816 26965320 26948818 
2233.800 26921252 26884412 26843632 26804756 26770324 26739066 26707072 
2237.175 26670392 26628222 26584222 26544772 26516136 26501134 26497858 
2240.550 26501098 26505394 26507544 26508212 26510608 26517862 26530824 
2243.926 26546286 26559072 26564356 26559742 26547202 26530894 26515468 
2247.301 26502858 26492646 26482398 26469932 26455704 26442886 26435278 
2250.676 26435314 26442216 26451652 26458168 26458134 26451724 26443132 
2254.051 26438484 26442886 26456724 26476340 26494548 26505712 26506382 
2257.427 26498490 26486096 26474016 26464262 26455704 26444328 26426546 
2260.802 26400806 26368202 26332080 26295328 26259106 26222288 26182836 
2264.177 26139234 26092610 26046906 26006660 25974930 25951820 25934198 
2267.552 25917562 25898816 25877502 25856262 25838890 25828306 25823312 
2270.927 25820780 25815400 25803762 25786004 25765330 25747154 25735552 
2274.303 25731614 25732704 25733970 25731086 25721980 25707990 25692416 
2277.678 25678530 25667844 25658986 25649040 25635048 25616104 25593506 
2281.053 25570240 25548522 25529512 25512328 25494266 25473502 25449222 
2284.428 25422276 25394558 25367158 25340006 25311908 25281246 25247672 
2287.804 25212274 25177796 25147038 25121268 25099784 25079984 25058536 
2291.179 25033298 25004378 24973526 24943592 24916046 24891098 24867168 
2294.554 24842468 24816050 24789036 24764130 24743994 24730666 24723440 
2297.929 24720214 24718250 24715690 24712426 24710534 24712532 24720144 
2301.305 24733438 24750520 24769532 24789456 24811348 24837730 24871552 
2304.680 24914186 24964824 25020170 25076052 25129132 25177654 25222494 
2308.055 25265126 25307272 25349210 25389816 25427510 25461274 25491384 
2311.430 25519636 25548382 25579096 25611640 25644646 25676386 25705458 
2314.806 25732914 25760654 25791242 25826266 25865510 25907080 25948338 
2318.181 25987452 26023862 26058728 26093808 26129874 26166260 26199940 
2321.556 26226758 26242632 26244322 26229680 26198252 26150566 26088002 
2324.931 26013696 25932720 25851584 25778338 25720786 25683382 25666930 
2328.307 25667106 25676948 25687706 25693224 25690448 25680358 25666228 
2331.682 25651674 25639514 25630832 25625840 25625138 25629566 25640710 
2335.057 25659444 25684612 25712840 25739172 25759106 25770324 25773030 
2338.432 25770182 25765154 25760444 25755732 25748982 25737132 25717974 
2341.808 25690868 25656386 25614208 25562404 25496410 25411526 25304918 
2345.183 25179446 25044530 24915974 24810926 24743854 24724246 24754378 
2348.558 24830398 24944154 25085706 25244090 25407628 25566690 25712384 
2351.933 25838468 25942112 26024354 26089126 26141698 26187130 26228026 
2355.309 26264174 26292512 26309372 26311802 26298708 26270968 26230596 
2358.684 26179986 26121040 26055174 25983548 25908312 25832208 25757770 
2362.059 25686264 25617652 25549682 25479088 25403938 25323884 25240860 
2365.434 25157570 25076930 25000024 24925764 24851308 24774372 24693698 
2368.810 24610058 24525312 24441950 24361442 24284104 24208914 24134826 
2372.185 24061520 23989064 23918058 23848080 23778182 23706090 23630024 
2375.560 23549420 23465336 23380394 23297844 23219820 23147262 23079016 
2378.935 23013574 22949502 22886978 22827782 22774528 22729346 22692792 
2382.311 22664060 22641058 22621754 22604650 22590130 22579414 22573482 
2385.686 22572784 22576658 22583604 22592120 22601474 22611806 22623534 
2389.061 22637112 22651772 22666052 22678130 22687102 22693386 22699042 
2392.436 22706722 22718454 22734514 22753438 22772328 22788322 22799776 
2395.812 22806582 22809832 22811018 22810810 22809204 22805082 22797854 
2399.187 22787728 22776134 22765170 22757140 22752880 22752216 22753926 
2402.562 22756544 22759514 22762796 22767092 22772852 22779626 22786260 
2405.937 22791044 22792966 22791988 22789334 22786470 22785108 22785492 
2409.313 22787134 22789228 22791428 22794188 22798866 22806618 22817864 
2412.688 22831482 22845102 22856732 22865150 22870946 22876362 22884464 
2416.063 22896932 22913942 22933540 22953066 22970078 22983458 22993868 
2419.438 23002638 23010918 23018638 23024368 23026150 23022934 23015146 
2422.813 23004734 22994322 22986044 22980488 22976260 22971056 22962742 
2426.189 22950970 22936996 22923340 22912232 22905002 22901264 22899308 
2429.564 22897492 22894976 22891904 22889458 22888830 22890262 22893056 
2432.939 22895500 22896478 22895292 22892218 22888132 22883662 22878806 
2436.314 22872484 22863438 22851110 22835430 22817514 22798586 22779136 
2439.690 22759164 22737726 22713986 22688254 22662176 22638438 22619416 
2443.065 22606674 22599624 22596098 22592992 22588036 22580392 22570516 
2446.440 22559802 22549156 22538722 22527414 22514326 22498904 22482292 
2449.815 22466626 22454412 22447296 22445026 22445410 22445760 22443528 
2453.191 22437490 22428384 22417742 22407660 22399078 22392414 22386972 
2456.566 22381912 22377134 22372912 22369808 22368378 22368204 22368832 
2459.941 22369564 22370262 22371902 22376262 22384530 22397646 22415092 
2463.316 22435328 22456926 22478420 22499460 22520330 22541758 22563570 
2466.692 22585138 22605556 22623324 22638404 22651320 22662874 22673906 
2470.067 22684274 22693002 22698588 22700090 22697680 22693072 22688428 
2473.442 22685880 22685984 22687696 22689198 22688288 22684170 22677362 
2476.817 22669646 22663118 22658686 22656520 22655334 22653694 22651040 
2480.193 22647830 22645490 22645526 22648632 22654496 22661828 22669718 
2483.568 22677920 22687382 22699460 22715416 22735248 22757628 22780394 
2486.943 22801206 22819192 22834626 22848700 22862636 22876954 22890646 
2490.318 22902136 22909508 22912092 22910590 22906502 22901718 22897492 
2493.694 22893824 22890332 22886280 22882158 22878736 22877408 22878562 
2497.069 22881774 22884638 22884812 22880656 22872170 22861378 22851878 
2500.444 22846778 22847932 22854916 22865570 22877234 22887432 22894872 
2503.819 22899762 22902486 22903150 22901508 22896828 22888830 22878386 
2507.195 22867558 22858758 22853728 22852610 22853556 22853728 22850168 
2510.570 22841402 22827886 22812170 22796598 22783536 22773970 22766812 
2513.945 22760910 22755044 22748376 22741182 22733746 22725890 22717126 
2517.320 22706652 22693980 22679842 22665772 22653380 22644340 22638824 
2520.696 22635506 22632366 22627618 22619554 22608560 22594982 22579554 
2524.071 22562454 22543188 22520714 22494926 22466662 22437978 22411288 
2527.446 22388228 22369248 22352924 22337122 22319820 22300078 22278000 
2530.821 22254842 22231822 22209120 22185966 22160928 22132652 22101030 
2534.197 22066794 22031656 21997426 21965186 21934934 21906392 21879212 
2537.572 21853286 21829420 21808098 21789388 21772248 21755248 21736854 
2540.947 21716442 21694776 21673564 21654618 21639084 21626408 21614950 
2544.322 21603076 21589668 21575600 21562856 21553802 21549764 21550180 
2547.698 21552896 21554986 21554324 21550356 21544714 21540048 21538620 
2551.073 21541616 21548406 21557250 21566720 21576400 21587334 21601126 
2554.448 21619060 21640930 21665310 21689550 21711390 21729958 21746260 
2557.823 21762284 21780122 21801060 21824542 21849072 21872486 21893568 
2561.198 21912178 21929360 21946436 21964072 21982300 22000528 22018166 
2564.574 22035002 22051700 22069792 22090188 22113440 22139102 22166264 
2567.949 22193880 22221570 22249470 22278104 22307752 22337784 22366914 
2571.324 22393706 22417046 22437038 22454656 22471406 22488434 22505848 
2574.699 22523086 22538894 22552472 22563326 22572052 22579554 22586396 
2578.075 22592400 22596936 22599066 22598368 22595366 22591248 22587792 
2581.450 22585872 22585732 22586256 22586256 22584686 22581160 22576414 
2584.825 22571702 22568386 22567024 22568072 22571422 22577182 22585732 
2588.200 22597284 22611946 22628526 22645630 22661480 22675058 22686334 
2591.576 22697120 22709866 22726588 22748340 22774214 22802148 22829388 
2594.951 22853868 22874824 22892846 22908984 22924178 22938532 22951038 
2598.326 22960890 22967458 22971090 22972908 22974166 22975598 22976576 
2601.701 22975632 22971090 22961938 22948348 22931478 22913418 22895886 
2605.077 22879748 22864904 22850866 22837000 22823766 22811926 22802568 
2608.452 22796318 22792722 22790730 22788494 22784586 22778754 22771420 
2611.827 22763704 22756720 22750750 22745616 22740730 22735144 22728962 
2615.202 22721876 22714194 22706164 22697400 22687660 22676908 22665806 
2618.578 22655474 22647654 22643222 22642174 22643606 22645072 22644512 
2621.953 22640290 22632016 22620288 22606290 22591212 22575540 22559590 
2625.328 22543292 22527100 22511710 22498624 22488888 22482712 22479432 
2628.703 22477652 22475732 22472524 22468196 22463242 22458810 22455530 
2632.079 22453506 22451902 22450260 22448378 22446912 22447540 22451936 
2635.454 22461252 22476082 22495658 22518306 22542874 22568422 22594284 
2638.829 22620672 22647514 22674464 22700822 22725646 22748724 22770022 
2642.204 22790172 22809972 22830122 22850866 22871680 22892462 22912860 
2645.580 22933260 22954218 22976540 23000506 23025906 23051970 23077548 
2648.955 23101868 23124372 23145200 23164562 23182490 23198988 23213598 
2652.330 23225658 23234676 23240690 23243660 23243940 23241738 23237158 
2655.705 23230518 23222128 23213216 23205280 23200036 23198884 23202484 
2659.081 23210942 23223420 23238940 23256908 23276764 23298998 23323856 
2662.456 23351650 23382316 23415292 23449666 23484606 23519478 23553756 
2665.831 23587340 23619876 23651330 23681036 23708890 23734332 23757358 
2669.206 23777412 23794212 23807442 23816508 23821512 23823052 23822106 
2672.582 23820708 23820426 23822596 23827918 23836284 23847204 23860682 
2675.957 23876330 23894812 23916450 23941516 23969596 23999640 24030246 
2679.332 24060188 24089116 24116962 24144212 24171780 24200120 24229094 
2682.707 24258456 24287712 24316866 24346058 24375812 24406620 24438550 
2686.083 24471394 24504908 24538670 24572890 24608094 24644950 24684334 
2689.458 24726492 24771462 24818854 24868324 24919800 24973704 25030632 
2692.833 25091392 25156166 25225444 25299298 25377838 25461308 25550244 
2696.208 25644856 25744834 25849614 25957976 26068262 26179598 26290928 
2699.583 26402108 26512862 26622902 26731244 26836372 26936726 27030548 
2702.959 27116702 27194230 27263022 27322508 27372088 27411226 27439178 
2706.334 27455486 27460532 27455732 27442674 27423260 27399474 27372582 
2709.709 27343646 27313442 27282922 27252826 27224214 27198110 27175076 
2713.084 27155676 27140438 27129576 27123438 27122310 27126012 27134056 
2716.460 27145870 27160580 27177968 27198216 27222380 27251344 27285708 
2719.835 27324944 27367712 27411474 27453826 27493256 27529156 27562092 
2723.210 27593480 27624412 27655062 27684690 27711954 27735334 27753736 
2726.585 27767194 27776766 27783866 27790118 27796512 27803294 27810218 
2729.961 27816506 27821770 27825620 27828092 27829540 27830388 27831378 
2733.336 27833356 27836924 27842646 27850206 27859040 27867836 27875114 
2736.711 27879920 27881722 27881262 27880096 27880274 27884018 27893240 
2740.086 27908750 27930836 27959244 27993276 28032400 28075804 28122816 
2743.462 28172912 28225770 28280934 28338438 28398674 28461078 28525576 
2746.837 28591606 28658000 28724158 28789652 28855192 28921980 28991614 
2750.212 29065474 29144874 29230030 29320734 29416312 29516416 29620658 
2753.587 29729218 29841746 29957852 30076438 30196372 30316622 30436766 
2756.963 30556622 30677078 30798530 30921474 31045770 31171134 31296500 
2760.338 31421438 31545232 31667714 31788588 31907816 32025046 32140028 
2763.713 32253038 32364364 32474610 32584388 32693296 32801092 32905840 
2767.088 33005860 33099714 33186436 33266376 33340182 33409022 33474046 
2770.464 33535752 33594352 33649768 33702620 33753036 33802176 33850456 
2773.839 33898352 33945392 33991612 34037084 34082420 34129696 34180952 
2777.214 34238672 34304464 34379052 34462192 34553024 34650552 34754132 
2780.589 34863264 34978028 35098320 35223848 35354200 35488868 35627532 
2783.965 35770204 35917092 36068424 36223768 36382376 36543064 36704492 
2787.340 36865188 37024464 37181852 37336800 37488844 37637004 37780912 
2790.715 37920056 38054688 38185388 38313444 38440056 38565832 38691324 
2794.090 38816304 38940672 39064708 39188456 39312456 39436968 39561544 
2797.466 39685180 39806600 39924604 40038820 40149724 40258188 40365404 
2800.841 40471956 40577224 40680372 40779684 40873960 40962540 41045496 
2804.216 41123288 41196144 41264496 41327972 41386504 41439972 41488856 
2807.591 41534068 41576324 41615960 41652280 41684704 41711880 41733616 
2810.967 41750612 41764732 41778556 41794464 41814020 41837548 41864768 
2814.342 41894468 41925924 41958844 41993400 42029644 42067572 42106088 
2817.717 42143872 42179072 42210108 42236144 42257328 42274124 42287092 
2821.092 42297024 42303892 42307324 42306816 42301812 42292060 42277596 
2824.468 42258972 42236952 42212992 42188932 42166728 42148764 42136864 
2827.843 42132444 42136024 42147124 42164720 42187800 42215584 42248560 
2831.218 42287384 42333224 42387540 42451364 42525028 42608900 42703212 
2834.593 42808472 42925648 43056024 43200968 43361488 43538296 43730964 
2837.969 43938528 44159544 44392676 44636576 44891052 45156192 45432492 
2841.344 45721080 46022572 46337316 46664876 47004016 47352508 47707564 
2844.719 48065176 48420596 48768376 49101592 49412712 49693484 49935436 
2848.094 50130632 50272012 50354084 50373504 50329152 50222200 50055856 
2851.469 49834940 49565852 49254804 48908340 48531924 48130024 47705716 
2854.845 47261244 46798224 46318408 45823948 45317988 44804280 44286588 
2858.220 43768784 43254408 42746460 42247976 41762108 41292660 40843420 
2861.595 40418496 40021164 39653816 39317424 39012252 38737832 38493524 
2864.970 38278556 38092524 37934700 37803756 37698324 37616228 37556032 
2868.346 37515720 37494116 37489528 37500764 37525796 37561924 37606148 
2871.721 37655464 37706780 37757744 37806612 37852232 37894496 37933364 
2875.096 37969560 38004528 38039464 38075996 38115384 38158544 38205468 
2878.471 38255724 38308412 38362776 38417756 38473000 38527596 38581116 
2881.847 38632864 38682052 38728088 38770764 38810360 38847356 38882360 
2885.222 38915956 38948172 38978944 39008120 39035672 39061952 39087696 
2888.597 39113544 39139760 39166228 39192116 39216344 39237704 39255476 
2891.972 39269404 39279664 39286884 39291636 39294536 39295736 39295408 
2895.348 39293816 39290944 39286992 39282136 39276512 39270492 39264508 
2898.723 39259356 39255840 39254896 39256928 39261968 39269908 39279848 
2902.098 39291456 39304768 39320112 39338504 39361068 39389180 39424376 
2905.473 39467772 39521044 39586368 39666012 39762624 39878764 40016876 
2908.849 40179128 40367004 40581992 40824672 41094916 41391312 41709980 
2912.224 42045928 42391776 42738856 43079476 43405536 43710956 43990996 
2915.599 44242192 44462008 44648584 44800824 44918612 45003244 45057384 
2918.974 45084836 45090244 45077964 45051168 45011916 44960796 44897116 
2922.350 44819632 44726592 44616052 44485936 44333812 44157124 43953668 
2925.725 43721472 43459440 43167960 42848260 42503212 42137044 41754992 
2929.100 41363104 40969276 40581588 40208424 39858460 39538716 39255148 
2932.475 39011892 38810796 38651916 38533752 38452688 38404328 38382932 
2935.851 38382644 38397776 38423296 38455656 38492404 38532340 38575104 
2939.226 38620660 38669120 38720304 38774240 38830436 38888776 38948392 
2942.601 39008704 39068588 39127140 39184140 39240244 39297292 39358128 
2945.976 39426188 39505112 39597876 39706780 39833292 39978040 40140456 
2949.352 40318900 40509676 40706100 40899152 41078268 41230720 41345140 
2952.727 41412236 41425720 41382676 41283808 41131888 40931192 40686812 
2956.102 40404640 40090816 39752604 39398000 39035200 38672416 38316884 
2959.477 37974440 37649288 37344420 37060800 36798824 36557660 36335720 
2962.853 36131040 35941244 35764304 35598440 35442492 35296012 35158564 
2966.228 35029280 34907356 34791284 34679584 34571180 34465492 34362592 
2969.603 34263264 34168404 34078868 33995268 33918164 33847844 33784768 
2972.978 33729584 33682744 33644972 33617152 33600044 33594816 33602724 
2976.354 33624888 33662552 33715976 33784768 33867652 33962628 34067476 
2979.729 34180376 34300020 34425604 34557296 34694948 34838456 34987116 
2983.104 35139380 35292848 35444608 35591136 35728756 35854256 35964784 
2986.479 36058560 36134460 36192868 36234000 36259032 36268360 36262452 
2989.854 36241168 36204248 36151384 36082572 35998476 35900536 35791036 
2993.230 35673216 35551576 35430732 35315996 35212068 35122024 35047420 
2996.605 34987976 34941828 34906712 34880856 34863732 34856552 34860788 
2999.980 34878488 34910732 34956948 35015344 35082868 35156768 35234740 
3003.355 35315456 35398488 35483512 35570280 35658540 35747824 35837920 
3006.731 35928860 36021620 36116740 36214836 36315696 36418552 36522232 
3010.106 36625500 36727788 36829012 36929540 37029480 37129116 37227980 
3013.481 37325496 37421124 37515104 37608348 37702084 37797720 37896156 
3016.856 37997548 38101456 38207056 38313264 38419384 38524920 38629784 
3020.232 38734248 38838804 38944292 39051948 39162672 39277384 39396220 
3023.607 39518172 39641728 39764840 39885952 40004340 40120652 40236452 
3026.982 40353624 40472720 40593084 40712432 40827948 40937052 41038936 
3030.357 41134656 41227480 41321776 41420912 41527176 41640648 41759480 
3033.733 41880636 42001616 42120724 42237788 42353896 42471128 42592160 
3037.108 42719148 42854184 42998768 43153540 43318728 43493536 43676328 
3040.483 43865320 44057952 44252392 44446592 44639004 44828116 45011548 
3043.858 45186160 45348184 45493164 45617612 45719756 45800088 45861580 
3047.234 45909160 45948532 45985000 46022716 46063980 46109884 46160368 
3050.609 46215128 46274688 46339568 46410868 46488784 46572876 46661332 
3053.984 46751840 46841292 46927556 47009512 47087096 47161732 47234984 
3057.359 47308756 47383916 47460748 47538632 47616752 47694144 47770624 
3060.735 47845604 47919300 47991568 48062176 48131284 48198844 48265416 
3064.110 48331444 48397704 48464196 48530624 48595620 48657656 48715144 
3067.485 48767040 48813384 48855392 48894436 48932076 48969608 49007220 
3070.860 49044684 49081744 49118548 49155796 49195428 49239440 49289656 
3074.236 49347600 49413420 49486492 49565296 49648160 49733384 49819256 
3077.611 49905000 49989528 50072512 50153876 50233660 50312372 50390768 
3080.986 50469068 50547636 50625556 50701252 50772192 50835512 50887848 
3084.361 50926708 50950512 50959048 50954016 50938368 50916532 50893100 
3087.737 50872612 50858904 50854060 50858980 50873284 50895972 50925924 
3091.112 50962288 51004916 51054144 51110084 51172892 51242344 51317704 
3094.487 51398104 51483112 51572320 51665684 51763136 51864344 51968116 
3097.862 52072512 52174760 52272220 52362332 52443416 52515168 52578288 
3101.238 52634688 52687060 52737860 52789644 52844200 52902920 52966660 
3104.613 53036176 53112032 53194828 53285132 53383476 53490268 53605568 
3107.988 53729776 53864112 54010952 54174092 54359220 54573732 54825152 
3111.363 55122084 55472752 55883952 56362276 56913456 57542200 58252704 
3114.739 59046852 59924564 60881700 61908428 62988184 64094940 65194556 
3118.114 66243768 67190352 67980800 68561208 68883376 68913544 68633616 
3121.489 68045048 67167880 66039384 64709716 63231112 61659636 60046680 
3124.864 58433936 56857936 55347060 53921548 52596656 51381436 50278668 
3128.240 49286392 48398668 47606620 46900276 46270228 45708048 45206160 
3131.615 44758028 44357040 43996896 43671748 43376388 43106368 42858608 
3134.990 42630540 42419980 42224496 42041548 41868268 41702356 41541576 
3138.365 41384572 41230644 41079184 40929772 40782160 40635616 40490212 
3141.740 40345916 40202972 40061892 39923040 39786664 39652108 39518936 
3145.116 39386608 39254424 39122100 38989056 38855148 38720336 38584664 
3148.491 38448384 38312072 38176196 38041200 37906968 37772956 37638156 
3151.866 37501736 37363052 37222208 37079888 36936788 36794100 36652248 
3155.241 36511492 36371280 36231408 36091720 35952256 35813196 35674616 
3158.617 35536548 35398704 35260504 35121848 34982732 34843552 34704676 
3161.992 34566624 34429156 34292164 34155288 34018808 33883236 33749316 
3165.367 33617728 33488612 33361218 33234182 33106078 32976042 32844226 
3168.742 32712020 32580956 32452938 32328702 32208286 32090292 31973578 
3172.118 31857218 31741350 31627194 31516052 31409326 31307466 31210118 
3175.493 31115568 31022032 30927950 30831790 30733302 30632454 30530102 
3178.868 30427348 30325294 30224966 30127290 30032160 29939108 29847068 
3182.243 29754588 29660318 29563620 29464748 29364478 29264302 29165390 
3185.619 29068698 28974046 28881114 28789086 28697504 28606116 28515102 
3188.994 28424568 28334620 28244722 28154386 28062902 27970058 27876068 
3192.369 27781358 27686456 27591892 27497630 27403428 27309030 27214230 
3195.744 27119312 27024590 26930770 26838062 26746466 26655596 26565342 
3199.120 26475036 26384362 26293392 26201912 26110240 26018444 25927058 
3202.495 25836884 25748910 25664154 25583350 25506634 25433062 25361256 
3205.870 25289464 25216034 25140368 25062152 24982372 24902218 24823030 
3209.245 24746064 24671884 24600696 24532044 24465330 24399468 24333302 
3212.621 24266024 24197248 24127364 24057736 23990150 23926672 23868206 
3215.996 23814828 23765722 23718338 23670224 23619386 23564462 23505732 
3219.371 23443896 23380532 23317038 23254356 23193222 23134088 23077232 
3222.746 23022762 22970778 22921104 22873182 22826174 22779380 22732106 
3226.122 22684170 22635506 22586500 22537536 22488680 22440666 22393846 
3229.497 22349226 22307856 22270536 22237368 22207622 22179166 22149318 
3232.872 22115464 22075718 22029808 21978640 21924478 21870326 21818376 
3236.247 21770680 21727868 21690004 21656674 21626964 21600010 21574834 
3239.623 21550252 21525250 21498858 21470172 21438980 21405424 21370270 
3242.998 21333934 21297602 21261760 21227036 21193740 21161558 21130424 
3246.373 21099464 21067988 21035016 21000204 20963206 20924644 20885286 
3249.748 20846106 20808008 20771510 20736686 20703428 20671458 20640670 
3253.124 20610822 20581394 20551484 20519906 20485206 20446790 20404526 
3256.499 20359866 20314554 20271120 20231094 20195652 20163996 20135120 
3259.874 20107044 20078622 20049196 20018418 19986880 19954718 19922006 
3263.249 19888842 19855060 19821210 19788368 19757886 19731428 19709896 
3266.625 19693948 19683270 19677132 19674116 19672486 19670096 19664304 
3270.000 19652276 19631822 19601318 19561178 19513384 19461158 19409080 
3273.375 19360262 19316752 19278578 19244496 19212424 19180770 19149258 
3276.750 19118026 19088180 19060102 19033376 19006616 18977990 18946042 
3280.125 18910220 18871254 18831284 18792254 18756032 18723720 18695630 
3283.501 18671208 18649972 18631366 18615074 18600514 18587026 18573990 
3286.876 18560710 18547224 18534118 18522638 18514132 18509360 18507700 
3290.251 18508012 18507528 18503344 18494112 18478864 18458398 18434302 
3293.626 18408616 18382276 18355730 18328354 18298910 18266526 18230900 
3297.002 18192478 18152744 18113326 18076262 18042962 18014884 17992710 
3300.377 17977170 17968986 17968606 17976342 17991642 18012984 18037646 
3303.752 18061616 18080062 18088144 18082168 18059888 18021446 17969056 
3307.127 17906486 17838538 17769186 17701674 17637830 17578136 17521902 
3310.503 17468364 17417040 17367376 17319652 17274276 17231902 17193498 
3313.878 17160372 17133520 17113704 17101364 17095746 17095608 17099056 
3317.253 17104122 17109154 17113806 17118426 17124044 17132178 17143518 
3320.628 17158236 17175748 17195086 17214908 17234350 17252828 17269896 
3324.004 17285376 17298858 17309756 17317686 17322236 17323788 17323236 
3327.379 17321686 17320686 17321512 17325376 17332824 17343822 17358306 
3330.754 17375342 17393932 17412934 17431044 17447184 17460464 17470708 
3334.129 17477712 17481678 17482886 17481264 17476504 17467742 17453530 
3337.505 17433146 17405174 17369170 17324962 17273138 17215320 17153238 
3340.880 17089130 17024584 16960910 16898518 16836412 16773624 16708678 
3344.255 16640918 16570346 16498545 16427344 16359318 16296566 16240014 
3347.630 16189866 16144849 16102966 16061636 16018281 15970463 15916394 
3351.006 15855150 15786974 15713343 15636876 15560595 15487657 15420705 
3354.381 15360904 15308181 15261676 15219809 15181205 15144697 15109497 
3357.756 15074883 15040374 15004873 14967249 14926645 14882718 14836121 
3361.131 14788125 14740612 14695643 14654549 14618428 14587999 14563192 
3364.507 14544073 14530197 14520707 14513855 14507619 14498712 14484324 
3367.882 14461953 14430268 14389131 14339814 14284133 14225035 14164748 
3371.257 14105701 14049913 13998615 13952832 13912356 13876982 13845304 
3374.632 13816058 13788216 13760889 13734316 13708941 13685517 13664625 
3378.008 13646263 13629852 13614363 13598774 13582329 13564553 13545580 
3381.383 13525617 13504937 13483815 13462248 13440786 13419939 13400119 
3384.758 13381837 13365708 13351835 13340287 13331335 13325390 13323067 
3388.133 13325014 13331198 13340629 13350811 13358874 13361095 13354535 
3391.509 13337588 13310494 13275202 13234381 13191513 13149571 13109956 
3394.884 13073930 13041901 13014314 12991712 12975086 12965288 12962557 
3398.259 12966415 12974745 12984201 12991678 12993078 12985908 12968873 
3401.634 12942417 12908623 12870087 12830020 12790946 12754127 12720348 
3405.010 12689028 12660030 12633047 12608316 12586520 12568170 12553573 
3408.385 12542284 12533622 12526358 12519434 12512273 12504293 12495154 
3411.760 12484241 12470568 12453075 12431048 12405033 12376191 12347248 
3415.135 12320932 12299866 12285517 12277609 12274507 12273757 12272633 
3418.510 12269088 12261794 12250581 12235858 12218102 12198370 12177685 
3421.886 12156968 12137545 12120510 12106506 12095978 12088381 12082895 
3425.261 12078500 12074037 12068894 12062727 12055267 12046511 12035679 
3428.636 12022530 12006247 11986935 11965374 11942521 11920009 11899031 
3432.011 11880335 11863991 11849484 11836171 11823539 11811111 11798923 
3435.387 11787075 11775158 11762801 11749490 11734273 11716572 11696250 
3438.762 11672935 11646591 11617084 11584278 11548684 11510882 11472641 
3442.137 11435933 11402870 11375011 11352597 11334674 11319029 11302943 
3445.512 11284341 11262170 11237008 11210724 11185735 11164485 11148337 
3448.888 11137221 11129946 11124915 11119816 11113255 11104281 11092860 
3452.263 11079502 11064717 11049082 11032768 11015299 10996302 10974995 
3455.638 10950868 10924262 10895926 10867251 10839937 10815818 10795709 
3459.013 10780049 10768161 10758617 10749752 10740106 10728898 10716027 
3462.389 10702273 10688451 10675818 10664476 10653983 10643015 10630486 
3465.764 10614934 10596022 10574022 10550359 10526731 10504496 10484843 
3469.139 10467498 10452122 10437697 10423171 10407865 10391643 10374336 
3472.514 10356113 10336365 10314988 10291508 10265418 10238142 10210630 
3475.890 10185155 10163718 10148014 10138144 10133532 10131632 10129564 
3479.265 10124544 10113928 10096565 10072588 10043357 10011010 9978053 
3482.640 9947100 9919370 9895674 9875641 9858016 9841509 9825139 9807719 
3486.498 9789791 9771525 9753937 9737943 9723948 9711920 9701552 9692505 
3490.355 9684068 9675700 9666789 9656388 9643515 9627152 9606522 9581624 
3494.212 9553443 9523603 9494477 9468096 9445509 9426952 9411749 9398679 
3498.070 9386525 9374844 9363366 9352634 9342342 9332220 9320946 9307642 
3501.927 9291089 9272099 9252163 9233717 9219434 9210972 9208874 9211548 
3505.785 9216624 9220855 9221938 9218317 9210160 9198925 9186944 9176960 
3509.642 9170801 9169955 9173880 9181766 9190971 9198823 9202952 9201699 
3513.500 9194490 9182510 9168026 9153983 9143391 9138450 9140515 9149414 
3517.357 9163897 9182578 9203324 9224037 9243396 9260049 9273081 9282356 
3521.214 9288178 9291665 9294237 9297825 9303648 9312348 9323485 9335808 
3525.072 9347691 9357780 9364720 9368817 9370408 9371018 9371695 9374065 
3528.929 9378703 9386525 9398172 9414153 9434944 9460612 9490210 9522722 
3532.787 9555779 9587112 9614584 9636468 9651951 9661911 9667569 9670991 
3536.644 9674311 9679800 9688134 9699993 9714766 9731844 9750074 9768407 
3540.501 9786063 9802262 9816666 9828359 9836357 9839543 9836086 9824664 
3544.359 9803956 9774067 9736283 9693250 9649071 9608283 9574477 9550394 
3548.216 9536744 9531833 9532816 9536033 9537456 9534271 9525060 9509548 
3552.074 9488889 9464574 9438127 9410666 9382664 9353921 9324400 9294102 
3555.931 9263028 9231754 9200514 9169515 9138552 9107624 9076767 9046555 
3559.789 9017866 8992089 8970542 8954137 8943245 8936785 8932726 8927687 
3563.646 8917236 8896267 8859743 8804287 8728722 8635527 8531606 8427575 
3567.503 8334985 8263116 8217291 8196897 8197032 8209187 8224787 8236910 
3571.361 8240659 8234276 8218743 8196525 8170661 8144124 8119006 8096017 
3575.218 8075290 8056455 8038633 8021082 8003160 7984261 7964518 7944000 
3579.076 7923146 7902933 7884746 7869732 7859340 7854582 7856337 7864098 
3582.933 7876716 7891056 7902562 7905666 7894430 7863895 7812074 7741134 
3586.791 7658133 7574035 7501414 7450749 7427492 7431098 7455502 7491942 
3590.648 7531317 7565572 7589814 7601818 7601953 7592445 7576631 7557918 
3594.505 7539105 7522485 7509134 7499358 7493121 7489245 7486009 7481323 
3598.363 7472963 7458940 7438581 7412257 7382295 7352032 7325140 7304922 
3602.220 7293465 7291241 7297172 7308965 7323388 7336092 7342798 7338619 
3606.078 7319344 7282211 7227360 7158166 7081979 7008296 6946240 6901531 
3609.935 6874903 6861001 6852316 6840030 6817950 6785101 6745119 6706050 
3613.792 6676204 6662072 6664865 6680713 6701575 6717121 6718165 6697268 
3617.650 6651138 6581598 6495925 6404688 6320328 6254371 6213632 6200086 
3621.507 6210539 6238337 6275918 6316663 6356639 6394936 6432498 6470197 
3625.365 6505982 6532823 6539012 6509076 6429639 6294945 6115463 5919529 
3629.222 5744131 5623881 5573904 5588773 5647277 5723785 5795000 5844398 
3633.080 5865388 5860015 5836741 5805981 5776666 5753633 5736845 5723785 
3636.937 5711295 5697699 5683095 5669030 5657045 5647882 5641034 5635462 
3640.794 5630359 5626902 5626902 5633984 5650768 5678094 5714216 5754472 
3644.652 5792112 5819245 5828446 5813604 5771395 5700989 5605152 5489437 
3648.509 5362314 5234590 5118975 5028394 4974397 4963940 4997155 5067078 
3652.367 5160885 5262627 5354699 5422063 5454406 5447495 5406429 5345206 
3656.224 5283723 5240929 5229560 5251728 5301030 5365232 5430753 5486887 
3660.082 5526618 5547526 5551385 5542995 5528598 5514470 5506249 5508161 
3663.939 5522960 5551754 5593975 5647445 5707871 5769280 5824786 5866563 
3667.796 5887823 5886513 5868142 5847790 5851618 5910326 6047790 6275347 
3671.654 6585500 6957082 7358098 7752029 8101925 8367917 8515792 8524950 
3675.511 8398218 8163368 7860656 7528890 7191852 6859856 6537969 6231916 
3679.369 5952045 5712504 5525075 5395190 5318606 5283958 5276881 5284528 
3683.226 5300695 5323101 5352351 5387910 5424411 5452494 5460312 5436490 
3687.083 5375565 5280470 5164339 5045590 4942357 4866791 4821827 4803836 
3690.941 4806784 4825881 4857945 4901306 4953450 5010428 5066408 5115790 
3694.798 5154079 5180098 5195859 5206354 5217219 5232478 5252902 5276110 
3698.656 5297106 5310086 5310355 5296234 5269335 5234993 5200553 5174231 
3702.513 5162461 5168698 5192438 5231036 5279095 5330547 5379892 5422969 
3706.371 5457259 5481652 5496249 5501215 5495880 5478699 5446656 5397370 
3710.228 5329373 5245490 5152335 5061949 4987200 4939911 4927009 4948624 
3714.085 4998998 5068385 5145495 5220539 5285501 5336518 5373351 5398813 
3717.943 5417098 5432665 5447897 5462761 5475310 5482760 5483733 5478632 
3721.800 5469942 5461251 5456017 5454675 5455245 5453232 5444005 5425183 
3725.658 5398478 5370063 5350271 5349566 5374726 5426458 5497792 5577160 
3729.515 5649359 5699915 5719085 5703607 5658388 5594311 5524873 5459808 
3733.373 5401262 5344133 5280134 5203336 5115890 5029098 4959684 4923993 
3737.230 4929689 4974196 5047300 5136811 5232545 5328635 5423472 5515410 
3741.087 5599446 5664229 5691287 5658120 5548264 5361811 5128563 4902445 
3744.945 4746081 4697310 4755293 4887935 5050719 5201760 5307504 5350439 
3748.802 5327663 5251661 5143349 5026249 4918329 4829064 4763534 4725614 
3752.660 4719853 4749899 4814858 4907505 5014685 5120115 5209775 5273058 
3756.517 5306330 5311998 5297005 5269067 5234289 5197133 5160751 5129670 
3760.375 5110760 5110895 5134531 5180501 5241097 5303713 5354330 5382743 
3764.232 5384924 5365366 5334841 5306564 5290297 5287681 5293316 5297039 
3768.089 5289090 5263634 5221881 5171112 5122964 5088667 5075224 5084108 
3771.947 5111599 5151598 5196831 5241901 5283120 5319210 5350707 5378886 
3775.804 5404349 5426525 5442428 5447562 5437396 5409482 5366037 5313877 
3779.662 5264237 5228990 5215744 5226341 5255685 5294590 5332224 5360804 
3783.519 5376672 5381100 5378651 5375028 5374625 5378986 5387407 5397974 
3787.376 5409549 5422063 5436054 5452092 5469472 5486820 5502222 5514839 
3791.234 5525545 5536786 5551217 5569709 5590585 5608173 5616128 5608944 
3795.091 5585316 5549841 5513162 5488363 5485746 5508665 5550546 5598237 
3798.949 5632675 5634791 5590955 5498162 5368990 5229627 5114549 5052462 
3802.806 5054373 5113107 5206321 5306095 5383280 5415923 5393815 5322430 
3806.664 5222115 5123601 5057155 5038853 5068653 5133659 5215978 5299990 
3810.521 5376772 5444408 5506450 5567024 5626533 5679436 5714183 5717506 
3814.378 5679369 5598976 5489471 5377443 5293651 5259944 5282482 5349399 
3818.236 5436892 5515712 5560043 5551620 5486082 5375799 5248978 5141807 
3822.093 5081292 5078979 5127524 5207629 5295194 5369459 5417433 5435383 
3825.951 5429444 5411796 5397639 5397740 5415587 5447126 5484001 5516316 
3829.808 5536887 5542928 5536854 5524470 5513027 5508765 5515041 5532357 
3833.666 5557694 5585651 5609515 5620760 5611395 5575347 5510611 5422398 
3837.523 5321625 5224765 5147775 5100569 5085281 5096445 5123869 5156057 
3841.380 5184994 5205952 5218192 5223960 5227381 5232645 5243511 5262862 
3845.238 5292578 5333063 5384052 5443401 5508598 5577026 5646539 5716567 
3849.095 5786303 5853130 5911603 5950231 5952011 5897798 5771663 5571354 
3852.953 5317700 5056887 4842633 4715565 4687430 4742027 4849904 4980631 
3856.810 5112772 5232545 5334606 5418171 5484874 5535813 5571689 5593069 
3860.667 5600889 5597634 5586591 5570448 5550076 5524940 5494672 5461386 
3864.525 5432564 5418708 5430216 5471921 5539404 5617839 5685714 5721703 
3868.382 5709684 5646807 5545847 5434712 5345374 5298816 5299152 5333432 
3872.240 5380295 5418741 5435986 5430014 5410186 5392003 5389822 5411964 
3876.097 5457628 5518027 5579811 5629688 5656508 5653991 5622002 5567662 
3879.955 5504571 5449373 5418104 5420989 5458366 5520444 5590048 5647344 
3883.812 5673293 5656475 5597902 5512289 5425753 5364394 5347420 5377812 
3887.669 5444240 5525545 5599379 5647277 5657482 5628614 5569776 5497423 
3891.527 5429511 5381603 5361743 5370398 5402269 5449642 5505410 5563198 
3895.384 5618544 5668157 5709147 5738692 5754640 5755278 5740270 5711665 
3899.242 5673394 5630628 5588605 5550982 5518228 5488531 5458131 5424177 
3903.099 5385964 5346279 5310791 5287010 5281107 5295295 5328333 5375229 
3906.957 5429511 5484538 5535478 5579375 5615255 5643316 5664531 5680108 
3910.814 5691556 5700821 5710221 5722073 5737517 5756386 5776163 5792616 
3914.671 5800978 5797653 5781300 5753969 5720058 5685277 5654830 5631333 
3918.529 5615523 5606629 5603406 5605689 5613711 5627741 5646975 5668560 
3922.386 5688803 5703171 5708979 5706025 5697397 5688668 5685882 5693637 
3926.244 5712605 5740908 5773577 5805040 5830092 5845137 5848730 5840536 
3930.101 5821999 5795067 5762967 5729996 5700888 5680645 5673226 5679806 
3933.958 5698941 5726303 5756386 5783147 5802656 5813100 5815316 5812025 
3937.816 5806653 5802287 5800407 5800944 5802052 5801616 5797385 5787814 
3941.673 5772939 5754371 5734864 5717775 5706797 5704011 5710020 5723080 
3945.531 5739464 5754472 5763706 5763807 5754304 5737080 5716567 5697766 
3949.388 5685747 5683331 5691454 5708308 5730903 5755614 5779353 5799534 
3953.246 5814913 5825290 5830730 5831972 5830126 5826129 5821495 5817029 
3957.103 5814208 5813503 5815350 5819749 5825995 5833249 5840469 5846312 
3960.960 5849872 5850510 5848159 5843659 5837883 5832241 5828043 5825928 
3964.818 5826196 5828849 5833585 5840200 5848361 5857798 5868008 5877882 
3968.675 5885909 5890846 5891719 5888629 5882617 5875833 5871030 5869854 
3972.533 5873381 5881341 5892492 5904784 5917178 5928599 5939414 5950063 
3976.390 5961282 5973040 5984932 5995917 6004786 6010565 6012816 6011472 
3980.248 6006903 6000184 5992423 5984932 5979255 5976668 5977911 5983185 
3984.105 5991617 6002099 6013051 6023197 6032167 6040096 6047690 6055585 
3987.962 6063817 6071747 6078433 6082802 6084280 6083978 6082802 6082432 
3991.820 6084011 6087842 6092848 6098460 6103635 6108205 6112742 6118185 
3995.677 6125309 6134114 6143658 6151993 6157672 6159319 6157000 6151791 
3999.535 6145405 6139323 6134752 
##END=
