
##TITLE=Z244_2_b
##JCAMP-DX=5.01  $$ Nicolet v. 1
##DATATYPE=INFRARED SPECTRUM
##ORIGIN=UniL
##OWNER=Nicolet
##LONGDATE=2011/09/20
##TIME=13:39:30
##SPECTROMETER/DATA SYSTEM=Nicolet iS5
##DATA PROCESSING=
Ratio against background
%Transmittance->Absorbance
Truncated
ElementMultiply or ElementDivide
##COMMENTS=
Number of sample scans: 32
Collection length: 51.16 sec
Sample gain: 2.0
Background collected on: Mar Sep 20 13:32:44 2011 (GMT+02:00);
Number of background scans: 32
Background gain: 2.0
Sample spacing:  1.000
Number of scan points: 12415
Resolution points: 8192
Number of FFT points: 65536
Apodization: N-B fort;
Phase correction: Mertz;
Laser frequency: 15798.0 cm-1
Number of rejected sample scans: 0
Number of rejected background scans: 0
Bench serial number: ASB1000141;
##RESOLUTION=4.000
##XUNITS=1/CM
##YUNITS=ABSORBANCE
##FIRSTX=649.893372
##LASTX=4000.122314
##FIRSTY=0.059836
##MAXX=4000.122314
##MINX=649.893372
##MAXY=0.329345
##MINY=0.002716
##XFACTOR=1.000000
##YFACTOR=1.000000E-009
##NPOINTS=6950
##DELTAX=0.482117
##ZPD=6100
##XYDATA=(X++(Y..Y))
649.893 59836408 60511064 61179980 61853176 62539816 63244448 63966460 
653.268 64706096 65471612 66284060 67173640 68173184 69310240 70599512 
656.643 72048152 73662376 75455488 77453248 79690232 82198928 85006360 
660.018 88127848 91565544 95304776 99299696 103457872 107613784 111542304 
663.393 115003688 117767928 119678072 120646272 120616224 119535328 
666.285 117344368 114041472 109782880 104986560 100266880 96162696 92934864 
669.660 90537768 88765800 87385800 86216896 85155288 84158560 83231128 
673.035 82397152 81684064 81106416 80664736 80350384 80153960 80071280 
676.410 80105664 80265752 80560904 80998000 81577976 82296352 83146176 
679.785 84122560 85227776 86473944 87880536 89471824 91271088 93295632 
683.159 95561112 98087408 100905200 104067224 107645416 111719384 116374904 
686.534 121688816 127727344 134553552 142223376 150770080 160157152 
689.427 170216512 180563712 190504800 199115296 205282768 207907728 
692.320 206248656 200062112 189738720 176185472 160690736 144660480 
695.212 129305736 115631496 104271648 95479568 89237296 85304424 83339544 
698.587 82968376 83889096 85914976 88966568 93038296 98108008 104019304 
701.962 110417288 116693136 122010352 125527952 126532584 124663504 
704.855 120028256 113175264 104961536 96278896 87954936 80567200 74386832 
708.229 69453832 65631488 62715188 60489504 58784784 57484064 56500112 
711.604 55766884 55226560 54826432 54531244 54326548 54215944 54211552 
714.979 54320020 54532444 54824628 55163616 55518984 55874456 56227388 
718.354 56585332 56956632 57344292 57743456 58146964 58551040 58961412 
721.729 59392192 59863180 60390076 60980024 61630496 62331316 63069432 
725.104 63830764 64600856 65362520 66091268 66760420 67344280 67829704 
728.478 68224984 68564976 68906832 69312528 69838416 70516912 71350504 
731.853 72318080 73386752 74529448 75732384 77001136 78352688 79806248 
735.228 81372168 83048760 84827360 86702376 88681584 90792160 93073600 
738.603 95571264 98322744 101349104 104657776 108249792 112131832 116326264 
741.978 120874072 125831184 131272032 137294496 144027344 151656608 
744.870 160409104 170505664 182077776 195024144 208875984 222619664 
747.763 234801104 243677600 247583536 245587040 237809264 225537616 
750.656 210751952 195735040 182543104 172545360 166491648 164428576 
753.548 165858464 169868464 175350224 181256640 186631360 190793504 
756.441 193350448 194119296 193076032 190267360 185759840 179628256 
759.334 171979200 162998048 152968208 142290128 131473168 121037304 
762.227 111499808 103305312 96738120 91933896 88845480 87273984 86892680 
765.601 87311656 88161992 89098840 89859600 90274104 90241512 89734424 
768.976 88784544 87478600 85942160 84324696 82786240 81457096 80424944 
772.351 79725864 79347744 79249904 79386248 79725184 80252272 80964944 
775.726 81860416 82924936 84132456 85452768 86861432 88348344 89919016 
779.101 91584816 93352280 95213720 97145000 99114000 101090376 103053320 
782.475 104993776 106908656 108790728 110622456 112373488 114004848 
785.368 115481128 116774248 117866672 118748560 119409112 119831208 
788.261 119992312 119865968 119431976 118683368 117627728 116284816 
791.154 114678152 112830816 110760296 108481800 106013576 103380632 
794.046 100614496 97751064 94819080 91837976 88818080 85766560 82698848 
797.421 79647840 76660208 73795600 71111816 68649296 66430412 64457544 
800.796 62721276 61208020 59904524 58797908 57869236 57091788 56432376 
804.171 55853656 55325116 54828684 54358584 53918284 53513808 53148392 
807.546 52821296 52532704 52290640 52113828 52033664 52088388 52311648 
810.920 52728024 53345860 54155924 55129608 56216340 57344668 58411192 
814.295 59291192 59855500 59981092 59588340 58658736 57244252 55455620 
817.670 53439304 51354436 49329968 47457016 45786800 44334068 43095064 
821.045 42056656 41202884 40513348 39962092 39519916 39156512 38847972 
824.420 38582924 38360892 38188100 38069484 38002648 37976320 37975056 
827.794 37985180 38001852 38029480 38079104 38160096 38275372 38419348 
831.169 38581620 38752396 38927696 39110788 39308976 39528336 39769632 
834.544 40027736 40294980 40567292 40847312 41144528 41470704 41834848 
837.919 42238776 42677620 43143696 43632768 44148212 44700916 45304416 
841.294 45970152 46703132 47501924 48362520 49283532 50269924 51331724 
844.669 52480244 53720328 55046400 56440072 57874308 59313180 60714920 
848.043 62034460 63215620 64195528 64911276 65303788 65337604 65012404 
851.418 64369724 63488440 62471288 61432088 60466084 59642768 59002100 
854.793 58553504 58286620 58177196 58196480 58311856 58490304 58704592 
858.168 58932912 59164504 59400436 59650944 59931108 60254276 60630332 
861.543 61063652 61556496 62111752 62733220 63422212 64169600 64949600 
864.917 65713964 66390680 66900128 67162000 67111264 66714792 65973848 
868.292 64926824 63638144 62195980 60699716 59244060 57921860 56811216 
871.667 55966904 55424864 55198828 55286164 55677344 56363900 57344856 
875.042 58630976 60242324 62205692 64548908 67291080 70431336 73930952 
878.417 77703536 81593696 85369192 88758328 91453544 93170744 93719192 
881.792 93025120 91170280 88368200 84950632 81295920 77754496 74641376 
885.166 72179712 70500192 69665128 69673064 70480472 72005952 74140536 
888.541 76740032 79609672 82522952 85208464 87365864 88724592 89057232 
891.916 88231888 86242480 83211504 79375792 75025808 70487960 66055784 
895.291 61944040 58296508 55170500 52559704 50418528 48685748 47300556 
898.666 46204220 45346452 44680940 44163356 43757496 43435236 43178020 
902.040 42977296 42827964 42724120 42656856 42613288 42581196 42553352 
905.415 42529812 42516552 42521372 42549148 42598412 42662380 42731980 
908.790 42801268 42870492 42945288 43033672 43141096 43268244 43410996 
912.165 43563312 43721764 43887132 44064516 44259840 44475696 44710024 
915.540 44956092 45207152 45459680 45716260 45983968 46271516 46584272 
918.914 46921204 47275804 47639416 48005736 48373776 48748100 49136244 
922.289 49546204 49983616 50452580 50958748 51510720 52121036 52801804 
925.664 53557660 54377848 55230736 56068416 56828212 57447072 57878096 
929.039 58095300 58103368 57933600 57641400 57293892 56957616 56697372 
932.414 56564192 56593180 56805176 57205244 57785316 58525716 59398348 
935.789 60366736 61384228 62400512 63361092 64214580 64926320 65482788 
939.163 65900728 66223472 66518568 66863336 67326288 67962352 68801336 
942.538 69847720 71084816 72480216 73990736 75559488 77120120 78596904 
945.913 79902536 80953840 81677984 82021232 81962528 81513056 80716008 
949.288 79634432 78347096 76939544 75489784 74073768 72756752 71587176 
952.663 70599664 69809384 69214248 68799352 68543520 68426168 68429848 
956.037 68543016 68757432 69065288 69457880 69925976 70460480 71056360 
959.412 71712616 72432536 73220312 74080208 75014232 76024112 77113944 
962.787 78293488 79578864 80993808 82564584 84314520 86261472 88413280 
966.162 90767976 93315312 96041448 98934912 101991448 105219456 108640320 
969.537 112286720 116189160 120361992 124780648 129369360 133983824 
972.429 138409696 142401824 145694752 148055344 149340848 149518512 
975.322 148692144 147074304 144978528 142755040 140725776 139176640 
978.215 138296960 138163952 138738880 139866688 141298272 142696224 
981.108 143709168 144005792 143315760 141495408 138533344 134555136 
984.000 129781560 124501104 119021776 113608208 108487120 103821264 99701312 
987.375 96166704 93208768 90787824 88843320 87309392 86124768 85232208 
990.750 84584608 84142712 83870488 83736824 83715088 83782872 83925152 
994.125 84132736 84400504 84725256 85102600 85525672 85986136 86476088 
997.500 86989584 87524352 88081264 88661712 89266752 89894888 90542952 
1000.874 91207768 91886976 92580752 93290992 94020256 94770112 95540800 
1004.249 96331672 97143128 97977416 98839752 99736288 100673352 101654280 
1007.624 102678856 103743544 104843080 105972976 107130288 108314328 
1010.517 109525224 110763032 112026584 113314472 114625944 115962728 
1013.409 117330120 118736928 120194680 121714952 123309176 124986936 
1016.302 126756472 128625584 130601344 132690352 134898208 137228560 
1019.195 139682560 142257744 144947808 147738752 150604976 153507168 
1022.087 156383264 159148336 161704208 163937760 165743664 167044944 
1024.980 167802656 168032624 167801872 167226240 166443072 165591312 
1027.873 164800576 164160992 163720768 163477488 163378464 163320832 
1030.766 163154032 162708016 161792736 160225296 157866912 154627600 
1033.659 150493024 145526512 139868704 133721232 127311944 120894072 
1036.552 114699944 108914648 103678544 99062512 95078008 91691120 88840112 
1039.928 86452632 84454872 82785040 81389632 80221632 79243064 78420040 
1043.303 77725408 77140696 76653448 76255808 75941776 75703712 75532600 
1046.678 75419144 75356672 75343312 75381616 75476136 75629008 75836024 
1050.053 76083488 76349776 76607560 76826112 76977680 77038888 76993224 
1053.429 76834384 76567320 76210984 75795272 75361904 74957800 74624528 
1056.804 74397488 74297808 74333232 74501632 74794816 75201968 75707896 
1060.179 76291192 76921152 77551440 78125360 78582296 78861272 78917656 
1063.554 78727160 78289720 77628408 76784480 75812552 74768600 73709880 
1066.930 72688752 71744968 70908408 70194944 69607832 69141936 68788256 
1070.305 68539368 68390984 68342392 68394048 68543952 68786504 69112416 
1073.680 69511192 69973360 70493416 71068216 71695608 72372360 73092472 
1077.055 73849800 74639568 75462816 76327728 77249784 78249448 79346672 
1080.431 80561336 81911232 83412808 85085992 86954648 89045064 91387824 
1083.806 94011496 96940088 100191008 103770896 107671656 111863696 116294472 
1087.181 120883264 125519008 130080176 134438512 138476272 142109056 
1090.074 145283568 147977856 150187664 151907616 153115936 153772752 
1092.967 153826992 153244816 152038272 150292336 148171792 145900736 
1095.860 143756624 142008032 140880384 140540224 141055456 142393760 
1098.753 144411040 146876768 149474992 151823760 153548368 154289648 
1101.646 153761616 151808448 148406320 143674528 137835744 131196944 
1104.540 124094112 116836680 109713944 102953144 96709312 91083592 86114960 
1107.915 81796448 78089616 74938984 72282072 70053512 68192800 66641888 
1111.290 65343500 64247504 63307964 62485824 61752936 61088400 60477852 
1114.665 59912356 59385128 58892348 58432756 58008876 57626488 57292188 
1118.041 57012472 56790372 56625264 56513544 56450564 56433356 56461056 
1121.416 56534492 56654260 56819488 57027584 57274196 57556196 57872756 
1124.791 58226184 58621116 59062112 59552576 60094280 60687940 61335380 
1128.166 62040732 62810176 63650684 64566480 65557032 66614972 67727184 
1131.542 68876808 70043664 71207176 72346184 73437560 74459312 75391312 
1134.917 76218640 76937568 77557816 78105048 78615688 79135824 79714312 
1138.292 80393480 81211672 82198568 83374752 84755256 86347600 88152088 
1141.667 90160032 92354288 94709496 97190256 99753832 102350176 104916016 
1145.042 107380664 109662112 111665312 113296280 114461392 115077016 
1147.936 115084960 114452592 113179264 111292296 108844992 105909376 
1150.829 102565464 98904904 95022584 91007512 86948288 82921048 78986728 
1154.204 75197112 71591160 68198768 65045656 62149832 59522288 57165936 
1157.579 55075176 53238160 51638848 50260624 49085900 48095748 47269780 
1160.954 46583240 46008684 45520204 45093844 44711824 44363720 44044056 
1164.330 43750276 43481232 43235156 43011060 42809864 42635036 42492656 
1167.705 42389184 42329680 42316312 42348160 42423196 42540228 42700212 
1171.080 42905748 43159724 43462920 43813128 44205764 44635988 45101308 
1174.455 45603372 46147912 46742428 47393524 48105556 48880236 49717780 
1177.831 50619488 51588064 52627172 53738404 54918092 56154720 57428544 
1181.206 58715552 59990604 61231940 62426104 63567520 64659452 65712384 
1184.581 66743612 67776176 68835808 69950856 71146400 72438368 73829688 
1187.956 75305512 76834064 78365392 79839976 81195528 82369040 83308552 
1191.332 83974760 84341792 84399136 84148544 83601240 82773608 81684904 
1194.707 80355408 78804976 77058304 75148976 73120784 71034624 68963176 
1198.082 66977596 65144500 63508032 62083544 60859248 59802108 58870716 
1201.457 58024060 57233176 56483848 55774720 55113844 54513548 53987388 
1204.833 53546828 53201120 52956476 52814340 52771008 52817780 52943604 
1208.208 53136520 53387636 53692620 54051516 54467084 54942268 55478700 
1211.583 56076448 56735620 57457664 58246984 59109680 60052732 61081764 
1214.958 62199572 63407488 64706752 66101036 67598056 69209112 70948008 
1218.333 72829240 74865872 77070536 79456424 82038000 84833232 87861800 
1221.709 91141792 94687776 98505448 102589336 106917976 111452744 116136168 
1225.084 120881592 125577720 130084872 134225392 137807536 140627424 
1227.977 142484928 143226224 142754256 141053888 138194688 134328576 
1230.870 129672392 124466152 118974488 113452776 108115256 103148472 
1233.763 98686224 94806216 91546152 88904112 86853544 85350680 84344528 
1237.138 83780584 83600072 83746912 84167976 84812856 85640792 86616376 
1240.514 87706672 88880448 90099688 91318016 92485624 93547408 94453128 
1243.889 95165744 95663432 95943952 96022552 95930272 95708784 95405352 
1247.264 95074832 94771344 94544160 94435504 94471000 94657240 94981344 
1250.639 95415384 95921840 96459456 96994016 97498704 97958184 98369448 
1254.015 98741000 99093056 99454280 99862784 100360048 100982792 101760320 
1257.390 102705680 103813392 105057072 106392832 107762904 109093392 
1260.283 110304368 111311392 112024312 112362072 112254232 111647776 
1263.176 110517784 108867608 106729072 104154048 101211960 97982016 94544032 
1266.551 90984952 87393496 83850912 80436624 77216016 74235264 71526696 
1269.927 69107864 66985988 65163060 63636108 62397224 61431248 60716940 
1273.302 60229076 59940392 59828344 59875464 60069660 60402796 60866948 
1276.677 61453236 62152544 62956200 63859320 64862108 65969148 67187448 
1280.052 68524200 69985656 71577216 73305816 75181440 77217472 79428336 
1283.427 81825448 84410208 87169688 90070408 93062440 96078488 99036408 
1286.803 101854192 104448568 106742840 108676704 110202936 111290328 
1289.696 111923808 112099192 111819368 111087616 109904144 108264672 
1292.589 106165152 103609816 100622136 97251888 93583456 89726816 85808184 
1295.964 81969168 78342056 75048696 72199784 69877952 68142248 67021704 
1299.339 66512196 66578580 67158096 68174736 69539192 71158616 72947392 
1302.715 74816504 76679112 78453504 80054784 81405936 82443792 83117848 
1306.090 83397800 83271512 82743224 81833688 80583152 79062568 77371632 
1309.465 75644400 74042408 72717152 71793168 71332152 71310400 71611440 
1312.840 72039432 72373504 72391816 71934232 70936880 69432256 67537000 
1316.216 65409132 63226588 61140120 59252752 57622328 56260092 55148716 
1319.591 54257164 53556312 53023484 52642396 52401172 52287988 52289672 
1322.966 52393208 52587716 52865044 53220372 53649392 54145148 54697208 
1326.341 55290604 55908332 56534720 57156484 57764460 58352972 58917620 
1329.717 59455072 59963020 60440608 60890544 61319352 61737048 62154268 
1333.092 62580688 63022508 63482836 63962504 64462388 64984424 65532832 
1336.467 66112340 66726692 67377480 68064152 68784832 69538880 70327848 
1339.842 71155448 72027496 72948448 73920496 74943192 76014960 77134448 
1343.218 78302448 79523312 80803912 82152880 83578344 85086680 86681504 
1346.593 88364224 90134344 91990856 93932872 95958784 98065856 100248768 
1349.968 102498632 104802968 107149448 109526976 111931480 114367944 
1352.861 116852072 119407552 122062528 124848400 127793696 130924448 
1355.754 134262528 137819632 141591344 145545600 149620544 153716528 
1358.647 157702976 161450464 164838976 167790176 170281776 172345648 
1361.540 174054080 175490896 176741152 177868688 178913056 179898880 
1364.433 180838224 181736528 182594096 183408080 184175840 184903360 
1367.326 185613088 186350464 187183920 188187376 189431408 190968896 
1370.219 192828384 195022128 197554448 200432192 203664592 207257152 
1373.113 211201152 215461008 219978144 224689024 229548592 234550624 
1376.006 239723392 245109552 250724464 256522096 262362416 268028768 
1378.899 273242816 277688768 281072736 283116160 283565088 282231072 
1381.792 279012128 273957536 267279712 259339728 250550064 241239440 
1384.685 231615280 221721536 211495152 200856144 189805200 178471952 
1387.578 167098672 155966864 145317424 135320032 126065072 117599968 
1390.471 109963856 103178144 97252672 92171896 87885896 84321480 81395344 
1393.846 79037528 77185888 75783672 74772776 74075296 73604472 73284824 
1397.221 73064208 72935480 72936968 73148344 73661552 74552616 75869760 
1400.597 77624688 79807160 82395520 85361768 88657976 92189920 95812176 
1403.972 99308240 102403944 104829416 106344696 106794536 106136080 
1406.865 104428424 101816944 98490808 94677600 90610792 86504112 82564184 
1410.240 78954456 75784784 73115840 70957408 69288592 68075856 67290464 
1413.615 66911608 66919916 67291472 67989360 68964456 70172664 71580576 
1416.991 73177920 74978552 77005768 79271264 81751888 84389072 87106760 
1420.366 89842400 92568944 95292896 98034960 100802264 103567792 106261832 
1423.741 108766424 110950744 112698208 113924208 114586048 114661928 
1426.634 114131176 112970040 111161568 108721600 105714184 102264920 
1429.527 98540992 94710360 90929640 87323936 83983800 80982232 78368720 
1432.903 76164264 74364064 72935088 71830504 71003448 70429000 70113048 
1436.278 70085168 70374672 70981984 71865176 72954720 74173752 75454776 
1439.653 76751176 78026840 79252568 80405208 81460848 82399400 83208776 
1443.028 83884832 84432664 84862000 85183144 85401864 85517880 85528368 
1446.404 85435464 85254344 85020904 84785224 84599904 84504944 84514120 
1449.779 84617824 84794448 85026960 85312208 85663384 86100984 86640968 
1453.154 87282168 88006184 88777960 89558024 90314528 91025288 91683144 
1456.529 92289536 92847296 93348704 93776312 94112544 94350552 94499008 
1459.905 94581232 94628272 94672200 94740480 94851560 95017424 95247712 
1463.280 95553600 95949944 96453048 97075008 97823856 98705152 99726824 
1466.655 100906912 102270040 103839992 105632072 107645712 109867448 
1469.548 112267712 114813656 117469024 120178992 122864736 125410688 
1472.441 127668800 129492032 130764600 131417440 131427032 130795688 
1475.334 129547176 127729800 125424672 122742120 119796848 116693008 
1478.227 113498048 110239368 106923744 103553880 100145104 96738328 93389744 
1481.603 90157216 87088616 84209360 81524408 79026112 76700184 74532352 
1484.978 72510640 70626176 68875808 67263376 65799512 64499096 63376352 
1488.353 62439268 61687132 61112964 60709396 60471224 60396548 60481244 
1491.728 60712712 61067272 61513240 62013940 62537900 63064992 63586964 
1495.104 64108880 64641608 65191240 65748856 66287300 66767260 67151320 
1498.479 67413080 67545056 67558792 67482312 67354648 67216344 67108012 
1501.854 67061336 67094476 67210848 67396864 67624192 67848648 68022024 
1505.229 68105040 68087600 68005480 67934184 67957504 68118064 68407080 
1508.604 68779864 69185536 69581928 69943224 70261000 70538504 70787136 
1511.980 71021040 71254408 71497480 71755056 72026096 72304928 72584568 
1515.355 72860000 73134240 73421072 73744672 74129176 74588296 75117616 
1518.730 75694760 76284592 76849048 77364584 77833008 78289560 78784280 
1522.105 79361704 80034184 80778656 81549832 82299752 82995288 83620520 
1525.481 84181608 84699160 85200280 85706576 86230400 86779368 87361608 
1528.856 87989792 88680488 89447240 90293808 91211032 92183208 93195472 
1532.231 94245696 95351784 96550320 97881592 99364584 100992200 102733336 
1535.606 104553808 106423568 108327208 110270120 112267280 114348632 
1538.500 116553968 118929520 121512752 124315864 127332296 130527808 
1541.393 133862944 137314864 140875664 144552176 148350528 152259904 
1544.286 156236224 160196976 164044208 167677216 171015168 174004784 
1547.179 176592000 178708800 180275616 181207040 181460848 181069472 
1550.072 180147232 178842176 177269152 175473968 173427440 171072112 
1552.965 168388480 165445840 162411776 159509936 156913536 154689008 
1555.858 152767424 150978208 149086848 146857840 144140144 140948992 
1558.751 137527792 134262080 131480528 129291624 127608792 126251640 
1561.644 125043232 123842720 122533736 121029120 119274392 117263664 
1564.537 115047432 112721144 110395920 108142416 105968328 103811880 
1567.430 101570176 99134648 96440384 93505328 90438280 87406512 84565008 
1570.805 82010184 79758264 77769872 75982040 74334096 72776616 71272136 
1574.181 69795224 68338320 66930048 65646708 64606004 63936784 63726196 
1577.556 64000628 64738900 65900840 67455264 69393696 71730632 74493296 
1580.931 77706976 81381160 85494968 89988184 94763432 99667176 104495864 
1584.306 109015912 112958656 116072968 118161168 119088584 118814464 
1587.199 117391464 114976656 111812600 108212416 104540912 101132360 
1590.093 98275248 96186304 94987120 94730672 95410512 96980800 99365256 
1593.468 102466528 106181104 110385160 114944584 119725560 124587440 
1596.361 129404544 134075432 138510224 142627056 146335840 149519968 
1599.254 152051056 153806128 154689952 154666352 153760144 152053936 
1602.147 149660768 146718976 143383520 139806384 136144496 132539272 
1605.040 129092336 125867872 122884696 120128608 117569432 115178040 
1607.933 112938584 110845952 108901744 107104544 105444912 103907872 
1610.826 102480248 101156416 99940944 98842712 97865656 96998408 96209752 
1614.201 95449560 94663056 93805464 92866864 91889072 90963752 90199872 
1617.577 89674664 89413320 89386984 89540192 89810696 90149920 90529520 
1620.952 90940584 91393096 91910928 92526912 93271976 94168272 95226136 
1624.327 96442000 97803144 99291000 100884304 102557704 104281176 106025672 
1627.702 107762648 109470784 111139224 112767144 114360488 115927984 
1630.595 117479184 119025128 120580800 122165624 123806936 125540960 
1633.489 127412800 129477800 131797152 134433776 137425296 140775952 
1636.382 144460304 148429088 152644688 157094240 161787840 166751840 
1639.275 172015536 177605680 183527632 189763792 196280544 203023808 
1642.168 209933312 216958224 224042864 231147760 238258624 245384176 
1645.061 252567504 259866096 267329312 274931520 282556416 290024128 
1647.954 297145568 303788320 309889920 315441792 320403296 324622048 
1650.847 327789952 329345344 328551904 324806784 318139520 309513536 
1653.740 300347424 291697536 283827104 276456672 269118240 261443312 
1656.633 253248576 244537488 235439104 226133920 216799376 207526000 
1659.526 198325600 189153152 179941088 170644736 161273952 151908656 
1662.419 142698608 133841064 125533880 117932696 111114576 105069352 
1665.312 99724112 94964400 90665208 86718800 83055064 79653808 76548352 
1668.688 73807968 71509392 69702664 68394824 67550472 67108704 67008176 
1672.063 67197232 67639480 68317616 69230840 70396376 71844264 73606792 
1675.438 75700952 78114880 80819800 83787008 87005696 90489248 94264592 
1678.813 98354904 102749960 107403496 112245096 117199736 122240352 
1681.706 127408400 132814776 138614576 144942032 151812672 159023776 
1684.599 166190816 172890656 178816720 183818192 187839024 190859360 
1687.492 192840624 193743200 193547888 192260560 189923920 186613648 
1690.385 182450128 177599424 172261648 166657104 160949744 155199888 
1693.279 149342864 143196448 136546480 129295112 121614184 113980080 
1696.172 107003520 101115472 96415192 92683896 89557944 86657672 83726056 
1699.547 80720992 77830232 75363288 73533976 72326648 71529392 70875216 
1702.922 70117176 69082648 67663712 65803400 63498944 60799028 57801896 
1706.297 54631332 51417616 48279156 45299044 42528172 39979888 37634904 
1709.673 35457804 33416144 31497064 29712614 28090084 26650452 25394136 
1713.048 24291004 23291482 22342878 21414858 20510180 19658030 18892952 
1716.423 18231454 17658122 17137830 16639678 16160840 15730523 15388091 
1719.798 15157084 15029363 14969341 14927948 14865334 14763580 14635495 
1723.174 14512655 14430679 14405298 14425472 14459179 14472539 14447874 
1726.549 14389680 14319198 14259993 14223084 14200488 14170772 14113128 
1729.924 14022022 13911124 13806412 13728502 13680593 13641477 13575971 
1733.299 13452816 13272435 13074544 12920502 12852955 12872613 12944157 
1736.675 13018718 13056037 13034560 12958837 12853671 12753615 12682443 
1740.050 12642427 12615172 12577311 12514217 12428662 12335726 12252489 
1743.425 12185727 12127460 12059218 11963058 11833481 11680661 11525853 
1746.800 11388617 11277676 11184408 11089053 10970271 10820268 10649059 
1750.176 10481924 10345119 10252764 10200996 10173352 10151914 10128207 
1753.551 10105009 10091884 10095513 10113589 10133565 10138042 10115726 
1756.926 10069571 10017045 9980054 9974087 9998769 10038882 10070927 
1760.301 10076149 10050445 10007720 9973409 9969883 10005143 10068858 
1763.677 10140416 10199673 10238142 10259413 10275325 10296768 10327610 
1767.052 10361068 10385297 10390999 10378374 10357878 10344135 10345933 
1770.427 10360728 10373827 10366802 10329578 10269489 10209986 10177150 
1773.802 10186851 10234953 10302671 10365377 10406542 10423103 10425174 
1777.177 10428737 10446182 10478224 10513696 10535897 10533045 10506228 
1780.553 10470654 10447438 10451443 10484062 10531755 10575142 10597618 
1783.928 10595446 10578605 10566315 10573954 10606581 10655274 10705023 
1787.303 10742653 10764357 10776618 10790817 10815920 10851453 10886548 
1790.678 10905099 10896877 10863786 10822985 10797169 10803283 10842247 
1794.054 10900648 10958377 11000380 11023490 11035793 11050747 11078618 
1797.429 11120292 11166016 11201612 11215892 11208752 11191208 11181417 
1800.804 11192773 11228065 11277506 11326205 11361610 11381406 11393345 
1804.179 11410421 11442738 11491046 11547051 11598162 11635427 11657924 
1807.555 11674330 11696863 11735260 11789730 11851902 11909077 11953078 
1810.930 11984958 12015308 12057652 12120543 12202903 12294037 12379873 
1814.305 12451302 12508555 12562031 12625951 12710044 12814254 12927772 
1817.680 13035687 13125733 13195440 13251631 13305745 13364854 13427594 
1821.056 13482481 13515090 13514918 13480328 13419734 13346915 13275476 
1824.431 13212143 13156333 13103980 13052656 13005129 12968020 12946445 
1827.806 12939686 12938354 12928762 12898348 12845377 12780880 12725671 
1831.181 12698342 12705950 12741025 12786134 12822888 12840122 12839166 
1834.557 12831761 12832921 12852203 12887802 12928250 12960100 12975564 
1837.932 12978090 12980856 12999872 13044564 13112278 13189053 13256482 
1841.307 13300313 13315755 13308717 13291669 13277867 13274143 13279849 
1844.682 13290508 13304310 13325049 13360686 13416726 13492462 13578364 
1848.058 13660761 13727271 13773680 13806446 13839352 13885979 13951737 
1851.433 14031261 14111075 14178202 14226542 14261055 14294371 14340362 
1854.808 14404955 14482611 14558841 14618703 14653692 14666785 14669423 
1858.183 14674976 14690843 14714391 14735197 14741950 14730432 14706816 
1861.559 14685017 14678677 14694682 14728582 14767830 14798649 14813700 
1864.934 14815517 14814557 14821790 14841367 14867700 14888376 14892422 
1868.309 14878569 14858647 14853470 14882066 14950856 15050459 15159898 
1871.684 15258381 15332173 15379716 15409204 15432447 15456343 15479313 
1875.060 15492774 15488206 15463279 15425992 15391387 15373536 15379509 
1878.435 15404741 15436739 15461322 15472103 15472447 15473992 15488996 
1881.810 15522820 15570761 15621077 15662055 15688816 15707195 15730523 
1885.185 15771855 15836179 15917012 15999235 16067859 16114451 16142167 
1888.561 16163867 16195439 16247444 16319409 16402878 16487222 16566284 
1891.936 16641950 16721316 16810924 16911642 17016626 17114152 17194740 
1895.311 17257174 17310238 17368720 17444942 17542670 17655084 17769462 
1898.686 17873372 17962872 18043896 18129426 18231556 18353690 18489272 
1902.062 18624722 18747418 18851112 18938948 19019458 19100610 19182088 
1905.437 19254574 19303484 19317478 19294132 19243074 19181082 19125124 
1908.812 19084476 19058198 19038222 19017174 18994432 18978406 18982560 
1912.187 19016898 19083160 19171766 19268118 19357524 19433750 19499418 
1915.563 19563986 19635738 19716726 19801510 19881524 19951284 20014288 
1918.938 20081606 20166218 20273862 20399142 20525602 20633616 20711108 
1922.313 20758234 20790072 20827196 20887442 20974610 21078248 21179824 
1925.688 21264162 21326766 21376360 21428956 21497780 21585560 21682584 
1929.063 21771760 21838478 21880050 21907786 21941730 21999342 22087780 
1932.439 22199462 22318006 22426640 22517086 22593132 22666296 22746978 
1935.814 22836372 22925156 22998306 23044074 23061508 23061440 23062206 
1939.189 23078944 23115846 23163584 23204722 23224574 23218424 23195388 
1942.564 23172216 23163408 23173090 23192732 23206958 23204160 23183994 
1945.940 23158166 23143522 23151736 23182142 23221254 23250510 23256802 
1949.315 23241212 23219612 23215592 23246560 23315358 23408086 23502442 
1952.690 23579294 23630862 23665290 23698180 23742308 23798656 23854206 
1956.065 23889702 23892222 23862816 23818956 23785392 23783222 23816822 
1959.441 23872828 23928108 23963260 23974638 23975620 23988120 24029264 
1962.816 24102006 24192906 24280180 24346478 24389760 24424950 24474200 
1966.191 24554132 24665394 24789878 24902080 24980828 25021294 25035370 
1969.566 25044390 25064294 25095218 25122112 25123270 25084722 25009256 
1972.942 24919448 24844748 24809768 24820854 24864536 24916642 24958752 
1976.317 24986652 25012836 25055448 25125798 25217542 25309974 25377064 
1979.692 25403200 25391396 25361854 25341270 25348330 25386268 25442548 
1983.067 25498166 25538260 25561314 25578324 25606510 25656560 25726130 
1986.443 25799858 25859848 25893574 25903316 25903248 25913130 25945876 
1989.818 26000820 26064250 26117700 26148876 26159222 26162916 26178366 
1993.193 26218312 26281950 26356126 26423376 26471126 26499196 26518778 
1996.568 26543152 26581156 26629596 26676490 26706790 26713238 26701892 
1999.944 26688044 26689454 26713556 26753444 26789318 26801056 26777478 
2003.319 26725324 26665848 26625826 26623220 26657780 26710948 26756368 
2006.694 26773776 26757498 26720286 26681738 26659470 26657074 26664404 
2010.069 26664474 26646470 26611066 26570942 26543398 26539416 26558050 
2013.445 26586900 26609868 26616876 26609938 26601272 26605922 26629948 
2016.820 26667750 26703796 26722012 26715706 26693788 26676100 26684908 
2020.195 26731562 26811312 26904646 26988660 27046876 27076886 27088136 
2023.570 27095858 27110882 27133136 27154688 27165870 27164460 27157616 
2026.946 27159274 27180578 27222098 27270818 27307654 27315664 27291248 
2030.321 27247568 27208728 27197580 27223756 27278756 27342410 27392134 
2033.696 27414544 27412638 27400146 27393650 27401452 27419414 27435190 
2037.071 27436884 27420826 27395168 27373500 27367854 27379570 27397638 
2040.447 27404414 27385674 27338918 27277064 27220442 27186716 27182026 
2043.822 27197404 27214124 27213560 27188692 27147740 27110248 27095718 
2047.197 27114974 27164106 27227848 27287296 27329108 27350986 27360160 
2050.572 27366760 27377028 27392064 27408014 27421956 27436004 27458380 
2053.948 27498902 27564316 27651884 27750310 27842578 27915500 27965040 
2057.323 27997094 28025224 28061734 28112282 28172912 28232560 28279412 
2060.698 28307598 28319164 28322382 28325212 28331860 28339924 28342790 
2064.073 28335502 28319058 28301516 28294620 28307704 28342328 28390610 
2067.448 28440240 28479262 28502118 28511672 28516128 28524160 28538846 
2070.824 28556998 28570728 28574056 28565950 28552150 28541748 28542242 
2074.199 28554840 28573524 28587396 28587536 28571118 28542774 28512238 
2077.574 28488992 28477422 28475442 28476502 28473990 28465748 28454108 
2080.949 28444982 28442114 28444628 28445864 28437480 28412682 28371332 
2084.325 28319836 28269192 28229376 28205298 28195150 28192428 28189742 
2087.700 28182740 28170826 28156296 28140776 28123454 28100404 28067532 
2091.075 28024236 27975042 27929316 27896632 27883840 27890272 27909104 
2094.450 27930836 27947336 27957090 27963520 27972814 27989036 28010522 
2097.826 28030596 28041270 28037276 28020172 27996314 27975358 27963026 
2101.201 27958220 27953910 27940304 27910942 27865612 27811172 27757728 
2104.576 27714354 27683772 27663256 27646728 27629602 27612160 27599130 
2107.951 27596836 27608840 27633238 27662760 27687938 27702664 27706798 
2111.327 27706092 27708458 27719336 27738054 27758540 27772208 27773056 
2114.702 27760694 27740740 27721456 27708706 27703372 27700864 27694966 
2118.077 27681300 27661276 27641256 27629708 27631932 27646550 27665550 
2121.452 27677662 27674096 27651320 27614030 27570250 27528802 27494314 
2124.828 27466076 27440556 27414966 27389416 27368136 27356138 27356242 
2128.203 27366618 27381264 27393370 27398768 27399580 27403180 27417720 
2131.578 27447756 27491418 27540206 27584336 27617102 27638712 27656368 
2134.953 27679464 27713472 27756740 27799480 27831200 27844556 27840810 
2138.329 27828658 27820074 27823358 27838726 27858934 27872076 27870628 
2141.704 27853634 27828588 27805766 27794286 27795946 27805836 27815904 
2145.079 27821168 27821592 27823358 27832614 27850348 27869780 27878860 
2148.454 27865858 27826644 27768184 27705844 27657004 27631368 27626954 
2151.830 27630308 27624412 27595564 27540910 27466144 27382746 27299256 
2155.205 27217336 27131550 27039540 26946070 26870454 26841552 26884696 
2158.580 27009956 27204178 27434414 27659688 27848760 27988188 28082236 
2161.955 28145158 28191014 28226688 28251936 28262332 28257522 28243380 
2165.331 28230226 28228034 28239066 28256392 28266400 28257384 28224002 
2168.706 28172062 28113838 28061840 28022646 27992568 27961154 27919562 
2172.081 27865752 27808840 27765674 27751228 27772562 27822406 27881580 
2175.456 27927372 27943166 27924438 27878224 27817812 27756244 27699346 
2178.832 27646480 27594504 27542676 27494984 27460886 27447296 27455204 
2182.207 27476098 27495938 27501408 27485346 27450932 27409214 27372900 
2185.582 27349256 27337930 27331296 27321134 27302926 27279676 27258718 
2188.957 27247888 27249544 27258754 27265138 27259106 27236174 27200756 
2192.333 27162096 27129470 27107180 27091768 27075720 27050612 27013976 
2195.708 26970432 26928830 26896786 26876130 26860550 26839930 26805002 
2199.083 26754784 26696888 26645906 26616524 26616244 26642772 26686072 
2202.458 26733922 26777690 26816246 26854522 26899006 26952732 27012354 
2205.833 27069340 27114726 27143612 27158252 27165834 27175392 27192820 
2209.209 27218642 27248416 27276640 27301444 27324590 27351126 27385852 
2212.584 27428626 27474122 27515142 27544724 27562128 27571874 27582642 
2215.959 27601990 27631614 27666186 27696310 27712238 27709128 27688538 
2219.334 27657358 27623422 27591044 27560116 27526296 27486158 27439108 
2222.710 27389416 27343682 27307408 27281226 27260306 27237056 27204882 
2226.085 27163224 27117406 27076920 27049766 27039048 27040670 27046028 
2229.460 27045748 27034112 27012108 26984746 26957528 26933978 26912438 
2232.835 26888432 26857448 26818324 26774130 26731384 26696008 26670076 
2236.211 26650558 26631674 26607472 26576226 26540756 26507156 26482150 
2239.586 26468628 26465282 26466902 26467994 26465458 26459718 26453590 
2242.961 26450174 26450174 26451162 26449012 26441126 26427426 26412074 
2246.336 26400770 26397848 26404152 26416264 26428694 26436088 26436230 
2249.712 26431122 26424926 26421758 26423166 26427744 26432146 26433660 
2253.087 26431794 26429222 26429046 26434048 26443624 26454578 26462676 
2256.462 26465352 26462534 26457816 26454646 26455210 26457322 26456654 
2259.837 26447076 26425138 26391406 26350352 26308316 26270124 26236824 
2263.213 26206240 26173720 26135786 26092398 26047048 26005008 25970534 
2266.588 25944890 25925722 25908768 25890762 25870680 25850424 25833264 
2269.963 25821800 25815118 25810654 25804042 25792790 25777038 25759494 
2273.338 25744128 25733160 25726094 25719730 25709536 25693048 25670550 
2276.714 25645524 25622642 25605526 25594770 25587776 25580536 25569502 
2280.089 25553618 25534360 25514612 25496480 25480562 25465174 25447678 
2283.464 25426492 25401584 25374464 25347592 25321918 25296770 25270182 
2286.839 25240124 25206166 25170456 25136048 25106174 25081984 25061556 
2290.215 25041196 25016802 24986162 24950436 24913414 24879692 24852430 
2293.590 24832082 24816574 24802192 24785738 24766760 24746274 24727054 
2296.965 24711306 24699906 24692156 24686754 24683142 24681914 24684894 
2300.340 24693908 24709272 24729580 24751712 24773496 24794018 24815172 
2303.716 24840678 24874324 24917660 24969282 25025016 25079424 25128886 
2307.091 25172036 25211222 25249990 25291992 25339268 25390976 25444900 
2310.466 25498378 25549646 25597898 25643626 25686756 25726690 25762164 
2313.841 25792192 25817616 25840824 25866250 25898288 25939510 25990372 
2317.217 26048454 26110308 26172596 26233588 26293146 26351726 26409080 
2320.592 26462922 26508812 26540898 26553964 26544772 26512474 26459190 
2323.967 26388974 26306592 26217960 26129556 26047680 25978940 25928886 
2327.342 25900186 25891888 25899378 25915556 25932228 25943272 25945242 
2330.718 25937856 25923540 25904688 25884290 25864068 25846064 25832736 
2334.093 25826548 25830520 25845958 25871700 25903950 25937118 25966066 
2337.468 25987170 25999518 26004478 26004410 26001172 25995156 25985590 
2340.843 25971624 25953192 25931032 25905708 25876130 25837800 25783542 
2344.219 25706160 25600956 25469848 25322410 25175162 25046848 24953804 
2347.594 24908010 24914010 24970334 25070892 25207256 25368878 25543638 
2350.969 25720292 25887350 26035718 26159996 26259002 26335988 26395840 
2354.344 26444470 26485390 26519482 26545018 26559636 26561502 26550338 
2357.719 26527126 26493666 26451196 26400032 26340284 26271990 26196772 
2361.095 26117242 26035964 25954704 25873846 25791876 25707004 25618424 
2364.470 25527156 25436048 25348472 25266988 25191734 25120426 25049200 
2367.845 24975072 24896360 24813418 24728070 24642250 24556866 24471780 
2371.220 24385904 24298224 24209230 24119904 24031368 23944002 23857322 
2374.596 23769398 23678586 23584716 23488558 23392770 23299592 23210348 
2377.971 23124652 23040720 22956768 22871680 22787028 22705536 22631352 
2381.346 22566920 22513386 22469662 22433164 22401554 22373436 22349156 
2384.721 22329936 22316786 22310122 22309008 22311798 22317342 22324876 
2388.097 22335448 22349644 22367924 22389274 22411464 22431768 22448412 
2391.472 22461252 22471756 22482398 22494750 22509128 22524098 22537292 
2394.847 22546468 22551390 22553274 22554252 22556520 22560428 22565210 
2398.222 22568422 22567966 22563082 22554530 22544478 22535266 22528216 
2401.598 22523506 22520226 22517468 22515024 22513698 22514956 22519666 
2404.973 22527692 22537640 22546958 22554042 22558092 22559590 22559940 
2408.348 22560638 22561860 22562906 22562522 22559730 22554636 22548808 
2411.723 22543920 22541548 22541966 22544270 22546992 22548982 22550202 
2415.099 22551948 22556170 22564164 22576344 22591700 22608420 22624930 
2418.474 22640254 22654322 22666994 22678164 22686650 22691118 22690314 
2421.849 22684484 22675408 22665912 22658720 22655438 22655578 22656696 
2425.224 22655788 22650482 22640674 22627932 22615052 22604442 22597600 
2428.600 22594110 22592434 22591002 22588908 22586116 22583150 22580776 
2431.975 22578788 22576694 22573412 22568874 22563640 22558754 22555368 
2435.350 22553240 22551494 22547898 22540500 22528252 22511222 22490842 
2438.725 22468616 22445376 22421022 22395066 22367296 22338622 22311518 
2442.101 22289090 22273710 22266000 22264118 22264572 22263316 22257316 
2445.476 22245528 22228648 22208842 22187256 22164660 22140986 22116056 
2448.851 22090432 22066236 22045600 22030924 22022836 22020118 22019908 
2452.226 22019176 22016178 22010602 22003978 21998054 21994220 21991848 
2455.602 21989724 21985576 21978466 21968880 21958842 21950758 21946332 
2458.977 21945808 21948144 21951454 21954346 21956508 21959192 21963722 
2462.352 21971390 21982368 21995962 22011158 22027194 22044170 22062786 
2465.727 22083842 22107094 22131744 22156046 22178086 22196986 22212572 
2469.103 22225476 22236148 22244448 22249504 22250272 22246400 22238938 
2472.478 22230532 22223906 22221570 22223906 22229380 22235520 22239216 
2475.853 22239146 22235380 22229696 22224290 22220176 22217734 22216198 
2479.228 22214246 22211666 22208842 22207028 22207342 22209818 22213548 
2482.604 22217420 22220768 22224430 22230638 22242146 22260666 22286160 
2485.979 22316470 22347902 22376820 22400718 22419348 22433862 22446074 
2489.354 22457380 22467462 22475488 22480270 22481282 22479256 22475628 
2492.729 22471896 22468860 22466312 22463242 22458704 22452982 22446948 
2496.104 22441922 22438502 22436480 22433966 22429430 22422034 22412648 
2499.480 22403612 22398484 22399182 22406334 22417918 22430408 22440874 
2502.855 22447330 22449772 22449598 22448518 22447052 22444504 22439480 
2506.230 22430792 22418650 22404938 22392450 22383344 22378634 22376786 
2509.605 22374970 22370402 22361296 22348110 22332796 22317414 22304054 
2512.981 22292788 22282708 22272384 22261118 22249190 22237996 22228720 
2516.356 22222164 22217630 22213792 22209086 22202844 22195346 22187152 
2519.731 22179096 22170868 22161208 22148586 22132128 22111732 22089420 
2523.106 22067386 22047552 22030784 22015830 22000146 21981602 21958808 
2526.482 21932112 21903292 21874368 21847086 21821686 21797680 21774094 
2529.857 21750474 21726578 21702542 21678648 21654130 21627628 21597886 
2533.232 21564178 21527200 21488554 21450782 21415972 21384922 21357288 
2536.607 21332160 21308426 21285770 21264962 21246000 21229052 21212874 
2539.983 21195618 21175334 21151678 21125380 21099328 21076194 21058248 
2543.358 21045382 21035642 21026322 21014428 20998464 20979062 20957642 
2546.733 20936360 20916718 20898880 20882784 20868078 20854936 20844854 
2550.108 20838910 20837798 20841552 20848574 20857160 20866096 20875274 
2553.484 20886086 20900202 20919080 20942586 20969742 20998222 21025870 
2556.859 21051780 21075952 21099084 21121796 21144546 21166498 21186988 
2560.234 21205428 21222546 21239318 21257480 21278010 21300874 21324956 
2563.609 21348902 21371558 21392442 21412248 21432020 21452140 21472852 
2566.985 21493672 21514214 21534686 21556240 21580266 21607846 21638700 
2570.360 21671056 21701778 21728008 21748212 21762598 21773782 21784720 
2573.735 21798272 21815588 21836388 21859036 21881790 21903152 21922634 
2577.110 21940162 21955426 21967452 21975466 21978674 21977140 21972366 
2580.486 21966684 21962502 21961108 21962328 21964072 21964384 21960934 
2583.861 21953370 21942706 21931204 21921134 21914268 21911514 21912770 
2587.236 21917964 21926884 21939466 21955636 21974526 21994638 22014470 
2590.611 22032980 22049676 22065782 22082900 22102424 22125016 22149144 
2593.987 22172750 22193360 22209226 22220316 22227916 22234126 22240750 
2597.362 22248702 22257422 22266244 22274058 22280510 22285812 22290520 
2600.737 22294426 22297044 22297044 22293276 22285358 22274198 22261084 
2604.112 22248318 22236984 22227254 22218432 22209086 22198136 22185304 
2607.488 22171356 22157546 22145030 22134256 22125294 22117764 22111244 
2610.863 22105770 22101622 22098902 22097054 22095136 22091652 22085446 
2614.238 22076242 22065050 22053060 22042148 22033224 22026184 22020118 
2617.613 22013914 22006698 21998262 21989340 21980626 21972782 21965568 
2620.989 21958390 21950652 21942044 21932878 21924062 21916012 21908798 
2624.364 21901654 21893360 21882800 21869838 21855030 21840116 21826772 
2627.739 21816042 21808132 21802138 21796914 21791444 21785730 21780052 
2631.114 21775418 21772248 21770784 21770156 21769912 21769740 21769984 
2634.490 21771412 21775244 21782456 21793360 21808028 21825728 21846214 
2637.865 21869490 21894964 21922910 21952498 21982472 22011786 22039256 
2641.240 22064702 22088444 22111418 22134744 22158836 22183944 22209086 
2644.615 22233776 22257876 22281242 22304646 22328436 22352854 22377622 
2647.990 22402392 22426362 22449390 22471756 22493774 22515792 22537292 
2651.366 22557288 22574530 22587582 22595926 22599868 22600112 22598054 
2654.741 22594736 22590862 22586884 22582766 22579276 22576938 22576798 
2658.116 22579310 22585070 22593622 22604442 22616938 22631352 22648038 
2661.491 22668042 22692408 22721386 22754590 22790554 22827606 22864172 
2664.867 22898888 22931304 22961832 22990654 23018534 23046066 23073320 
2668.242 23100260 23126750 23151806 23174522 23193852 23208742 23218806 
2671.617 23224714 23227616 23229852 23233522 23240024 23250056 23263306 
2674.992 23278722 23295258 23312248 23329730 23347946 23367526 23388680 
2678.368 23411374 23435260 23460090 23485830 23513042 23542144 23573418 
2681.743 23606968 23642022 23677398 23712318 23745984 23778568 23810312 
2685.118 23842024 23874158 23907206 23941342 23976670 24013262 24051328 
2688.493 24090938 24132198 24175074 24219108 24264446 24311330 24360532 
2691.869 24413172 24470202 24532604 24600414 24673672 24752204 24835662 
2695.244 24924256 25018242 25117934 25223020 25332910 25446446 25562262 
2698.619 25679656 25798030 25916822 26035860 26154226 26270616 26383166 
2701.994 26490144 26589824 26681316 26764088 26838026 26902426 26956574 
2705.370 26999484 27030372 27048886 27055728 27052518 27041058 27023322 
2708.745 27001036 26975228 26946492 26915858 26884238 26852726 26822730 
2712.120 26795418 26771452 26751260 26735120 26723280 26716304 26714682 
2715.495 26718770 26728074 26742204 26760034 26780650 26803876 26830166 
2718.871 26860514 26895658 26935458 26979106 27024238 27068950 27111236 
2722.246 27150314 27186328 27219946 27252050 27282604 27311042 27336412 
2725.621 27357620 27373782 27385500 27393580 27399298 27403814 27407802 
2728.996 27411368 27414366 27416626 27418038 27418814 27419414 27420084 
2732.372 27420968 27422202 27423860 27425978 27428520 27431204 27433566 
2735.747 27435084 27435050 27433426 27430636 27427884 27426756 27429226 
2739.122 27436496 27449520 27468194 27492090 27520648 27553162 27589774 
2742.497 27630308 27674978 27723538 27775954 27831660 27890590 27952142 
2745.873 28015930 28081564 28148410 28215516 28282526 28349014 28415724 
2749.248 28483792 28554876 28630748 28712902 28802150 28898714 29002310 
2752.623 29112276 29227620 29347390 29470386 29595402 29721058 29846678 
2755.998 29971874 30096928 30222302 30348922 30476748 30605966 30736004 
2759.374 30866472 30996696 31127028 31257756 31389094 31521040 31653028 
2762.749 31784094 31913024 32039136 32162148 32282196 32399528 32514140 
2766.124 32625392 32732204 32833148 32927502 33015118 33096638 33173274 
2769.499 33246096 33315852 33382796 33446920 33508264 33567428 33625176 
2772.875 33682424 33739576 33796444 33852428 33906664 33959184 34010532 
2776.250 34063176 34119404 34181812 34252256 34331284 34418576 34513596 
2779.625 34615636 34724700 34840824 34964524 35095372 35232764 35375552 
2783.000 35522668 35673216 35827376 35985228 36147564 36314396 36485148 
2786.375 36658704 36833268 37007180 37179104 37347776 37512576 37672488 
2789.751 37827108 37976252 38120160 38260284 38398172 38535636 38674260 
2793.126 38814240 38955420 39096648 39236760 39375432 39512552 39648516 
2796.501 39784012 39918496 40051356 40181416 40307520 40429552 40548340 
2799.876 40665200 40781688 40898500 41015048 41129992 41240992 41346160 
2803.252 41444132 41534464 41617492 41694080 41764548 41829704 41889616 
2806.627 41944608 41995228 42042204 42086080 42126640 42163480 42195760 
2810.002 42222488 42243960 42260688 42274856 42288736 42304656 42324236 
2813.377 42348160 42376400 42408512 42443692 42481692 42522068 42564132 
2816.753 42606852 42648744 42687820 42722876 42752860 42777796 42798048 
2820.128 42814468 42827380 42837252 42843796 42846612 42845148 42838748 
2823.503 42827120 42810264 42788472 42762656 42734176 42705476 42679264 
2826.878 42658500 42645488 42641652 42647060 42660808 42681532 42708000 
2830.254 42739768 42777320 42821784 42874696 42937568 43011244 43096528 
2833.629 43194128 43304596 43429008 43568404 43724036 43896588 44086116 
2837.004 44292496 44515272 44753292 45006036 45272680 45553028 45846668 
2840.379 46153660 46474180 46808780 47158116 47522960 47903316 48298672 
2843.755 48707284 49125896 49549656 49972240 50386376 50783068 51152872 
2847.130 51485948 51772096 52001840 52166840 52260412 52278496 52219716 
2850.505 52086072 51882156 51614592 51292232 50923728 50517376 50080732 
2853.880 49619076 49136060 48634048 48114256 47578076 47027420 46465184 
2857.256 45895092 45321040 44746752 44175792 43610784 43054524 42510156 
2860.631 41981652 41473476 40990872 40538192 40118908 39734848 39386532 
2864.006 39073048 38793264 38545916 38329912 38144000 37986884 37856968 
2867.381 37752140 37670860 37611204 37572036 37552096 37549928 37563840 
2870.757 37590684 37626924 37668656 37712132 37754380 37793668 37829312 
2874.132 37861992 37892868 37923416 37955240 37989484 38026916 38067964 
2877.507 38112528 38160316 38210712 38263216 38317644 38373344 38430100 
2880.882 38487224 38543784 38598824 38651228 38699944 38744824 38785872 
2884.258 38823624 38858628 38891384 38922040 38950676 38977168 39001776 
2887.633 39025088 39047996 39071160 39094728 39118548 39141752 39163148 
2891.008 39181784 39197160 39209452 39219064 39226788 39233100 39237996 
2894.383 39241220 39242236 39240824 39236800 39230780 39223452 39215548 
2897.759 39208332 39202636 39199300 39198864 39201944 39208584 39218700 
2901.134 39232372 39249092 39269188 39292796 39320548 39353376 39392012 
2904.509 39437656 39491392 39554432 39628804 39716840 39821452 39945996 
2907.884 40093760 40268036 40471772 40707264 40976556 41280380 41618548 
2911.260 41988844 42386844 42806972 43241088 43680252 44116044 44539684 
2914.635 44943232 45320012 45663660 45968608 46230348 46445860 46613744 
2918.010 46735384 46813984 46854692 46863364 46845760 46806196 46747556 
2921.385 46671180 46576968 46463928 46330608 46175032 45995052 45787976 
2924.760 45551556 45283748 44983028 44649284 44284020 43889772 43470392 
2928.136 43031364 42578788 42119376 41661400 41213448 40783980 40381876 
2931.511 40014296 39687248 39404964 39169384 38980940 38837900 38737580 
2934.886 38675420 38646048 38643620 38661984 38695488 38739068 38788732 
2938.261 38841416 38894752 38947228 38997756 39045928 39092260 39137112 
2941.637 39182036 39228384 39277200 39329144 39384756 39444332 39508232 
2945.012 39577588 39653924 39738880 39834852 39943820 40067928 40209152 
2948.387 40368928 40547868 40745148 40957300 41177676 41396416 41601772 
2951.762 41779684 41917420 42004500 42033516 42001068 41907568 41755904 
2955.138 41550836 41298128 41004124 40675676 40320392 39946540 39562636 
2958.513 39177396 38798804 38433212 38085396 37758320 37453016 37169108 
2961.888 36905372 36660000 36431164 36217248 36017088 35829644 35654188 
2965.263 35489768 35334932 35188244 35048028 34912960 34782348 34656440 
2968.639 34535804 34421336 34314036 34214112 34121412 34035580 33956176 
2972.014 33882912 33816180 33756584 33704980 33662480 33630184 33609528 
2975.389 33601760 33608776 33631404 33670716 33726360 33797412 33882196 
2978.764 33978820 34085644 34201672 34326516 34460112 34602540 34753416 
2982.140 34911884 35076584 35245480 35416244 35586028 35751460 35908884 
2985.515 36054308 36184440 36296388 36388216 36459740 36510984 36543028 
2988.890 36556292 36551136 36527528 36485216 36424500 36346132 36251684 
2992.265 36143676 36025076 35899492 35771208 35644188 35522956 35411608 
2995.641 35312868 35228628 35159068 35103200 35059560 35026980 35005324 
2999.016 34995696 34999324 35017604 35050724 35097492 35155652 35222268 
3002.391 35294788 35371528 35451552 35534860 35621168 35710084 35800892 
3005.766 35892692 35985120 36078612 36174032 36272536 36374380 36479236 
3009.142 36585632 36691876 36796664 36899672 37001660 37104072 37208020 
3012.517 37314048 37421300 37528216 37632992 37734432 37832712 37929276 
3015.892 38026084 38125116 38228044 38335124 38445956 38559496 38674260 
3019.267 38789384 38904028 39018236 39132472 39247676 39365640 39487256 
3022.643 39613484 39744472 39878728 40014040 40147548 40276980 40401004 
3026.018 40519892 40635400 40750204 40866172 40984244 41103948 41223580 
3029.393 41341164 41455428 41566444 41675660 41785560 41897972 42014460 
3032.768 42134856 42258164 42382428 42506392 42629188 42751176 42873640 
3036.144 42998440 43127960 43264404 43409676 43565692 43733160 43912464 
3039.519 44102840 44302656 44509580 44721008 44934780 45148912 45361904 
3042.894 45572200 45777148 45973612 46157196 46322868 46466216 46584640 
3046.269 46677640 46747708 46799480 46839336 46873700 46908064 46946160 
3049.645 46990240 47040604 47096808 47158484 47225116 47296640 47373236 
3053.020 47454724 47540372 47629064 47719032 47808392 47896028 47981052 
3056.395 48063696 48144536 48224428 48304340 48384928 48466348 48548596 
3059.770 48631600 48715364 48799628 48884312 48968760 49052584 49135280 
3063.146 49216504 49296412 49375292 49453632 49531464 49608304 49682860 
3066.521 49753560 49818400 49876228 49926888 49971684 50012352 50051172 
3069.896 50090136 50130300 50172064 50215244 50259916 50306272 50355420 
3073.271 50409112 50468656 50535540 50609884 50691124 50777856 50868216 
3076.646 50960464 51053024 51145084 51236268 51326128 51415004 51502888 
3080.022 51590040 51676168 51761344 51844852 51925768 52002588 52073144 
3083.397 52134896 52185448 52222480 52244896 52252860 52247964 52233576 
3086.772 52214256 52194676 52179656 52172896 52176292 52190532 52214780 
3090.147 52247404 52286792 52331608 52381432 52436688 52497852 52565648 
3093.523 52640448 52722336 52810708 52904752 53003680 53106676 53212768 
3096.898 53321172 53430576 53539256 53645004 53745376 53838272 53921884 
3100.273 53995868 54061232 54120004 54175592 54231376 54290620 54355464 
3103.648 54427456 54506936 54593872 54687888 54788840 54896848 55011952 
3107.024 55134384 55264152 55401600 55548052 55706308 55880408 56077128 
3110.399 56304824 56572084 56888452 57263156 57704060 58218872 58814488 
3113.774 59497020 60272052 61143172 62111260 63172476 64317004 65527172 
3117.149 66774256 68020904 69219104 70310352 71234576 71930824 72343680 
3120.525 72433424 72177008 71573504 70642360 69423088 67970528 66343472 
3123.900 64606004 62817760 61028340 59281280 57609804 56037164 54579968 
3127.275 53246928 52039528 50954168 49982684 49114576 48337888 47641856 
3130.650 47016604 46453788 45946580 45488856 45074952 44700184 44359828 
3134.026 44049956 43766912 43507088 43266856 43042708 42831180 42629444 
3137.401 42435432 42247428 42064616 41886296 41711584 41539932 41370320 
3140.776 41202192 41035224 40869628 40705696 40543940 40384424 40226964 
3144.151 40071016 39916284 39762808 39610656 39460152 39311296 39163760 
3147.527 39016532 38868660 38719176 38567608 38413668 38258112 38101456 
3150.902 37944140 37786512 37628508 37469916 37310440 37149800 36987772 
3154.277 36824360 36659424 36493076 36325672 36158012 35991096 35826224 
3157.652 35663968 35504508 35347372 35191584 35035852 34879348 34721576 
3161.028 34562568 34402648 34242432 34081848 33921280 33761204 33602080 
3164.403 33444986 33290918 33140372 32993202 32848406 32704518 32559958 
3167.778 32414198 32267168 32119974 31973756 31829550 31687386 31547230 
3171.153 31407938 31269330 31131728 30996482 30865086 30739170 30619370 
3174.529 30505292 30395506 30287774 30179856 30070010 29956998 29840112 
3177.904 29719638 29596396 29471520 29347000 29224678 29106182 28992144 
3181.279 28882352 28775030 28668088 28559368 28447634 28332850 28215942 
3184.654 28098992 27983346 27870240 27759352 27649660 27540028 27429366 
3188.030 27317004 27203296 27088664 26973712 26858928 26744846 26631850 
3191.405 26520398 26410946 26303354 26197302 26091520 25984708 25875568 
3194.780 25763642 25649178 25533586 25418516 25305480 25195070 25087040 
3198.155 24980372 24874044 24766866 24658346 24548802 24438410 24327870 
3201.531 24217604 24108066 24000024 23894462 23792532 23694998 23602244 
3204.906 23513356 23426726 23339938 23250826 23158306 23061928 22962986 
3208.281 22863334 22765100 22670170 22579276 22492656 22409300 22327774 
3211.656 22246750 22164694 22081192 21996170 21910646 21826352 21745180 
3215.031 21668654 21597258 21530474 21466936 21404172 21339886 21272514 
3218.407 21201080 21125936 21047712 20967830 20887234 20806824 20727546 
3221.782 20650330 20575802 20504866 20437552 20373550 20311950 20250950 
3225.157 20189474 20126512 20061756 19995658 19929186 19863106 19798250 
3228.532 19735208 19674568 19617020 19563258 19513730 19468332 19426126 
3231.908 19384826 19341554 19293786 19239576 19178278 19111032 19039954 
3235.283 18968056 18898142 18832704 18773192 18720570 18674946 18635238 
3238.658 18600618 18569044 18538370 18506802 18472364 18434128 18391816 
3242.033 18345878 18297734 18248384 18199248 18151328 18105174 18060960 
3245.409 18018510 17976928 17935248 17891982 17846236 17797284 17744954 
3248.784 17690146 17634104 17577826 17522006 17466950 17412176 17357376 
3252.159 17302410 17247934 17194672 17143448 17094162 17046260 16998156 
3255.534 16948162 16895040 16838822 16780134 16720938 16662711 16606973 
3258.910 16553858 16503330 16454700 16407728 16362311 16318789 16277369 
3262.285 16237848 16199496 16161563 16123047 16083743 16044101 16005320 
3265.660 15968744 15935298 15905602 15879378 15855974 15834393 15813466 
3269.035 15791921 15767869 15739592 15705511 15664494 15616955 15564098 
3272.411 15508432 15453047 15399867 15350194 15303615 15259171 15215622 
3275.786 15172215 15129567 15088159 15048949 15012111 14976338 14939951 
3279.161 14900926 14858270 14812225 14764471 14717647 14673913 14635118 
3282.536 14601535 14572409 14546368 14521872 14498027 14474080 14449895 
3285.912 14425335 14400742 14376493 14353684 14333752 14318342 14308617 
3289.287 14304439 14304199 14305535 14304884 14298892 14286153 14266053 
3292.662 14239757 14209389 14177209 14144688 14112341 14080099 14046901 
3296.037 14011926 13974799 13935553 13894976 13854130 13814656 13778023 
3299.413 13746046 13720158 13701760 13691843 13690783 13698340 13713387 
3302.788 13733871 13756887 13778469 13794338 13800358 13792833 13769679 
3306.163 13730315 13676216 13610500 13537034 13459890 13382384 13306974 
3309.538 13234721 13165828 13100087 13037258 12977612 12921560 12869882 
3312.914 12823194 12782278 12747473 12718745 12695852 12677702 12663510 
3316.289 12651843 12642086 12633626 12626395 12621074 12618243 12618584 
3319.664 12622369 12629328 12638948 12650342 12663134 12676815 12691450 
3323.039 12706906 12722531 12737511 12750681 12760815 12767025 12768970 
3326.415 12767128 12762009 12755048 12746962 12739114 12732597 12728741 
3329.790 12728878 12734030 12744437 12759519 12778149 12798078 12817018 
3333.165 12833399 12846470 12856334 12863774 12869439 12873535 12875309 
3336.540 12873365 12865650 12850736 12827051 12794495 12753377 12705131 
3339.916 12651604 12594604 12536247 12477183 12418126 12358566 12297173 
3343.291 12232824 12164668 12092980 12019089 11946097 11876624 11813767 
3346.666 11759124 11712419 11672118 11635258 11598605 11559165 11514727 
3350.041 11463829 11406067 11341884 11272201 11199096 11125153 11053194 
3353.417 10985699 10924500 10870071 10821762 10777944 10736948 10697383 
3356.792 10658737 10621148 10584988 10550426 10516785 10482772 10447268 
3360.167 10409460 10369483 10328356 10288014 10250118 10216125 10186580 
3363.542 10161547 10140587 10123459 10110028 10099956 10092563 10086628 
3366.917 10079642 10068892 10051767 10026369 9991615 9948185 9897131 9840865 
3370.775 9781691 9722390 9665841 9614076 9568922 9531359 9500946 9476088 
3374.632 9454652 9434335 9413172 9390858 9367565 9344678 9323587 9305172 
3378.490 9289633 9276500 9264551 9252874 9240925 9228268 9214628 9200075 
3382.347 9183966 9165996 9146267 9125220 9103767 9083669 9066719 9054336 
3386.205 9047535 9046791 9052204 9063335 9079440 9099266 9120550 9140109 
3390.062 9154287 9159431 9152798 9133206 9102075 9062625 9018577 8974669 
3393.919 8934215 8898465 8867792 8841651 8819063 8800027 8785184 8775581 
3397.777 8771963 8774228 8780619 8787855 8792757 8791540 8782005 8763444 
3401.634 8737072 8705228 8670714 8636237 8603588 8573070 8544718 8517583 
3405.492 8491464 8466462 8443082 8422508 8405785 8393489 8385686 8382172 
3409.349 8381700 8383220 8385314 8386395 8384943 8379166 8367445 8348834 
3413.207 8323332 8292395 8258286 8224382 8193993 8169547 8153037 8144226 
3417.064 8142200 8145306 8151316 8157899 8163267 8165665 8164044 8157899 
3420.921 8147467 8134030 8119310 8105233 8093519 8085080 8079982 8077282 
3424.779 8076067 8075358 8074514 8073535 8072219 8070362 8067527 8062362 
3428.636 8054159 8042413 8027461 8010586 7993508 7977848 7964416 7953179 
3432.494 7943426 7934045 7924090 7913529 7902461 7891765 7882047 7873477 
3436.351 7865649 7857822 7848746 7837545 7823409 7805766 7784446 7759315 
3440.208 7730543 7699008 7666260 7633718 7603403 7576698 7554176 7535363 
3444.066 7519113 7503909 7488166 7471379 7453615 7435547 7418762 7404134 
3447.923 7392372 7383677 7377476 7373061 7369488 7365781 7361198 7355267 
3451.781 7347920 7339462 7330060 7320490 7310751 7300609 7289557 7276585 
3455.638 7261119 7243296 7224092 7205462 7189326 7177603 7170765 7168171 
3459.496 7167902 7167160 7163758 7156247 7144356 7129468 7113334 7097774 
3463.353 7084572 7073660 7064331 7055171 7044698 7031766 7016343 6999002 
3467.210 6981526 6965970 6953648 6945533 6941460 6940349 6940079 6938901 
3471.068 6935063 6927454 6915974 6900892 6882511 6861944 6839626 6816267 
3474.925 6793346 6772076 6754071 6740845 6733005 6729875 6729976 6730111 
3478.783 6727688 6720352 6706656 6686938 6662880 6636872 6611236 6587653 
3482.640 6567167 6550078 6535985 6524414 6514424 6505780 6497910 6489804 
3486.498 6481127 6471306 6460208 6448471 6436937 6426747 6419181 6414978 
3490.355 6414002 6415280 6417399 6418172 6415818 6408891 6396920 6380107 
3494.212 6359766 6337743 6316058 6296223 6278943 6264354 6251681 6240152 
3498.070 6228824 6217531 6206472 6196053 6186508 6177702 6168695 6158747 
3501.927 6146884 6133072 6118588 6105315 6095503 6091135 6092916 6100207 
3505.785 6111330 6123596 6134786 6143255 6148430 6150715 6151320 6151824 
3509.642 6153068 6156092 6160596 6166343 6172493 6178072 6182542 6185298 
3513.500 6186239 6185399 6183181 6180593 6178509 6177635 6179215 6184021 
3517.357 6192490 6205161 6221430 6240118 6260119 6279280 6295517 6307619 
3521.214 6314814 6317672 6317806 6317436 6318882 6323656 6332364 6344232 
3525.072 6358050 6372172 6385185 6396853 6407008 6416693 6426613 6437844 
3528.929 6450355 6464647 6480690 6498919 6519705 6543620 6570665 6600639 
3532.787 6631926 6662577 6690235 6712949 6729370 6739432 6744514 6747037 
3536.644 6749696 6755451 6765749 6781432 6801862 6825725 6850970 6876149 
3540.501 6899646 6920519 6938598 6953210 6964152 6970617 6971829 6966812 
3544.359 6955196 6937218 6914290 6888907 6863997 6842555 6826869 6817647 
3548.216 6814079 6814281 6815459 6815022 6811151 6802972 6791125 6776619 
3552.074 6761172 6745591 6730413 6715102 6699152 6681890 6663687 6644678 
3555.931 6625736 6607064 6588360 6568546 6545975 6519335 6488190 6453617 
3559.789 6417567 6383504 6354554 6332969 6319621 6313570 6311519 6308796 
3563.646 6300257 6280255 6243748 6188424 6114388 6026086 5931723 5842148 
3567.503 5768272 5718245 5694879 5695215 5712672 5738020 5762631 5780192 
3571.361 5787176 5783013 5769615 5750275 5728250 5706025 5685210 5665908 
3575.218 5647815 5630326 5612503 5594076 5575012 5555345 5535847 5517222 
3579.076 5500141 5485444 5474002 5466352 5462459 5462392 5465781 5471754 
3582.933 5479069 5485578 5487826 5481988 5463667 5429142 5377309 5310053 
3586.791 5234155 5159276 5096646 5056150 5042507 5055445 5088835 5134263 
3590.648 5182043 5223222 5252130 5265378 5262460 5245926 5220237 5190426 
3594.505 5161790 5138622 5123467 5116628 5116997 5121891 5127691 5130877 
3598.363 5128496 5118673 5101843 5079347 5054909 5032651 5016193 5008350 
3602.220 5010126 5020785 5038249 5059066 5079448 5094970 5101273 5093964 
3606.078 5069760 5027054 4966890 4894134 4816667 4744104 4684784 4643388 
3609.935 4619242 4605981 4596035 4581268 4556757 4523375 4485611 4452000 
3613.792 4429974 4423915 4432752 4450895 4469006 4477107 4467164 4434225 
3617.650 4377322 4300650 4213118 4125402 4049845 3996538 3971090 3974534 
3621.507 4002891 4049109 4105099 4163470 4219174 4269831 4314973 4353560 
3625.365 4383046 4396033 4382310 4328627 4225564 4072588 3885195 3694910 
3629.222 3538846 3447693 3430995 3477552 3562331 3658721 3743735 3803095 
3633.080 3832276 3835184 3821345 3801223 3782773 3769403 3759978 3751522 
3636.937 3740827 3726958 3711051 3695344 3682212 3672655 3666439 3662463 
3640.794 3659890 3659522 3662764 3672354 3689563 3714359 3743835 3772846 
3644.652 3794237 3800454 3784510 3741396 3669079 3568077 3443285 3302803 
3648.509 3157160 3019907 2905446 2827166 2795884 2816193 2884932 2991414 
3652.367 3119614 3251023 3366276 3449797 3491247 3487606 3445790 3381670 
3656.224 3317227 3272556 3260003 3280735 3327109 3385811 3443285 3490111 
3660.082 3521075 3536475 3539849 3536842 3533468 3534036 3541753 3558055 
3663.939 3583177 3616988 3657718 3703632 3750720 3793936 3826961 3842940 
3667.796 3835886 3804432 3754229 3699923 3666038 3681309 3767565 3935112 
3671.654 4176818 4473994 4799011 5122025 5414950 5648721 5800172 5855145 
3675.511 5814544 5694207 5516920 5304083 5068754 4817170 4554983 4291147 
3679.369 4039477 3818069 3641446 3517802 3444521 3412026 3406616 3415900 
3683.226 3433165 3455208 3481327 3510085 3535940 3549503 3540283 3498528 
3687.083 3420842 3311985 3186331 3062884 2959854 2888835 2852346 2846409 
3690.941 2864253 2900376 2950246 3010698 3077566 3145712 3209163 3262440 
3694.798 3302169 3327944 3342535 3351317 3359732 3371385 3387214 3405013 
3698.656 3420475 3428724 3426319 3412427 3389017 3361334 3335924 3319731 
3702.513 3318061 3332953 3363204 3405080 3453104 3501034 3543957 3577832 
3706.371 3600650 3611876 3612077 3601853 3581240 3549703 3505543 3447827 
3710.228 3376962 3296760 3213569 3138237 3081270 3051939 3054675 3088311 
3714.085 3146647 3220045 3297662 3369983 3429258 3471774 3497894 3511455 
3717.943 3518169 3523814 3532533 3544726 3558222 3569513 3575460 3574992 
3721.800 3570115 3564001 3560527 3561496 3566173 3570816 3571752 3566106 
3725.658 3555215 3544425 3542287 3557654 3595271 3654243 3726056 3798917 
3729.515 3857381 3888104 3883056 3841135 3769737 3682078 3593133 3513059 
3733.373 3444253 3381203 3315824 3243078 3165805 3095720 3048302 3037591 
3737.230 3067889 3133597 3222014 3319497 3415566 3504841 3586151 3658888 
3741.087 3719272 3756736 3754229 3691802 3555984 3350916 3110136 2888635 
3744.945 2746465 2716056 2790682 2933667 3099190 3245515 3341033 3370918 
3748.802 3335123 3249053 3136101 3020708 2921157 2847076 2802587 2789815 
3752.660 2811391 2867588 2954450 3062650 3177720 3283640 3367946 3422512 
3756.517 3446090 3443452 3423013 3393291 3360333 3328111 3299064 3277163 
3760.375 3268216 3277563 3308145 3356960 3415065 3470104 3508750 3523080 
3764.232 3511589 3481293 3444320 3413695 3397632 3395963 3401373 3403443 
3768.089 3392824 3365475 3324372 3278164 3238438 3215438 3214136 3234198 
3771.947 3270586 3316859 3365943 3413194 3455709 3492750 3525117 3554213 
3775.804 3580204 3602187 3617088 3620062 3607199 3576529 3531097 3478688 
3779.662 3431295 3400905 3394861 3414096 3452202 3498862 3542755 3575293 
3783.519 3593234 3598245 3595639 3591697 3591463 3596274 3605495 3616621 
3787.376 3628114 3639408 3650835 3662864 3675261 3687458 3697884 3706573 
3791.234 3715094 3725688 3741095 3761515 3784477 3803696 3812421 3804766 
3795.091 3779430 3740995 3699923 3669246 3658888 3671853 3701593 3735012 
3798.949 3753795 3739758 3681343 3577264 3442450 3304306 3197280 3147848 
3802.806 3164603 3237103 3340799 3446992 3526721 3559592 3537243 3467532 
3806.664 3372621 3283272 3228156 3220879 3259002 3327644 3408586 3486704 
3810.521 3554180 3610607 3660792 3709747 3758207 3801022 3826961 3823785 
3814.378 3782371 3703231 3599648 3497526 3425017 3401172 3429392 3496758 
3818.236 3579636 3650267 3684918 3668311 3598345 3488842 3368146 3270185 
3822.093 3219344 3224217 3274759 3351451 3430494 3492716 3527623 3534070 
3825.951 3520407 3500299 3488808 3495322 3521175 3560460 3603156 3639909 
3829.808 3664702 3676631 3679639 3680541 3685486 3698385 3719372 3745774 
3833.666 3772712 3794337 3804966 3799117 3771910 3720107 3644353 3550538 
3837.523 3449129 3354656 3281202 3236769 3222648 3233597 3260103 3291886 
3841.380 3321600 3344873 3360633 3371051 3379466 3389852 3406081 3431529 
3845.238 3468434 3517334 3577130 3644453 3715261 3784978 3849993 3909066 
3849.095 3961092 4004262 4034795 4043055 4013827 3930431 3779330 3561128 
3852.953 3298930 3040494 2838938 2732794 2730293 2812425 2947010 3102160 
3856.810 3254996 3390920 3503539 3592298 3658687 3705002 3733074 3745038 
3860.667 3743134 3730367 3710215 3685219 3655847 3622167 3584781 3547298 
3864.525 3518403 3508950 3528324 3579001 3654109 3736717 3804298 3836154 
3868.382 3818170 3749951 3647460 3539916 3458782 3423080 3433633 3474680 
3872.240 3523647 3559558 3570683 3557353 3531698 3510987 3511054 3540082 
3876.097 3595940 3668210 3741730 3801490 3835786 3838260 3809111 3756669 
3879.955 3695511 3642314 3613079 3616821 3652439 3709313 3770005 3815563 
3883.812 3828666 3800354 3734010 3645923 3562531 3508516 3500532 3538780 
3887.669 3609671 3690866 3760212 3800019 3800387 3762117 3695979 3619861 
3891.527 3552309 3507948 3493551 3508282 3545862 3598044 3658052 3719639 
3895.384 3778093 3829568 3869917 3894991 3901343 3887235 3853403 3804264 
3899.242 3746776 3688928 3637737 3596942 3565905 3541051 3517067 3490311 
3903.099 3460051 3429926 3405848 3395328 3403677 3431829 3477018 3533569 
3906.957 3594937 3655179 3710650 3759109 3800487 3834783 3862262 3883223 
3910.814 3897732 3907027 3912443 3916556 3920869 3926218 3931635 3934410 
3914.671 3931267 3919799 3899337 3872090 3841937 3813791 3791864 3777859 
3918.529 3771876 3772478 3778160 3787786 3801022 3817735 3836488 3854874 
3922.386 3869549 3876938 3875166 3865304 3851029 3838026 3832410 3838627 
3926.244 3856813 3884961 3917559 3948854 3973832 3988980 3992926 3985736 
3930.101 3969017 3944641 3915519 3885429 3858283 3838560 3830538 3835820 
3933.958 3853804 3881484 3913914 3945611 3972026 3990886 4001821 4006804 
3937.816 4008342 4008777 4009479 4009713 4007907 4002155 3990518 3972728 
3941.673 3949824 3924580 3900374 3880749 3868480 3864669 3868881 3878676 
3945.531 3890511 3900574 3905255 3902848 3893253 3878944 3863666 3851999 
3949.388 3847620 3852567 3866808 3888104 3913145 3938422 3961259 3979885 
3953.246 3994230 4004898 4012790 4019077 4024227 4028307 4031384 4032989 
3957.103 4033156 4032019 4030013 4027672 4025330 4023424 4021953 4020615 
3960.960 4019311 4017505 4015164 4012622 4010449 4009379 4010549 4014462 
3964.818 4021284 4030648 4041751 4053457 4064527 4073792 4080548 4084093 
3968.675 4084427 4081451 4076066 4069210 4062052 4056166 4052788 4052453 
3972.533 4055330 4060982 4068608 4077237 4086769 4096803 4108009 4120719 
3976.390 4134936 4149889 4164675 4177655 4187457 4193178 4194784 4192743 
3980.248 4188193 4182472 4176952 4172670 4170529 4170897 4174176 4179997 
3984.105 4187725 4196892 4206862 4217233 4228241 4239985 4252733 4266385 
3987.962 4280104 4292519 4302391 4308280 4310054 4308715 4305871 4303595 
3991.820 4303294 4305636 4309753 4314571 4318286 4320194 4320260 4319290 
3995.677 4318554 4319458 4322637 4327589 4333781 4339905 4345193 4349109 
3999.535 4351384 4351719 4350113 
##END=
