
##TITLE=Z295_1_c
##JCAMP-DX=5.01  $$ Nicolet v. 1
##DATATYPE=INFRARED SPECTRUM
##ORIGIN=UniL
##OWNER=Nicolet
##LONGDATE=2011/09/09
##TIME=13:35:25
##SPECTROMETER/DATA SYSTEM=Nicolet iS5
##DATA PROCESSING=
Ratio against background
%Transmittance->Absorbance
Truncated
ElementMultiply or ElementDivide
##COMMENTS=
Number of sample scans: 32
Collection length: 51.22 sec
Sample gain: 2.0
Background collected on: Ven Sep 09 13:27:55 2011 (GMT+02:00);
Number of background scans: 32
Background gain: 2.0
Sample spacing:  1.000
Number of scan points: 12415
Resolution points: 8192
Number of FFT points: 65536
Apodization: N-B fort;
Phase correction: Mertz;
Laser frequency: 15798.0 cm-1
Number of rejected sample scans: 0
Number of rejected background scans: 0
Bench serial number: ASB1000141;
##RESOLUTION=4.000
##XUNITS=1/CM
##YUNITS=ABSORBANCE
##FIRSTX=649.893372
##LASTX=4000.122314
##FIRSTY=0.105709
##MAXX=4000.122314
##MINX=649.893372
##MAXY=0.292961
##MINY=-0.001143
##XFACTOR=1.000000
##YFACTOR=1.000000E-009
##NPOINTS=6950
##DELTAX=0.482117
##ZPD=6100
##XYDATA=(X++(Y..Y))
649.893 105709408 104625944 103602832 102654632 101770704 100934136 
652.786 100138680 99402328 98760184 98252272 97900768 97698656 97609336 
656.161 97583776 97579176 97574984 97578800 97615472 97709488 97870592 
659.536 98087616 98335912 98591464 98842504 99095016 99366256 99677848 
662.911 100041880 100460088 100926224 101433088 101977536 102556608 
665.803 103160952 103761888 104300808 104703400 104911968 104932600 
668.696 104838568 104735576 104701456 104758936 104884712 105028672 
671.589 105140008 105180784 105140056 105032984 104889736 104737048 
674.481 104584464 104422992 104232048 103993752 103701392 103362144 
677.374 102989264 102592696 102172728 101721328 101229616 100696504 
680.267 100131712 99553024 98973688 98396960 97812360 97202064 96551360 
683.642 95859480 95140864 94421040 93723840 93059352 92421384 91792048 
687.016 91153760 90499688 89839664 89196440 88596944 88059624 87589256 
690.391 87177864 86813032 86485504 86195440 85951200 85764096 85641520 
693.766 85583768 85585136 85640136 85750336 85925960 86183728 86539376 
697.141 86999824 87559416 88202176 88906712 89656912 90446680 91279304 
700.516 92162144 93098976 94083368 95099656 96127104 97145784 98144560 
703.890 99118536 100065200 100978112 101843168 102639320 103348520 103961208 
707.265 104483808 104934704 105340432 105723024 106095632 106463400 
710.158 106828728 107199456 107594008 108037272 108552464 109149400 
713.051 109816336 110518296 111203512 111819712 112325512 112697568 
715.943 112934888 113053512 113080976 113049560 113000896 112984440 
718.836 113055144 113274648 113698912 114361784 115267640 116377376 
721.729 117613648 118858592 119980736 120854896 121376544 121491976 
724.621 121206480 120589808 119757824 118854536 118024176 117369232 
727.514 116944712 116750008 116743464 116862144 117045656 117255504 
730.407 117476096 117710528 117967832 118252464 118559664 118878376 
733.300 119198488 119517040 119840248 120178424 120538728 120919416 
736.192 121308584 121691400 122056696 122402784 122739000 123078824 
739.085 123432960 123802008 124176176 124540384 124883608 125204504 
741.978 125512552 125822320 126146544 126487840 126839744 127189008 
744.870 127525496 127846792 128159344 128473104 128794400 129120928 
747.763 129441184 129741896 130013256 130257160 130485696 130715888 
750.656 130960088 131221112 131490800 131756712 132008824 132246288 
753.548 132476288 132710832 132956416 133210808 133461504 133692832 
756.441 133893832 134063392 134210408 134348944 134490400 134638512 
759.334 134789488 134937248 135080032 135225440 135387824 135581456 
762.227 135814208 136081808 136371248 136667296 136962768 137266320 
765.119 137603520 138012080 138528784 139184032 139988752 140930160 
768.012 141966000 143025776 144017232 144829808 145363680 145554624 
770.905 145398496 144966368 144397408 143872672 143547040 143510720 
773.797 143745968 144130768 144461360 144510624 144108512 143170656 
776.690 141722512 139866880 137744640 135476864 133128496 130707248 
779.583 128174800 125479120 122578200 119461200 116151192 112699624 
782.475 109172832 105641672 102177840 98842504 95687096 92751168 90057896 
785.850 87616456 85424408 83471760 81746128 80236816 78938048 77847080 
789.225 76962728 76282776 75802688 75516872 75420680 75513520 75800320 
792.600 76290640 76996152 77925104 79078064 80442488 81991056 83679856 
795.975 85444496 87210152 88890368 90396856 91660592 92641528 93347840 
799.350 93837048 94218280 94628728 95196720 96021688 97132560 98472192 
802.724 99884216 101136008 101964040 102100584 101356464 99659968 97080440 
806.099 93814216 90142336 86376312 82762664 79452888 76479752 73774120 
809.474 71205104 68633888 65969916 63186384 60327904 57480732 54750388 
812.849 52225992 49960828 47974692 46257364 44782676 43518036 42433608 
816.224 41504204 40706860 40021492 39430216 38918272 38475748 38098168 
819.598 37784344 37533528 37343772 37211160 37130524 37098872 37117136 
822.973 37189896 37324992 37530564 37811564 38169396 38600920 39099692 
826.348 39654832 40251208 40868792 41480544 42056916 42570856 43003232 
829.723 43353508 43641924 43913232 44227336 44655380 45269996 46128088 
833.098 47264536 48676260 50315464 52076172 53796080 55283496 56319872 
836.473 56711908 56336436 55158724 53253180 50780688 47969288 45053812 
839.847 42237532 39679552 37467568 35630700 34153636 32995704 32105524 
843.222 31430520 30926278 30553458 30278432 30076118 29928456 29825526 
846.597 29764560 29747066 29774424 29845330 29954302 30093520 30255302 
849.972 30433816 30626944 30834742 31058264 31297672 31552718 31823702 
853.347 32113090 32426376 32771934 33158038 33591488 34075824 34612336 
856.721 35201968 35848784 36560904 37351676 38237884 39237160 40368640 
860.096 41652936 43111276 44768276 46645248 48752988 51080232 53582512 
863.471 56177648 58739032 61119828 63167296 64742984 65757720 66181212 
866.846 66053428 65474348 64598740 63615888 62708600 62053156 61792740 
870.221 62022116 62797844 64131996 65999152 68334056 71035168 73968736 
873.596 76953432 79780888 82230800 84076600 85138072 85301648 84538312 
876.970 82910184 80555672 77671280 74462656 71133320 67858872 64761056 
880.345 61916948 59355988 57069948 55027596 53188948 51520608 50000940 
883.720 48625004 47400732 46343512 45467664 44780436 44280312 43958472 
887.095 43803268 43804328 43956712 44261528 44723028 45345756 46131220 
890.470 47077492 48180260 49436552 50847508 52419752 54165944 56102536 
893.844 58245844 60610564 63204392 66022216 69035808 72183504 75364744 
897.219 78423696 81166768 83383944 84863728 85449216 85060248 83710352 
900.594 81503376 78617584 75282928 71728640 68175512 64811216 61765544 
903.969 59125172 56931404 55188708 53878444 52968232 52423152 52209100 
907.344 52299240 52675464 53326188 54245940 55432732 56886828 58608224 
910.719 60595628 62841692 65328592 68021408 70859336 73761944 76627320 
914.093 79344008 81816528 83973312 85784880 87268672 88486928 89536328 
917.468 90522344 91551264 92700224 93998368 95416584 96862216 98193696 
920.843 99226072 99780440 99718944 98976360 97592568 95716680 93606600 
924.218 91571720 89949872 89061048 89132560 90285856 92497472 95606576 
927.593 99310112 103200416 106848728 109814584 111735624 112380872 111643408 
930.967 109550808 106227680 101873168 96718464 91002888 84979768 78883168 
934.342 72926976 67307248 62172312 57630920 53752316 50563308 48063840 
937.717 46235176 45048964 44469384 44448612 44924012 45800860 46949336 
941.092 48218688 49430384 50412908 51028872 51182212 50841436 50037412 
944.467 48856280 47417176 45849872 44282880 42815568 41516820 40424640 
947.841 39547896 38875584 38384488 38047960 37838132 37727960 37694240 
951.216 37713576 37764032 37827432 37889072 37940380 37979864 38012160 
954.591 38045432 38088868 38151020 38237596 38352100 38496676 38672020 
957.966 38878700 39115644 39380620 39669568 39977672 40300540 40635980 
961.341 40984024 41347032 41727964 42128756 42549620 42988856 43444024 
964.716 43913636 44397556 44897704 45416160 45954940 46514600 47095036 
968.090 47696252 48319480 48967756 49645300 50356164 51102744 51885852 
971.465 52705240 53561184 54456492 55396520 56388724 57440720 58557944 
974.840 59742716 60995352 62314792 63701636 65158480 66690064 68302840 
978.215 70003840 71800792 73704656 75730928 77901312 80245096 82793736 
981.590 85578408 88626160 91954048 95568088 99458728 103599464 107936704 
984.964 112379160 116800824 121024656 124833776 128007872 130326656 
987.857 131617832 131786736 130823984 128813968 125915032 122356584 
990.750 118396704 114293064 110298776 106617456 103399848 100747224 98703656 
994.125 97272904 96429544 96134912 96346112 97022520 98132304 99647336 
997.500 101542208 103793576 106375768 109260440 112416888 115801816 
1000.392 119355288 122996616 126610056 130054608 133178608 135823072 
1003.285 137857280 139195216 139805744 139721744 139036592 137901744 
1006.178 136495312 135017216 133669752 132620976 132010024 131933064 
1009.070 132439656 133547160 135247376 137521280 140344256 143692976 
1011.963 147546912 151882800 156675984 161901632 167532416 173542096 
1014.856 179899520 186550704 193405584 200315600 207048960 213319456 
1017.748 218794864 223140000 226099872 227532432 227459536 226063904 
1020.641 223689680 220798304 217872160 215410016 213840080 213463520 
1023.534 214470320 216912000 220726736 225753760 231773776 238543248 
1026.427 245788656 253246096 260657376 267752640 274284448 280027520 
1029.320 284796512 288479072 291036320 292502912 292961280 292527840 
1032.213 291330592 289485984 287105472 284282848 281083488 277544768 
1035.106 273665568 269415008 264741456 259598576 253967904 247871168 
1037.999 241374048 234574512 227594736 220555408 213570848 206748672 
1040.892 200175280 193919744 188025360 182498896 177309024 172387136 
1043.785 167646944 162996544 158365264 153724976 149095488 144545616 
1046.678 140173104 136100256 132447480 129315584 126788896 124919344 
1049.571 123729000 123212792 123340904 124066240 125325696 127054480 
1052.464 129187720 131661088 134417520 137394288 140513904 143684672 
1055.357 146785184 149670208 152192256 154200656 155567280 156206128 
1058.250 156075008 155189552 153619392 151496768 149000448 146335792 
1061.144 143736928 141422528 139582704 138377472 137912704 138247584 
1064.037 139396224 141331360 143985904 147250800 150989840 155028224 
1066.930 159163584 163198032 166934064 170202992 172885840 174902560 
1069.823 176215104 176816928 176721392 175955568 174554256 172561824 
1072.716 170028224 167008384 163568976 159786112 155753952 151594880 
1075.609 147447984 143472496 139840592 136706144 134207248 132451296 
1078.502 131499720 131372768 132040024 133423520 135386288 137735856 
1081.395 140247280 142653008 144690944 146148336 146878240 146844752 
1084.288 146122832 144895456 143410384 141943904 140781632 140159184 
1087.181 140258096 141193280 142998320 145630608 148967360 152829776 
1090.074 156978784 161139344 165050032 168459184 171163552 173028736 
1092.967 173976928 173992224 173107904 171400032 168973392 165946864 
1095.860 162452720 158615696 154548048 150353840 146119856 141920976 
1098.753 137823408 133874448 130102440 126509968 123074112 119750400 
1101.646 116483512 113227512 109955784 106675616 103426720 100281944 
1104.540 97334296 94676944 92403960 90593240 89300128 88563712 88402232 
1107.915 88817064 89794848 91309392 93322992 95782728 98627096 101780720 
1111.290 105149504 108629040 112093104 115395592 118391088 120931536 
1114.183 122888080 124172520 124735912 124577600 123736616 122287816 
1117.076 120328416 117963872 115308128 112465608 109522920 106550672 
1119.969 103594544 100680672 97823856 95033464 92322040 89709696 87222536 
1123.344 84891728 82749400 80822152 79131968 77696600 76529224 75643640 
1126.720 75054360 74775328 74819616 75195112 75901840 76928872 78252968 
1130.095 79838816 81633672 83570632 85570056 87535264 89370128 90987240 
1133.470 92319288 93338192 94058312 94539536 94869776 95157568 95512808 
1136.845 96021352 96740896 97687664 98834888 100113056 101417104 102627192 
1140.221 103608552 104236904 104415368 104072400 103173184 101714048 
1143.114 99716984 97223248 94289288 90988592 87403056 83623168 79746440 
1146.489 75861872 72051592 68386720 64919008 61687088 58716276 56018616 
1149.864 53597772 51449504 49564072 47927180 46522384 45332736 44341848 
1153.240 43536608 42907836 42449464 42157820 42030596 42065164 42259080 
1156.615 42610216 43118336 43785784 44617668 45621000 46802024 48165820 
1159.990 49714028 51445028 53352792 55425880 57646808 59986380 62402272 
1163.365 64841448 67235064 69507424 71583936 73389296 74858664 75941152 
1166.740 76597672 76808520 76572736 75909936 74856304 73462552 71789264 
1170.116 69896288 67842952 65685600 63471904 61246820 59050952 56917992 
1173.491 54878800 52958088 51173752 49539036 48062100 46746968 45595716 
1176.866 44608928 43786004 43126056 42626920 42285848 42099700 42066224 
1180.241 42184768 42456772 42885380 43474636 44228068 45147848 46234296 
1183.617 47485736 48897960 50462256 52161836 53970616 55846984 57734260 
1186.992 59568008 61272880 62775908 64015300 64939560 65518580 65742880 
1190.367 65625704 65200516 64517700 63642932 62644720 61592428 60552504 
1193.742 59579184 58718056 58004860 57462956 57107016 56941560 56960756 
1197.118 57147792 57473776 57900696 58377952 58847040 59246568 59508912 
1200.493 59570288 59375860 58882288 58068676 56939864 55529224 53893188 
1203.868 52104712 50247456 48397260 46621272 44971676 43481268 42168444 
1207.243 41038828 40089512 39311336 38691468 38215672 37867632 37631652 
1210.619 37494840 37446836 37481692 37597472 37794176 38072160 38430972 
1213.994 38868048 39379132 39958604 40598908 41290840 42021800 42775452 
1217.369 43533348 44275396 44982072 45638520 46233556 46760472 47215732 
1220.744 47597672 47906756 48145460 48321372 48447676 48542520 48630824 
1224.120 48739236 48893324 49117284 49429016 49839512 50352256 50962436 
1227.495 51656576 52411748 53200372 53989864 54747156 55445380 56064836 
1230.870 56595824 57039148 57406116 57717948 58003496 58302572 58662492 
1234.245 59133596 59771156 60626220 61741248 63150896 64877728 66934340 
1237.621 69325048 72047176 75090600 78433856 82044888 85876096 89863552 
1240.996 93937280 98017976 102023504 105876472 109497944 112810448 115745544 
1244.371 118240328 120247072 121737048 122698960 123137336 123067472 
1247.264 122514448 121509816 120091736 118307192 116204496 113828432 
1250.157 111215584 108386784 105350056 102106488 98660528 95030208 91255920 
1253.532 87396576 83531920 79752616 76143376 72784576 69738384 67041656 
1256.908 64708756 62727780 61065292 59665880 58460128 57372688 56321764 
1260.283 55235708 54058044 52750208 51298128 49709196 48010176 46238348 
1263.658 44439140 42659708 40940512 39316592 37813408 36445436 35218572 
1267.033 34130124 33171736 32330558 31593018 30946558 30380760 29887638 
1270.409 29461664 29097678 28790608 28535554 28327792 28164320 28044132 
1273.784 27968398 27939562 27959740 28029962 28147988 28308342 28500526 
1277.159 28710670 28919396 29103206 29238644 29302442 29277454 29156390 
1280.534 28941708 28646038 28286592 27883382 27453334 27008722 26557838 
1283.910 26107002 25662606 25234468 24834820 24477984 24178892 23950058 
1287.285 23802086 23744164 23784096 23930314 24191888 24576642 25090444 
1290.660 25735128 26506980 27395556 28381980 29439750 30529462 31602104 
1294.035 32602816 33471360 34156360 34622668 34856804 34870948 34700184 
1297.411 34397736 34021460 33629616 33274498 32995314 32820032 32764074 
1300.786 32829646 33005464 33266484 33578204 33896168 34173924 34371196 
1304.161 34454372 34403120 34210992 33883880 33438188 32897904 32294046 
1307.536 31659052 31025094 30421910 29872056 29390038 28983112 28652020 
1310.912 28394748 28209328 28095668 28055622 28091534 28204094 28391246 
1314.287 28648728 28971566 29356076 29801180 30307990 30879314 31517338 
1317.662 32222882 32996100 33836704 34744868 35720984 36763304 37865496 
1321.037 39012144 40179636 41333584 42430432 43425204 44272020 44932136 
1324.413 45383496 45624680 45681360 45602228 45460048 45336820 45307504 
1327.788 45433928 45748616 46252576 46917444 47696216 48536332 49386912 
1331.163 50212828 50995376 51731744 52432464 53117236 53812020 54543452 
1334.538 55337124 56213396 57182228 58241376 59374224 60553952 61743236 
1337.914 62900356 63984736 64955256 65775528 66417552 66861400 67101052 
1341.289 67143088 67006200 66716224 66301584 65791300 65209264 64574324 
1344.664 63901008 63198416 62472552 61727344 60964888 60185764 59388396 
1348.039 58569544 57724572 56849476 55944440 55016164 54081124 53164604 
1351.415 52303984 51543700 50930916 50516000 50343512 50447184 50846240 
1354.790 51536836 52488768 53640916 54911884 56202952 57407628 58433516 
1358.165 59202172 59659080 59780204 59570744 59067428 58330652 57449648 
1361.540 56531320 55684500 55016652 54607696 54496116 54675072 55094436 
1364.916 55674480 56312292 56902844 57345768 57550184 57455052 57034312 
1368.291 56304520 55319356 54161064 52923616 51688596 50523260 49472900 
1371.666 48561972 47804912 47212004 46794276 46564500 46532596 46698852 
1375.041 47049724 47559300 48196696 48931336 49741408 50615616 51550232 
1378.417 52548784 53619324 54775724 56035692 57421584 58953328 60637000 
1381.792 62451240 64333528 66185072 67866464 69219264 70095912 70362872 
1385.167 69931120 68774432 66952348 64619652 62001592 59369284 56956900 
1388.542 54918056 53317724 52138896 51316884 50765268 50401524 50150716 
1391.917 49946068 49732384 49458012 49079332 48569088 47920704 47152240 
1395.293 46297948 45395816 44473532 43541844 42601260 41651260 40702204 
1398.668 39782556 38934980 38203512 37622080 37202568 36937152 36805028 
1402.043 36782956 36851772 36998808 37218272 37508168 37866224 38287824 
1405.418 38765436 39290116 39854140 40453044 41085628 41753568 42458780 
1408.794 43201408 43978708 44784480 45610508 46448700 47292096 48136020 
1412.169 48977064 49811900 50637020 51449504 52248188 53035800 53819480 
1415.544 54609840 55418768 56257148 57133432 58053184 59018152 60025224 
1418.919 61062160 62107512 63128980 64089292 64950140 65679544 66257240 
1422.295 66675812 66946864 67101432 67189576 67266008 67378632 67558600 
1425.670 67814168 68138960 68521016 68951296 69425840 69943576 70503704 
1429.045 71102488 71735792 72402856 73111216 73877048 74718816 75651608 
1432.420 76679936 77796984 78987288 80235376 81533680 82883360 84295040 
1435.796 85782464 87355496 89009192 90725264 92479024 94241496 95979896 
1439.171 97649280 99193800 100535888 101582272 102244968 102440944 102108592 
1442.546 101214344 99748792 97730976 95207328 92258640 88990528 85518440 
1445.921 81969448 78459968 75094896 71972400 69170224 66738284 64688796 
1449.297 62997380 61616064 60493696 59598908 58927564 58500124 58342060 
1452.672 58465092 58846320 59429692 60121984 60806156 61360912 61665016 
1456.047 61638588 61279480 60688472 60031764 59466660 59095896 58950636 
1459.422 59020812 59282376 59710780 60282748 60969880 61737008 62534384 
1462.798 63297884 63962160 64467376 64780252 64907044 64894544 64811408 
1466.173 64719364 64661028 64650564 64679368 64722940 64747252 64710908 
1469.548 64560368 64233480 63664072 62796428 61614116 60166584 58579440 
1472.923 57014136 55618664 54481468 53620972 53011992 52616588 52407676 
1476.299 52374256 52516104 52829944 53300604 53897536 54582900 55316348 
1479.674 56067208 56820432 57576208 58349184 59161200 60038804 61007556 
1483.049 62094244 63331500 64757676 66415696 68344104 70562872 73056248 
1486.424 75754480 78539336 81231240 83604728 85424936 86454864 86508192 
1489.800 85499848 83471272 80596160 77125696 73335512 69447928 65601504 
1493.175 61872660 58282412 54832784 51541984 48452900 45639696 43193504 
1496.550 41191084 39670696 38623412 38008796 37771152 37856928 38224316 
1499.925 38836848 39660276 40660032 41795304 43021304 44293592 45555972 
1503.301 46742320 47770848 48522028 48843340 48561080 47523624 45689496 
1506.676 43191856 40317048 37370492 34561064 31966622 29575326 27346080 
1510.051 25248200 23271694 21431428 19753308 18255952 16947196 15818311 
1513.426 14850042 14019318 13303900 12684184 12141021 11656836 11218647 
1516.802 10820608 10466412 10165719 9926692 9748346 9617158 9507448 9391299 
1520.659 9248778 9081571 8913786 8781802 8711820 8706850 8748736 8809156 
1524.516 8863531 8897281 8912128 8921430 8942840 8987488 9054301 9133307 
1528.374 9213206 9288788 9363671 9447879 9551105 9676208 9816801 9957915 
1532.231 10082185 10179830 10254901 10326151 10416384 10541838 10704140 
1535.606 10893208 11092691 11287674 11469069 11631752 11773729 11892867 
1538.982 11982642 12034521 12043275 12015138 11967827 11923347 11897226 
1542.357 11890688 11891879 11881016 11841449 11766274 11662894 11549161 
1545.732 11446275 11367426 11312704 11271113 11226704 11167070 11088713 
1549.107 10999395 10913594 10846935 10806409 10788711 10782801 10776789 
1552.483 10763983 10745676 10730800 10730868 10755119 10805186 10875541 
1555.858 10955353 11032054 11090889 11114343 11083445 10983354 10817211 
1559.233 10614119 10421033 10277361 10197875 10175522 10189870 10216906 
1562.608 10233257 10222062 10176574 10101821 10012399 9927200 9861371 
1565.984 9818937 9792943 9768678 9730794 9667840 9576848 9463253 9339904 
1569.841 9222751 9124340 9053151 9013232 9005011 9026797 9073654 9136691 
1573.698 9201530 9251351 9270542 9250944 9198857 9134592 9085462 9070846 
1577.556 9095037 9149414 9220516 9296404 9371187 9445272 9522993 9609503 
1581.413 9707414 9816395 9933743 10056650 10182713 10310339 10436781 
1584.789 10556028 10658873 10735692 10778759 10786265 10764323 10725842 
1588.164 10687330 10665223 10673746 10722751 10819317 10968572 11173767 
1591.539 11434369 11742103 12079488 12418023 12721952 12957164 13095306 
1594.914 13121737 13037736 12859780 12614354 12330579 12038199 11762085 
1598.290 11521566 11333075 11208820 11156394 11179003 11274990 11439437 
1601.665 11666671 11952601 12294889 12691109 13135876 13617133 14114942 
1605.040 14604619 15057353 15444601 15743371 15935024 16009137 15963107 
1608.415 15801989 15536693 15182817 14760837 14294097 13808020 13329797 
1611.791 12881931 12480081 12130833 11831336 11571721 11338211 11116859 
1615.166 10896266 10670248 10442415 10224946 10036915 9895674 9812227 
1618.541 9787926 9815344 9881438 9970832 10069197 10164701 10252289 10333819 
1622.398 10418216 10517124 10639755 10789832 10964461 11157687 11363992 
1625.774 11580671 11807196 12043207 12286641 12532462 12773952 13006154 
1629.149 13228026 13443382 13658880 13880505 14110561 14346697 14580838 
1632.524 14802660 15000929 15164495 15284121 15353627 15372026 15345388 
1635.899 15287416 15216857 15149947 15096152 15056324 15024596 14990914 
1639.275 14944340 14877334 14787953 14681659 14568879 14461851 14368959 
1642.650 14291906 14225001 14157080 14075102 13966860 13825875 13653136 
1646.025 13459377 13262972 13085403 12947127 12860599 12830395 12853160 
1649.400 12919717 13015441 13119074 13203604 13233458 13171429 12996082 
1652.776 12726046 12426684 12174789 12017045 11951444 11949196 11975933 
1656.151 12006145 12025766 12029547 12018851 11997731 11969496 11934722 
1659.526 11891130 11833889 11758273 11660000 11537115 11390726 11226058 
1662.901 11052786 10882404 10727608 10597924 10497062 10422798 10367040 
1666.277 10317396 10258972 10177863 10063941 9913640 9731776 9530004 9323824 
1670.134 9127893 8952344 8801920 8676494 8570975 8476394 8380720 8268788 
1673.991 8126569 7947408 7737222 7516382 7310954 7142571 7019038 6933514 
1677.849 6870258 6812665 6749696 6679199 6607771 6546479 6504502 6481934 
1681.706 6468313 6442014 6378090 6256522 6075107 5856656 5643048 5471620 
1685.564 5357316 5293048 5259944 5239453 5217588 5186637 5144389 5091416 
1689.421 5030573 4965381 4901373 4845448 4804472 4783768 4783701 4798609 
1693.279 4815461 4817404 4787453 4715297 4605914 4481426 4373072 4303762 
1697.136 4279268 4286797 4303395 4301186 4256012 4156579 4012723 3854807 
1700.993 3718403 3626143 3579269 3564836 3564770 3562799 3547265 3511322 
1704.851 3454373 3381971 3303638 3228790 3164736 3113941 3074997 3044331 
1708.708 3017538 2992182 2968027 2947344 2933433 2929463 2936702 2954016 
1712.566 2977802 3003959 3029183 3051472 3070358 3085542 3094285 3091782 
1716.423 3071293 3027882 2963257 2886600 2814126 2760236 2733828 2735595 
1720.281 2759970 2798085 2841440 2884099 2923025 2957919 2989780 3019941 
1724.138 3049136 3077366 3104797 3132062 3160164 3189669 3219811 3248185 
1727.995 3270953 3285142 3290250 3289181 3287345 3289782 3297728 3306242 
1731.853 3302903 3269718 3189603 3054008 2873158 2675548 2498688 2370305 
1735.710 2297617 2271503 2274600 2289356 2300881 2299715 2281728 2248488 
1739.568 2205625 2160569 2120245 2089514 2070204 2062846 2066874 2081224 
1743.425 2104629 2135761 2173289 2216349 2263576 2313339 2362642 2408353 
1747.282 2446637 2474161 2489390 2491756 2481892 2461065 2430077 2390494 
1751.140 2344953 2298449 2256914 2226073 2209321 2206224 2212585 2220944 
1754.997 2223276 2212918 2187542 2150346 2108991 2072900 2047599 2034050 
1758.855 2027924 2022465 2010448 1987180 1951366 1906003 1856686 1809569 
1762.712 1770110 1741899 1726263 1723136 1731120 1747122 1766018 1782354 
1766.570 1790405 1787244 1774136 1756736 1742697 1737740 1743296 1755039 
1770.427 1764920 1763723 1745558 1711294 1669083 1630102 1603695 1592721 
1774.284 1594350 1602398 1611078 1617630 1623118 1630401 1641709 1656976 
1778.142 1673008 1684949 1688076 1680725 1665025 1646632 1631964 1624980 
1781.999 1626177 1632596 1639681 1643140 1640944 1633428 1623151 1612908 
1785.857 1605159 1601833 1603928 1612841 1629703 1655047 1687344 1722737 
1789.714 1755073 1776864 1781555 1765918 1732118 1687144 1640246 1599738 
1793.572 1570141 1551286 1540280 1533430 1528077 1522557 1516273 1509323 
1797.429 1500911 1490205 1476441 1459352 1439638 1418695 1398451 1380601 
1801.286 1366009 1355340 1348958 1347063 1350587 1359328 1372723 1389044 
1805.144 1405664 1420058 1430962 1438441 1443694 1448880 1455529 1463741 
1809.001 1472618 1480131 1484520 1484886 1482160 1477571 1472884 1469459 
1812.859 1467697 1467730 1469360 1473150 1479932 1490571 1505866 1525649 
1816.716 1549225 1575595 1603496 1632530 1662198 1692167 1722138 1751047 
1820.573 1778727 1804446 1828402 1850663 1870762 1887367 1898948 1904340 
1824.431 1904340 1902310 1903641 1913991 1936422 1969872 2009250 2046067 
1828.288 2071602 2080325 2072001 2053125 2033783 2024895 2032918 2058418 
1832.146 2097071 2142254 2188041 2230769 2269937 2306544 2343020 2380433 
1836.003 2419348 2459666 2501254 2545046 2592742 2646844 2709188 2781078 
1839.861 2862452 2952281 3048836 3150285 3253426 3354589 3449530 3534905 
1843.718 3609237 3674927 3737018 3801457 3871956 3948654 4027438 4101854 
1847.575 4164775 4211144 4238981 4249152 4244100 4225966 4195553 4151628 
1851.433 4092622 4017806 3929261 3831541 3730835 3631957 3537610 3447393 
1855.290 3358997 3269685 3178688 3087377 2999121 2916988 2843007 2776676 
1859.148 2716289 2659612 2605342 2553978 2506453 2463664 2425379 2389928 
1863.005 2355879 2322700 2292121 2267439 2251985 2247389 2251918 2261344 
1866.863 2268672 2268405 2258213 2239628 2217881 2198731 2186709 2182447 
1870.720 2184145 2188274 2192271 2194935 2196234 2196833 2196633 2195201 
1874.577 2191571 2184944 2175853 2165330 2154941 2144419 2132731 2117015 
1878.435 2094641 2064944 2029422 1992273 1958156 1931264 1912859 1901378 
1882.292 1893424 1885737 1876619 1866669 1858250 1853824 1854689 1860146 
1886.150 1867600 1873524 1875121 1870262 1857684 1837220 1809669 1776465 
1890.007 1741000 1708167 1683419 1671478 1674704 1692200 1719278 1749384 
1893.865 1775966 1795196 1806775 1813662 1819917 1829001 1841545 1855654 
1897.722 1868033 1876818 1881810 1885104 1889797 1898150 1911228 1927503 
1901.579 1944776 1961684 1978027 1994570 2012845 2032185 2050528 2064611 
1905.437 2071302 2069904 2062047 2051993 2044170 2041840 2044969 2051194 
1909.294 2057220 2060549 2060316 2058352 2056820 2056887 2058918 2061381 
1913.152 2062913 2063845 2065343 2069105 2075863 2082988 2085485 2076829 
1917.009 2052160 2011447 1960253 1908366 1865204 1836388 1821880 1815858 
1920.866 1810900 1800519 1782553 1759364 1736010 1717348 1705839 1700550 
1924.724 1698387 1696691 1694728 1695127 1701082 1715186 1737241 1763889 
1928.581 1790438 1812664 1828169 1837453 1842710 1846037 1847435 1846137 
1932.439 1839882 1828236 1812597 1796593 1783884 1777163 1776465 1779725 
1936.296 1784117 1788242 1793033 1801651 1816723 1838850 1865138 1890096 
1940.154 1907701 1914357 1910297 1900080 1891660 1891061 1902409 1925606 
1944.011 1957291 1993438 2030255 2066375 2100501 2131866 2160169 2185011 
1947.868 2207956 2232634 2263609 2305678 2359910 2422413 2485458 2538980 
1951.726 2574343 2588175 2583009 2565743 2544713 2525882 2510685 2497055 
1955.583 2480693 2458400 2430477 2399657 2369805 2344286 2323166 2304112 
1959.441 2285559 2266873 2250986 2243358 2248821 2269205 2302613 2342954 
1963.298 2384597 2423679 2459366 2492823 2525682 2557244 2583876 2600375 
1967.156 2604209 2595909 2583042 2574710 2579243 2600708 2636143 2678581 
1971.013 2718824 2750700 2772408 2786714 2798118 2810291 2825165 2842641 
1974.870 2864587 2895106 2942006 3013201 3112539 3236335 3371920 3499998 
1978.728 3603891 3670683 3696948 3687191 3651069 3598980 3539080 3476784 
1982.585 3415532 3357528 3305975 3263809 3233230 3214470 3204456 3199349 
1986.443 3195210 3189903 3184362 3181425 3183828 3192273 3205291 3219243 
1990.300 3229658 3234198 3232329 3225285 3215038 3202887 3188501 3171045 
1994.157 3150852 3128725 3107834 3091949 3083239 3083206 3090514 3102794 
1998.015 3118446 3136468 3156626 3178721 3200250 3217107 3224117 3216740 
2001.872 3193675 3158796 3117912 3079268 3049670 3032453 3028182 3035422 
2005.730 3053307 3082505 3124119 3179155 3244914 3315190 3379734 3430293 
2009.587 3461387 3473143 3469603 3457980 3444754 3432364 3422078 3413862 
2013.445 3408820 3411091 3426353 3458414 3507714 3568144 3630119 3683181 
2017.302 3720575 3742398 3755834 3770239 3794337 3832310 3882487 3938622 
2021.159 3992658 4039176 4074828 4099546 4114096 4118746 4113327 4098509 
2025.017 4075798 4049577 4025632 4009379 4004430 4010482 4025097 4044560 
2028.874 4066300 4090816 4119649 4155208 4196825 4241524 4284220 4320796 
2032.732 4349309 4371499 4391849 4415011 4443330 4475668 4508745 4538342 
2036.589 4562382 4581603 4597843 4613783 4629690 4643790 4653000 4654842 
2040.447 4648813 4637460 4624801 4613783 4605646 4598279 4588099 4572863 
2044.304 4552103 4529268 4510720 4502183 4508477 4531043 4568945 4618572 
2048.161 4675975 4735965 4792143 4837440 4863809 4865518 4841360 4796331 
2052.019 4741559 4691348 4660301 4657387 4683812 4731308 4786984 4836770 
2055.876 4871013 4886058 4885020 4874465 4860190 4846520 4834626 4824172 
2059.734 4815494 4810101 4810603 4819314 4835832 4856605 4875537 4886092 
2063.591 4884216 4869371 4844778 4815930 4788525 4766850 4752881 4747019 
2067.448 4748861 4757805 4772981 4792378 4812613 4828594 4835832 4831375 
2071.306 4815327 4791205 4764271 4739884 4720824 4707292 4697176 4687932 
2075.163 4678286 4668774 4661942 4660602 4665693 4676176 4689272 4701832 
2079.021 4711412 4718077 4722800 4727490 4732682 4738008 4741424 4741860 
2082.878 4739482 4735998 4734993 4739180 4749699 4764606 4780452 4791942 
2086.736 4795259 4788324 4770971 4744774 4711445 4672860 4630461 4585487 
2090.593 4540518 4498734 4463951 4439313 4426760 4426358 4436400 4454778 
2094.450 4479116 4506635 4536199 4565430 4592251 4614755 4631666 4643622 
2098.308 4652698 4662076 4674334 4690344 4708196 4724509 4735529 4739013 
2102.165 4736065 4730404 4727590 4732246 4747655 4773751 4808492 4849066 
2106.023 4892627 4937531 4982508 5025880 5065502 5099160 5124573 5141841 
2109.880 5153240 5162293 5172654 5186235 5202196 5216951 5225603 5225067 
2113.738 5214269 5196328 5175907 5158572 5148144 5146099 5150994 5160080 
2117.595 5170408 5179730 5187174 5192237 5195490 5197569 5199715 5204745 
2121.452 5215777 5235697 5266518 5306699 5352552 5397471 5435248 5461923 
2125.310 5477156 5483733 5486954 5491450 5499236 5509437 5518531 5522893 
2129.167 5519739 5509302 5494336 5478532 5466553 5461654 5465949 5481216 
2133.025 5507994 5545948 5593371 5645901 5696960 5739766 5768675 5782173 
2136.882 5783214 5777640 5772906 5773913 5781468 5792314 5801918 5805813 
2140.740 5803328 5797283 5792516 5792918 5800037 5811353 5821764 5826633 
2144.597 5823006 5810783 5792851 5771932 5749603 5725363 5697531 5665136 
2148.454 5629688 5595116 5565783 5545109 5532759 5524605 5514336 5494437 
2152.312 5460278 5408911 5339939 5253505 5150525 5033221 4907069 4784840 
2156.169 4686157 4634245 4652464 4753518 4934147 5170408 5426056 5661443 
2160.027 5843894 5956949 6000452 5985671 5931051 5853634 5768742 5685915 
2163.884 5610791 5546183 5491987 5445549 5402369 5357316 5305927 5245893 
2167.741 5179093 5110157 5044786 4987938 4942357 4906231 4875805 4846319 
2171.599 4813920 4777135 4736032 4692353 4648378 4606215 4567640 4534023 
2175.456 4506502 4485477 4468805 4453004 4433455 4405371 4367048 4320863 
2179.314 4272441 4230516 4202010 4191304 4197092 4214189 4234330 4250826 
2183.171 4258354 4255175 4241022 4216397 4181536 4138281 4088475 4037303 
2187.029 3991488 3958183 3942133 3943939 3959387 3981088 4001855 4017037 
2190.886 4026401 4033391 4042119 4056567 4076501 4099947 4123496 4145473 
2194.743 4166348 4188929 4216062 4248684 4284956 4319424 4346297 4361124 
2198.601 4363299 4355032 4340909 4325214 4310455 4296835 4283584 4269697 
2202.458 4255477 4242962 4233627 4228575 4226501 4225363 4222519 4217267 
2206.316 4211512 4208635 4212348 4224795 4244268 4266385 4285525 4296969 
2210.173 4298408 4290745 4277226 4261801 4247546 4236137 4228475 4224426 
2214.031 4224460 4228910 4237274 4248517 4259927 4268560 4272475 4271906 
2217.888 4269363 4268292 4272173 4281309 4293857 4305335 4310355 4304967 
2221.745 4288302 4261466 4227973 4190970 4152364 4113394 4074427 4036166 
2225.603 4000852 3970689 3947985 3933607 3926586 3924111 3924111 3924479 
2229.460 3925951 3929662 3937285 3949189 3963566 3977142 3986138 3988478 
2233.318 3984198 3975738 3966877 3960758 3959253 3962697 3969886 3979784 
2237.175 3992057 4006703 4024628 4045765 4069410 4093726 4116572 4136474 
2241.032 4152598 4165210 4175547 4184647 4194114 4204988 4218806 4237174 
2244.890 4261667 4292519 4329129 4368487 4406810 4440518 4467366 4487184 
2248.747 4502584 4516545 4531311 4547616 4563521 4576178 4582942 4582842 
2252.605 4577451 4570252 4565296 4565162 4570352 4578924 4586994 4590711 
2256.462 4586793 4574269 4553710 4527092 4497328 4467834 4441589 4421237 
2260.320 4408082 4402091 4401187 4402091 4401054 4395129 4383113 4366579 
2264.177 4348539 4333111 4323004 4319022 4320160 4323607 4326954 4328795 
2268.034 4329229 4329698 4331773 4335755 4340976 4346030 4348941 4348607 
2271.892 4345494 4340742 4336358 4333680 4334116 4338466 4346799 4359517 
2275.749 4376687 4397472 4420467 4443330 4462980 4476538 4482497 4481426 
2279.607 4475801 4468973 4464788 4465993 4474094 4489293 4510419 4535830 
2283.464 4563521 4591012 4615826 4636020 4649918 4657421 4659899 4660066 
2287.322 4660803 4664722 4672358 4683276 4695167 4705918 4714627 4721527 
2291.179 4728897 4739348 4755059 4777001 4804506 4835832 4868701 4901473 
2295.036 4933007 4962767 4990250 5014852 5035434 5051121 5061781 5068117 
2298.894 5071603 5074520 5078610 5085214 5094601 5106738 5121690 5139393 
2302.751 5160416 5184860 5212592 5242405 5272555 5301265 5327260 5350439 
2306.609 5371573 5392137 5413508 5436255 5460647 5485679 5511014 5536283 
2310.466 5561856 5588504 5616832 5647344 5679873 5713780 5748831 5784121 
2314.323 5819615 5854910 5889905 5924165 5957554 5990273 6023197 6057366 
2318.181 6094193 6135122 6180492 6230740 6285297 6343627 6404352 6465186 
2322.038 6522564 6571002 6604339 6616417 6603027 6563500 6501744 6425907 
2325.896 6345913 6272153 6213060 6173333 6153269 6149404 6156496 6168292 
2329.753 6179887 6187919 6191213 6190171 6186609 6183416 6183718 6190373 
2333.611 6205901 6230908 6264623 6304392 6346854 6389052 6429236 6467035 
2337.468 6503796 6540963 6579748 6619613 6659112 6696056 6728731 6756292 
2341.325 6778975 6797688 6812699 6822763 6825187 6816368 6792808 6752860 
2345.183 6698345 6633878 6568075 6510556 6470802 6457148 6474905 6526365 
2349.040 6610529 6723549 6858846 7007487 7160794 7310347 7450210 7577879 
2352.898 7693780 7800031 7898479 7989998 8073603 8148277 8212698 8267809 
2356.755 8315699 8359710 8402880 8446426 8490113 8532620 8571246 8604432 
2360.613 8630559 8649351 8660472 8664562 8662128 8654962 8645160 8635121 
2364.470 8626875 8620520 8614910 8607036 8593584 8572361 8542893 8506872 
2368.327 8467238 8427204 8388895 8352380 8316847 8280845 8243596 8205405 
2372.185 8167622 8132004 8099359 8069923 8042819 8017133 7991854 7966981 
2376.042 7942886 7920480 7900133 7882047 7866088 7852457 7842100 7836499 
2379.900 7837916 7848004 7867471 7895645 7930603 7969377 8009539 8048793 
2383.757 8086363 8121876 8155603 8188084 8219081 8248999 8277670 8305296 
2387.615 8331911 8357345 8381294 8402914 8421258 8436055 8447204 8455447 
2391.472 8461630 8466394 8469874 8471597 8471124 8468286 8463860 8459670 
2395.329 8457948 8460920 8469671 8484403 8503628 8525388 8547928 8570333 
2399.187 8592739 8615823 8641071 8669835 8703166 8741907 8786739 8838067 
2403.044 8895523 8958939 9026899 9098319 9171885 9247221 9324975 9406230 
2406.902 9492310 9584164 9681595 9783420 9887979 9993650 10100125 10207679 
2410.759 10317566 10430196 10545810 10662608 10778249 10889878 10995486 
2414.134 11093710 11184272 11267508 11343380 11411577 11471177 11521362 
2417.510 11562091 11594045 11618956 11639171 11656665 11672628 11687673 
2420.885 11701390 11713406 11723754 11732468 11740332 11747685 11755140 
2424.260 11762869 11771448 11781899 11796267 11817138 11847510 11890382 
2427.635 11947323 12019157 12105280 12204266 12314012 12432037 12556097 
2431.010 12684150 12814151 12945420 13077754 13211904 13349068 13490958 
2434.386 13638468 13792252 13952215 14117544 14287386 14461885 14641183 
2437.761 14826213 15018215 15217680 15424997 15639728 15860787 16086804 
2441.136 16316758 16549313 16783956 17020138 17258070 17498132 17740848 
2444.511 17986980 18237188 18491762 18750702 19013470 19279756 19548526 
2447.887 19819336 20091148 20362784 20632366 20897802 21156862 21407512 
2451.262 21648732 21880118 22102110 22315634 22521412 22719850 22910940 
2454.637 23094530 23270156 23437706 23596120 23743954 23878886 23997434 
2458.012 24096086 24171570 24221876 24246298 24245630 24221632 24175738 
2461.388 24109502 24023696 23919248 23797326 23659726 23509228 23349204 
2464.763 23183260 23014796 22847234 22683890 22528216 22384006 22255226 
2468.138 22145692 22058776 21996624 21960272 21949258 21962990 21999622 
2471.513 22057486 22134884 22229136 22337506 22456996 22584232 22716498 
2474.889 22851424 22987370 23123568 23259426 23394554 23528118 23659236 
2478.264 23786440 23908048 24021526 24124002 24212558 24283926 24335756 
2481.639 24367190 24378790 24372902 24352436 24320616 24280038 24231792 
2485.014 24176686 24114930 24047336 23975338 23900870 23826132 23752634 
2488.390 23680720 23609240 23536058 23459214 23376512 23286414 23188292 
2491.765 23081844 22966688 22842798 22709866 22568002 22417604 22259408 
2495.140 22094196 21922598 21744308 21559164 21366058 21164690 20954998 
2498.515 20737624 20513966 20285910 20055476 19824366 19594418 19366602 
2501.891 19142368 18921952 18705732 18493560 18284808 18079334 17876928 
2505.266 17678584 17485748 17300860 17126008 16962770 16811716 16672283 
2508.641 16542671 16421080 16305441 16194476 16087113 15983010 15881646 
2512.016 15783057 15687408 15595592 15508672 15428396 15356201 15293285 
2515.392 15239781 15195239 15158867 15129430 15106650 15090492 15081092 
2518.767 15079034 15083562 15093922 15108502 15125724 15144424 15164049 
2522.142 15184740 15207146 15231853 15259377 15289681 15322803 15357986 
2525.517 15394443 15431073 15466369 15498680 15526632 15549297 15566777 
2528.893 15579141 15587212 15591333 15591023 15585083 15572375 15551598 
2532.268 15523060 15488138 15449202 15409102 15369863 15332413 15296511 
2535.643 15260817 15224785 15187965 15151628 15117250 15086924 15061744 
2539.018 15042123 15027408 15016741 15009229 15004633 15002850 15003536 
2542.394 15006348 15009778 15012145 15012076 15008406 15001032 14990777 
2545.769 14978739 14966015 14953291 14941048 14929320 14918620 14909533 
2549.144 14902949 14899280 14898354 14898834 14899177 14897565 14892764 
2552.519 14884639 14873837 14861836 14849938 14839001 14829470 14820659 
2555.895 14812122 14803174 14793850 14784285 14775234 14766664 14758712 
2559.270 14750862 14742292 14732009 14718710 14701538 14679911 14653726 
2562.645 14623295 14589611 14553666 14516629 14479596 14442805 14406531 
2566.020 14370671 14335191 14300775 14268314 14238901 14213806 14193367 
2569.396 14177687 14165912 14157319 14151158 14147289 14145920 14147700 
2572.771 14153143 14162728 14176490 14194599 14216715 14242839 14272799 
2576.146 14305637 14340328 14374952 14408004 14438455 14466509 14493368 
2579.521 14520878 14551474 14586012 14624837 14667195 14711648 14757237 
2582.896 14803518 14851173 14901131 14954251 15010395 15068948 15128504 
2586.272 15187999 15246987 15306053 15366259 15428945 15494628 15562862 
2589.647 15632480 15701665 15769277 15834702 15898246 15960734 16023027 
2593.022 16085360 16147360 16208129 16266534 16322196 16374663 16424591 
2596.397 16472666 16519886 16567109 16614961 16663814 16714429 16767185 
2599.773 16822806 16881880 16944476 17010800 17080238 17152134 17225800 
2603.148 17300374 17375618 17451254 17527800 17605878 17686454 17770462 
2606.523 17858596 17951028 18047558 18147942 18251528 18358114 18467630 
2609.898 18580006 18694766 18811008 18927074 19040820 19150262 19254160 
2613.274 19352190 19445150 19534766 19622498 19709516 19795962 19880936 
2616.649 19963182 20041214 20114054 20181768 20244806 20303964 20360214 
2620.024 20414248 20466380 20516954 20566214 20614506 20662594 20711176 
2623.399 20760806 20812074 20865296 20920368 20977288 21035538 21094804 
2626.775 21154496 21213780 21272444 21330524 21388368 21446744 21506728 
2630.150 21569020 21633930 21700872 21768938 21836806 21903222 21967276 
2633.525 22028902 22088828 22147644 22206610 22266280 22327180 22389450 
2636.900 22452808 22517118 22582278 22648354 22715800 22785248 22856698 
2640.276 22930674 23006830 23084606 23163374 23241912 23319590 23395778 
2643.651 23470440 23543858 23616656 23689714 23764112 23840134 23918654 
2647.026 23999850 24084072 24171326 24261888 24355660 24452256 24551502 
2650.401 24652420 24754448 24856956 24959280 25061028 25162134 25263054 
2653.777 25364102 25466052 25569360 25674910 25782698 25893012 26005570 
2657.152 26119880 26235664 26352534 26470318 26588802 26707740 26826642 
2660.527 26944624 27060592 27173454 27282462 27387792 27489900 27589986 
2663.902 27689598 27789694 27891368 27994408 28098638 28203424 28307952 
2667.278 28411656 28513724 28614008 28712442 28808950 28903670 28997424 
2670.653 29090840 29184776 29280112 29377100 29476094 29577170 29680044 
2674.028 29784644 29890832 29998252 30106622 30215304 30323588 30430724 
2677.403 30536500 30641238 30745748 30851106 30958408 31068370 31181068 
2680.779 31296428 31414208 31534724 31658624 31787552 31922758 32065500 
2684.154 32216780 32376464 32544136 32719270 32901124 33089734 33284802 
2687.529 33486500 33694848 33909204 34129228 34354128 34583200 34816052 
2690.904 35052444 35291844 35534248 35779344 36027168 36278160 36533080 
2694.280 36792944 37058780 37331200 37610300 37895648 38186472 38481832 
2697.655 38781124 39084104 39390704 39701080 40015276 40333588 40655736 
2701.030 40981548 41310848 41643092 41977492 42312692 42647356 42979784 
2704.405 43308548 43632436 43950772 44262996 44568468 44865996 45154136 
2707.781 45430764 45694248 45942968 46176396 46394204 46596740 46784604 
2711.156 46958272 47118152 47264868 47398884 47521112 47631764 47731200 
2714.531 47819152 47894364 47955560 48001260 48030608 48042892 48038784 
2717.906 48018692 47983904 47935320 47874384 47802804 47722732 47637048 
2721.281 47549276 47463408 47383216 47312304 47253228 47207940 47177616 
2724.657 47162692 47162804 47177760 47207204 47250792 47308540 47380924 
2728.032 47468032 47570352 47687748 47819488 47964256 48120584 48286600 
2731.407 48460828 48641980 48829140 49021352 49217580 49416276 49615584 
2734.782 49813720 50008860 50199736 50385448 50565472 50739312 50906624 
2738.158 51067408 51221432 51369312 51512360 51651948 51789904 51927900 
2741.533 52066648 52207232 52349696 52494488 52642244 52793608 52949516 
2744.908 53110836 53278204 53451932 53632032 53818096 54009376 54204272 
2748.283 54400716 54595484 54784668 54964532 55131340 55282364 55416696 
2751.659 55534424 55636664 55725144 55801508 55867184 55923300 55970520 
2755.034 56009272 56039352 56059824 56069212 56065176 56045272 56007120 
2758.409 55949492 55871708 55773892 55656812 55520980 55366744 55194240 
2761.784 55003792 54796208 54573020 54336464 54089156 53833584 53572428 
2765.160 53307836 53042240 52778116 52518272 52265268 52021900 51790052 
2768.535 51571308 51366372 51176060 51001484 50843784 50704340 50584344 
2771.910 50483580 50401412 50335776 50284472 50244740 50214572 50192484 
2775.285 50176932 50166632 50159604 50153468 50145140 50131416 50109176 
2778.661 50075300 50027596 49963428 49881208 49779940 49660124 49523512 
2782.036 49373472 49214648 49051920 48889468 48731044 48578092 48431448 
2785.411 48290856 48155936 48025980 47900504 47778352 47657976 47536600 
2788.786 47411964 47281268 47142564 46994968 46839228 46676312 46508220 
2792.162 46337060 46165044 45994096 45826448 45664688 45511152 45368340 
2795.537 45237928 45121160 45018200 44928752 44852108 44787012 44733092 
2798.912 44690008 44657656 44636176 44625964 44627248 44639844 44663348 
2802.287 44697136 44739480 44789032 44843548 44901636 44961824 45023088 
2805.663 45085244 45147812 45210464 45272308 45332332 45388976 45440772 
2809.038 45486020 45523628 45552220 45570840 45578676 45574852 45558808 
2812.413 45530216 45488820 45434848 45368228 45288968 45197444 45094504 
2815.788 44981964 44863020 44741756 44623688 44513984 44417668 44339056 
2819.164 44281120 44245860 44234928 44249420 44290332 44358140 44453088 
2822.539 44573864 44718032 44882420 45062672 45254032 45452396 45653020 
2825.914 45851824 46044968 46228212 46397596 46549676 46681512 46791284 
2829.289 46878056 46942248 46985036 47008444 47014832 47006672 46986624 
2832.665 46956868 46919436 46876060 46827936 46776232 46721472 46664988 
2836.040 46607252 46548936 46491072 46433840 46377796 46323752 46272700 
2839.415 46226372 46186640 46156312 46137964 46134056 46146880 46178680 
2842.790 46231492 46307904 46411276 46545100 46713760 46920360 47167052 
2846.166 47452508 47771552 48114736 48467124 48810008 49122776 49383608 
2849.541 49573840 49679960 49695084 49619896 49462948 49238328 48962636 
2852.916 48654360 48331148 48007072 47694548 47402504 47136620 46900532 
2856.291 46695312 46520168 46372452 46248080 46142716 46051048 45968900 
2859.667 45892440 45818756 45745600 45671460 45594980 45515532 45432052 
2863.042 45344688 45253412 45159576 45064988 44972776 44886496 44811000 
2866.417 44750832 44710872 44695408 44708116 44751676 44827568 44935732 
2869.792 45074912 45240904 45428816 45630640 45837756 46041100 46232008 
2873.167 46404196 46553956 46680704 46786340 46874624 46950184 47017008 
2876.543 47078784 47138020 47196528 47255816 47317592 47383028 47454244 
2879.918 47532680 47619856 47717292 47825700 47945752 48077056 48218208 
2883.293 48366592 48517732 48665960 48805004 48928184 49030108 49106860 
2886.668 49157024 49181920 49185484 49174128 49155688 49139400 49134424 
2890.044 49149716 49193832 49276296 49406364 49595864 49859544 50214424 
2893.419 50681628 51284404 52044980 52984964 54118128 55447488 56959396 
2896.794 58620320 60373472 62135112 63808240 65282880 66449256 67220600 
2900.169 67536848 67378592 66767184 65762116 64450472 62926360 61289320 
2903.545 59626576 58005580 56479352 55082060 53832796 52741380 51809124 
2906.920 51032344 50404016 49915852 49559424 49326772 49212128 49209824 
2910.295 49314340 49519060 49814164 50185900 50617884 51089696 51578812 
2913.670 52063844 52523244 52937912 53293148 53577864 53785840 53915656 
2917.046 53969640 53953172 53873380 53739116 53559200 53343200 53100948 
2920.421 52842140 52576344 52312768 52058464 51819992 51602616 51410600 
2923.796 51248236 51120148 51030332 50982668 50979728 51022056 51107772 
2927.171 51233024 51392140 51578660 51785272 52004792 52229352 52450928 
2930.547 52661324 52851536 53012852 53137196 53216736 53245164 53217264 
2933.922 53129708 52981296 52773516 52510344 52198824 51848252 51469948 
2937.297 51075420 50677160 50287148 49916448 49575804 49274292 49019496 
2940.672 48817092 48669776 48577348 48536332 48540148 48579352 48640864 
2944.048 48710064 48769672 48800816 48785948 48709360 48559748 48332296 
2947.423 48029756 47662044 47244068 46794864 46334296 45879368 45444892 
2950.798 45040768 44672420 44341992 44048784 43790292 43563456 43365224 
2954.173 43192664 43043512 42915592 42807448 42717284 42643480 42584632 
2957.549 42539316 42506760 42486256 42477304 42479900 42493272 42516660 
2960.924 42548892 42589056 42636280 42690672 42752492 42822368 42900592 
2964.299 42987316 43082072 43184392 43293872 43410844 43536204 43671348 
2967.674 43817524 43975816 44146856 44331316 44529956 44744696 44977772 
2971.050 45232008 45509608 45811760 46137264 46482700 46842624 47208828 
2974.425 47571276 47918412 48236164 48509616 48724116 48865812 48925548 
2977.800 48899664 48791324 48610480 48372148 48095488 47799548 47502404 
2981.175 47219652 46962440 46738444 46550816 46399148 46278744 46181188 
2984.551 46096916 46013952 45921352 45810880 45676948 45517592 45334832 
2987.926 45132408 44915228 44687844 44453452 44212844 43965036 43707220 
2991.301 43436152 43149184 42845552 42526744 42197436 41864512 41535088 
2994.676 41216256 40912804 40626372 40355952 40098264 39848980 39604304 
2998.052 39361284 39118764 38876744 38635980 38397376 38161944 37930216 
3001.427 37702592 37479600 37261808 37049720 36843800 36644464 36451884 
3004.802 36266340 36088300 35918136 35756316 35603508 35459708 35324692 
3008.177 35197872 35078416 34965532 34858600 34757292 34661280 34570532 
3011.552 34484576 34403368 34326264 34252868 34182244 34114136 34047904 
3014.928 33983156 33920060 33859056 33800924 33746628 33696888 33652136 
3018.303 33612068 33575916 33542480 33510982 33481132 33453252 33428062 
3021.678 33406806 33390272 33378896 33372742 33371740 33375744 33385656 
3025.053 33402368 33427558 33462450 33508226 33564780 33631472 33706272 
3028.429 33786168 33867864 33946680 34017912 34077544 34121736 34148084 
3031.804 34156220 34147432 34124032 34089300 34046652 33998744 33947864 
3035.179 33895772 33843976 33794044 33747524 33705448 33668604 33637344 
3038.554 33611352 33590268 33574052 33562636 33556368 33555332 33559272 
3041.930 33567216 33578240 33590804 33604300 33618620 33633980 33651452 
3045.305 33671896 33695564 33722708 33753036 33786416 33823020 33863032 
3048.680 33906628 33953704 34003400 34054860 34106716 34158548 34209988 
3052.055 34261652 34314504 34369012 34425388 34483428 34542264 34601428 
3055.431 34660492 34720140 34780804 34843448 34908508 34976124 35045944 
3058.806 35117576 35190580 35265248 35341620 35420056 35500696 35583152 
3062.181 35667424 35753508 35841732 35932676 36027092 36125960 36229172 
3065.556 36337128 36449216 36565084 36683688 36804308 36925356 37045068 
3068.932 37160952 37270800 37372584 37465472 37549640 37626776 37699120 
3072.307 37768876 37837736 37906896 37976536 38046808 38117700 38189436 
3075.682 38262672 38337984 38415840 38496532 38579956 38666292 38754896 
3079.057 38845616 38937844 39030268 39121992 39211632 39298240 39381816 
3082.433 39462872 39542708 39622812 39704240 39787536 39872768 39959656 
3085.808 40048268 40139224 40233472 40332424 40436968 40547576 40663412 
3089.183 40783396 40906104 41030564 41156184 41283116 41411396 41541248 
3092.558 41672084 41803256 41933516 42062460 42189480 42315032 42439820 
3095.934 42564716 42690524 42818124 42947596 43079296 43213232 43349408 
3099.309 43487384 43627016 43767572 43908428 44049112 44189256 44328744 
3102.684 44467512 44605808 44743744 44881536 45019636 45158068 45297096 
3106.059 45436832 45577056 45717584 45858412 45999436 46141276 46284348 
3109.435 46429344 46576376 46724976 46874032 47022180 47168420 47312452 
3112.810 47455020 47597748 47742292 47889552 48039788 48191700 48343408 
3116.185 48493132 48639904 48784092 48927216 49071132 49217396 49366940 
3119.560 49519280 49673312 49828064 49982204 50135540 50288448 50441416 
3122.936 50595028 50749328 50904204 51058576 51212296 51364800 51515832 
3126.311 51666168 51816668 51968080 52121860 52278756 52439264 52603312 
3129.686 52769888 52937204 53103680 53267268 53427164 53583224 53736452 
3133.061 53888196 54040368 54194472 54351184 54510916 54673344 54837520 
3136.437 55002888 55168168 55332608 55495528 55656512 55815636 55973612 
3139.812 56131608 56290640 56451920 56616132 56782628 56950820 57119564 
3143.187 57288180 57455996 57622708 57788648 57953588 58117536 58280404 
3146.562 58442308 58603900 58766268 58930408 59097532 59267756 59440328 
3149.938 59614264 59788076 59960780 60132408 60303384 60474652 60647060 
3153.313 60820828 60995204 61169300 61341868 61512252 61680368 61846608 
3156.688 62011264 62175408 62339540 62504112 62669792 62837168 63006536 
3160.063 63178220 63351972 63526676 63701248 63874484 64045900 64215348 
3163.438 64383364 64550684 64717516 64884036 65049544 65213724 65376660 
3166.814 65538228 65699012 65859660 66020100 66179512 66336944 66490800 
3170.189 66640040 66784344 66924364 67061184 67196264 67331120 67466408 
3173.564 67602816 67740312 67878512 68016832 68154072 68288768 68419648 
3176.939 68545920 68667808 68786352 68903688 69021976 69142752 69266744 
3180.315 69392800 69519320 69644392 69766272 69884568 69999520 70111880 
3183.690 70222712 70332288 70440840 70548136 70653904 70758200 70861712 
3187.065 70964784 71067912 71171104 71274240 71377176 71479424 71581120 
3190.440 71682440 71783248 71883320 71982216 72079408 72174976 72269120 
3193.816 72361992 72453912 72544160 72631880 72715736 72794792 72869128 
3197.191 72939912 73009440 73080088 73153648 73230432 73309544 73389728 
3200.566 73469064 73546776 73623000 73698336 73772984 73847288 73919952 
3203.941 73989872 74056080 74118760 74178744 74237816 74297856 74359304 
3207.317 74421712 74484048 74544824 74603288 74659632 74714528 74768640 
3210.692 74822056 74873472 74921664 74965440 75005056 75041920 75079064 
3214.067 75119704 75166112 75218792 75276552 75336296 75395808 75452688 
3217.442 75505672 75555192 75602312 75648024 75693216 75738544 75784112 
3220.818 75830776 75878840 75928920 75981600 76036944 76094976 76155224 
3224.193 76217256 76280648 76344904 76409384 76472800 76534440 76593528 
3227.568 76649576 76703304 76755728 76807920 76861112 76915736 76971744 
3230.943 77029072 77087864 77148808 77212808 77280336 77351520 77424976 
3234.319 77498840 77571400 77641408 77709472 77777320 77847640 77922560 
3237.694 78002808 78087632 78175296 78263376 78350232 78435528 78519600 
3241.069 78603216 78686216 78767952 78846696 78921080 78990456 79056000 
3244.444 79120000 79185960 79256944 79334856 79420856 79514080 79613488 
3247.820 79717656 79825320 79935312 80046616 80157704 80267144 80373584 
3251.195 80475944 80574224 80668520 80759456 80847416 80933008 81016448 
3254.570 81098392 81179632 81261520 81344952 81430152 81516216 81601128 
3257.945 81682776 81758888 81828408 81891736 81950360 82006344 82061536 
3261.321 82117216 82173624 82230512 82287576 82344248 82400808 82456928 
3264.696 82512216 82565792 82616560 82663136 82705056 82742184 82774856 
3268.071 82804640 82832224 82858496 82884120 82909216 82933960 82958432 
3271.446 82982496 83005720 83027824 83048440 83067496 83085552 83103768 
3274.822 83123232 83145056 83169136 83194736 83220456 83244976 83267696 
3278.197 83289288 83311040 83334480 83361024 83390776 83422808 83455776 
3281.572 83488584 83521272 83554728 83590952 83631808 83678768 83732288 
3284.947 83791872 83856016 83923776 83993496 84064696 84136400 84208552 
3288.323 84280888 84354312 84429920 84509656 84595560 84689168 84791184 
3291.698 84901320 85018048 85140416 85267528 85399840 85538336 85684944 
3295.073 85840360 86004720 86176856 86355248 86537792 86723936 86913360 
3298.448 87106472 87303640 87505144 87710360 87918952 88130936 88347128 
3301.823 88568952 88798488 89036768 89284536 89541120 89805072 90074816 
3305.199 90349736 90629688 90915184 91207352 91506552 91813168 92126712 
3308.574 92446920 92773240 93105536 93443320 93785880 94132632 94482824 
3311.949 94836592 95194824 95559288 95931960 96314176 96705624 97104640 
3315.324 97507832 97911568 98312896 98710720 99105384 99497728 99889352 
3318.700 100280488 100671016 101059808 101446144 101829560 102210416 
3321.593 102588920 102965152 103338312 103707368 104070712 104428600 
3324.486 104781080 105129208 105474064 105815680 106152704 106483008 
3327.379 106803904 107113664 107411304 107697040 107971208 108233296 
3330.272 108482528 108716496 108933048 109131088 109310048 109470960 
3333.165 109614392 109740440 109848120 109935304 109999832 110040512 
3336.058 110057424 110052088 110026216 109980624 109915544 109829608 
3338.951 109721112 109588984 109433008 109254392 109054328 108833336 
3341.844 108591520 108327384 108039480 107726384 107387456 107022936 
3344.737 106632456 106216048 105772688 105301920 104804104 104281208 
3347.630 103737232 103177552 102606920 102029040 101445728 100856512 
3350.523 100260336 99656712 99046272 98430832 97813024 97194936 96577552 
3353.899 95960728 95343936 94726640 94110000 93496368 92889064 92291504 
3357.274 91706344 91135656 90580096 90040408 89516856 89010456 88521048 
3360.649 88048544 87591600 87148136 86715808 86292880 85878800 85473704 
3364.024 85079024 84696464 84327312 83972624 83633216 83309520 83001744 
3367.400 82709432 82431808 82166496 81910744 81661144 81415088 81170760 
3370.775 80927416 80685360 80444480 80204056 79961840 79715032 79460728 
3374.150 79196464 78920960 78633672 78334520 78022960 77697352 77355792 
3377.525 76996472 76618232 76221528 75807784 75378584 74934728 74475752 
3380.901 73999936 73504464 72987488 72448184 71887272 71307160 70711520 
3384.276 70103544 69486344 68862480 68233672 67601768 66967972 66333852 
3387.651 65700480 65068520 64438552 63810384 63184544 62561208 61941100 
3391.026 61325496 60715756 60113456 59520236 58937164 58364648 57802308 
3394.402 57248148 56699900 56155100 55611396 55067988 54525720 53986788 
3397.777 53454256 52930688 52417620 51914304 51418844 50927976 50438772 
3401.152 49949304 49459052 48968276 48478200 47989752 47503368 47018856 
3404.527 46536064 46054840 45575736 45099504 44627400 44160244 43698424 
3407.903 43241928 42790372 42343704 41901732 41465016 41033836 40608548 
3411.278 40189812 39777768 39372568 38974848 38585240 38204164 37832456 
3414.653 37470132 37116920 36772064 36434768 36103456 35777112 35454424 
3418.028 35134208 34815552 34498672 34183640 33872096 33566036 33266950 
3421.404 32975864 32692618 32415628 32142312 31870448 31598754 31327554 
3424.779 31057836 30792378 30532838 30280526 30034750 29794226 29556776 
3428.154 29320804 29085350 28851296 28619424 28391210 28167290 27947514 
3431.529 27731414 27517752 27305712 27094732 26885400 26678390 26474756 
3434.905 26275262 26080330 25889602 25702118 25516298 25330874 25144194 
3438.280 24955560 24765286 24573766 24382784 24193640 24007238 23823892 
3441.655 23643002 23463482 23284174 23104454 22924246 22743872 22563848 
3445.030 22384354 22205598 22027332 21849804 21673982 21501506 21334178 
3448.406 21173734 21020584 20874162 20732446 20593138 20454188 20314832 
3451.781 20174790 20035280 19897100 19760868 19626136 19492000 19357386 
3455.156 19221464 19084198 18946284 18808690 18672040 18536954 18403154 
3458.531 18270604 18139098 18008668 17879828 17752928 17628064 17504962 
3461.906 17383620 17263484 17144860 17028546 16914916 16804552 16697453 
3465.282 16592996 16490182 16388701 16287999 16188318 16089795 15992843 
3468.657 15896598 15800031 15702110 15602255 15500808 15399763 15301351 
3472.032 15207798 15120270 15038316 14960390 14884056 14807083 14728547 
3475.407 14648620 14568126 14488640 14410915 14335191 14261397 14188814 
3478.783 14117133 14046730 13978015 13911501 13848007 13787600 13730554 
3482.158 13676831 13626638 13580244 13537274 13497008 13458044 13418606 
3485.533 13377258 13333317 13287432 13241656 13198173 13159578 13127543 
3488.908 13102750 13084515 13072120 13064471 13060442 13059895 13062012 
3492.284 13065836 13070822 13075808 13080759 13086359 13094247 13106883 
3495.659 13126655 13155548 13193835 13241314 13296452 13357610 13423391 
3499.034 13492941 13566091 13643357 13725424 13813219 13907498 14009463 
3502.409 14119563 14238936 14367623 14506043 14654104 14811574 14978498 
3505.785 15154202 15338112 15528932 15725231 15924918 16126383 16328491 
3509.160 16531175 16735503 16943268 17156064 17374860 17599840 17830044 
3512.535 18064414 18301948 18542002 18784228 19028320 19273106 19517024 
3515.910 19757748 19993124 20221546 20442172 20654534 20858100 21051258 
3519.286 21231140 21393626 21534304 21649532 21736784 21795450 21826284 
3522.661 21830674 21810082 21765454 21697006 21604606 21488066 21346778 
3526.036 21180588 20989528 20774222 20536406 20278550 20004226 19717108 
3529.411 19420582 19116986 18807340 18492004 18171194 17845096 17515002 
3532.787 17182468 16848088 16512245 16173875 15831884 15485082 15134577 
3536.162 14783016 14434892 14095364 13768311 13455823 13158007 12873160 
3539.537 12598595 12332385 12073016 11820066 11572844 11330762 11092520 
3542.912 10856787 10621997 10387469 10153373 9920827 9691183 9466640 9249049 
3546.770 9040127 8841584 8654861 8480111 8316881 8162659 8013758 7865818 
3550.627 7714320 7556671 7392372 7223385 7053521 6886989 6727452 6576653 
3554.485 6435356 6302711 6177837 6059483 5947275 5840805 5739430 5642645 
3558.342 5549573 5459104 5370566 5283086 5196026 5109486 5022830 4936225 
3562.199 4849904 4764170 4679358 4595231 4510519 4422877 4329229 4226401 
3566.057 4112792 3989682 3861392 3734745 3616754 3512591 3423848 3349681 
3569.914 3286077 3229058 3175284 3122484 3069190 3015169 2959854 2902477 
3573.772 2842174 2778610 2711955 2643410 2575276 2509619 2448170 2392094 
3577.629 2340888 2294252 2251319 2211420 2174355 2139824 2107293 2076429 
3581.487 2046267 2016673 1987447 1959321 1932595 1906969 1881178 1852327 
3585.344 1816490 1769844 1709930 1637120 1554678 1469160 1387880 1317351 
3589.201 1261453 1220781 1193336 1174997 1160777 1145727 1125861 1098190 
3593.059 1062017 1018507 969788 919913 872433 829839 793389 762885 737394 
3597.398 715588 696306 678750 662523 647258 632160 616697 600107 582621 
3601.738 564905 548549 535444 527217 524729 527482 533089 538596 539989 
3606.078 533022 514611 482931 438352 384193 325896 270259 223414 189037 
3610.417 167524 156354 150587 145018 135638 120724 101368 80755 62296 48444 
3615.239 39596 33267 25513 12060 -10337 -43270 -85378 -132515 -179450 
3619.579 -221047 -253004 -273898 -284395 -287177 -285124 -281250 -277044 
3623.436 -272806 -267044 -257739 -243466 -223994 -202434 -184384 -178224 
3627.293 -192797 -233697 -300289 -383059 -466309 -533428 -574561 -588757 
3631.151 -583131 -567480 -551033 -541106 -540212 -547493 -559604 -572212 
3635.008 -582834 -590841 -597724 -606194 -618040 -633789 -652085 -670611 
3638.866 -686888 -699327 -707861 -713452 -717752 -722085 -726419 -729330 
3642.723 -728536 -721655 -707001 -684771 -657378 -629289 -605996 -593455 
3646.581 -597029 -619727 -661547 -719042 -786519 -856663 -921737 -975066 
3650.438 -1011133 -1026471 -1019860 -992885 -949709 -896939 -842609 -795878 
3654.295 -764921 -755891 -770676 -805899 -852463 -899683 -937608 -960949 
3658.153 -969446 -966537 -957247 -945609 -934632 -925308 -917307 -910033 
3662.010 -902692 -895186 -887350 -878620 -868634 -856299 -840591 -821344 
3665.868 -799616 -777324 -758008 -745902 -744711 -758504 -787875 -830339 
3669.725 -878256 -919985 -943923 -941377 -909504 -852298 -779143 -702701 
3673.583 -636237 -593356 -583396 -608775 -662374 -729991 -796804 -852926 
3677.440 -896178 -929078 -955957 -979827 -1000951 -1017612 -1027661 -1030140 
3681.297 -1026008 -1018075 -1009215 -1000852 -992488 -981777 -965049 -940980 
3685.155 -909967 -875677 -843832 -821212 -813308 -822899 -848892 -886556 
3689.012 -929441 -971231 -1007959 -1037412 -1058732 -1072053 -1076911 
3692.387 -1073936 -1064153 -1049907 -1034305 -1020256 -1010042 -1004654 
3695.763 -1003331 -1004620 -1006406 -1007860 -1008587 -1009943 -1013546 
3699.138 -1021347 -1034503 -1052948 -1075126 -1098494 -1119943 -1135740 
3702.513 -1143473 -1141721 -1130353 -1110491 -1084183 -1053411 -1020521 
3705.888 -987000 -953742 -921043 -888937 -857787 -828851 -804510 -788536 
3709.746 -785328 -798888 -831067 -880935 -942369 -1006571 -1063955 -1105566 
3713.603 -1126652 -1126850 -1109301 -1080084 -1045841 -1012554 -984686 
3716.979 -964123 -950535 -942104 -936219 -930598 -924217 -918100 -913075 
3720.836 -910892 -912513 -917406 -924713 -933012 -941377 -949709 -958106 
3724.693 -967628 -978008 -987992 -994934 -995530 -986472 -966140 -935095 
3728.551 -896278 -854414 -815094 -784038 -765020 -759496 -766211 -781061 
3732.408 -798524 -815061 -829050 -842972 -861028 -887085 -922200 -963065 
3736.266 -1002901 -1033479 -1049477 -1049014 -1034107 -1008422 -976256 
3739.641 -939823 -900774 -859904 -819459 -784369 -762241 -763135 -794853 
3743.498 -859705 -947229 -1036520 -1100840 -1122719 -1100014 -1044122 
3746.874 -972686 -903221 -850248 -822303 -821873 -844824 -882687 -925837 
3750.731 -966603 -1001315 -1028355 -1047163 -1056253 -1054105 -1040453 
3754.106 -1016653 -986339 -954569 -925738 -903354 -888937 -882489 -882687 
3757.964 -888672 -900014 -916546 -937343 -959924 -979397 -990769 -990042 
3761.821 -976190 -951824 -922266 -894261 -873098 -861260 -857953 -859441 
3765.678 -860730 -858151 -851107 -842146 -835631 -835763 -845552 -864864 
3769.536 -890789 -918133 -941906 -958007 -964685 -962206 -952386 -937674 
3773.393 -920547 -903420 -888011 -875115 -865393 -858217 -853389 -850975 
3777.251 -851736 -856696 -866980 -882952 -902891 -923754 -941179 -951262 
3781.108 -951824 -943129 -927755 -909206 -891781 -878190 -869824 -866352 
3784.966 -866517 -868369 -870750 -872933 -875148 -877893 -881596 -886325 
3788.823 -891681 -897468 -903254 -908280 -912083 -913637 -912612 -908479 
3792.680 -901866 -894360 -888342 -886457 -890789 -902031 -918034 -935393 
3796.538 -948717 -953610 -947857 -932252 -910793 -890028 -877793 -880472 
3800.395 -901568 -939162 -985281 -1026702 -1050998 -1050998 -1027066 -985744 
3804.253 -937707 -895550 -869460 -866881 -888540 -928251 -974636 -1014009 
3808.110 -1036983 -1040354 -1026934 -1002406 -973149 -943691 -916017 -889863 
3811.968 -864302 -838938 -815259 -796904 -788139 -792935 -812018 -841418 
3815.825 -871907 -892409 -893765 -872569 -832225 -781524 -732373 -696018 
3819.682 -682786 -697540 -738261 -795118 -852761 -897766 -921638 -924383 
3823.540 -911983 -893070 -876140 -866584 -866484 -873759 -884142 -892111 
3827.397 -893897 -888639 -877992 -865525 -854679 -847668 -844857 -844725 
3831.255 -844031 -839434 -828454 -809736 -783740 -752418 -718711 -686061 
3835.112 -658238 -638917 -630546 -634450 -649140 -671571 -696746 -719604 
3838.969 -736805 -746596 -750367 -750235 -749739 -751492 -757809 -769882 
3842.827 -787478 -809372 -832985 -855208 -872569 -882191 -883051 -874983 
3846.684 -859375 -838508 -813969 -786618 -756089 -721457 -682025 -639016 
3850.542 -596830 -562516 -545375 -555170 -597029 -667965 -754138 -835895 
3854.399 -895649 -924812 -924945 -903982 -871478 -834936 -800079 -769849 
3858.257 -745273 -726882 -714643 -708027 -706373 -708424 -712889 -718248 
3862.114 -724467 -731844 -742131 -756255 -773520 -790355 -801369 -800740 
3865.971 -784766 -753972 -713154 -670744 -636336 -617874 -619992 -641233 
3869.829 -673754 -706439 -729727 -739352 -736772 -727973 -720365 -719604 
3873.686 -727940 -743322 -760753 -774116 -778316 -771701 -755560 -734325 
3877.544 -713386 -698103 -692776 -699095 -715867 -738360 -759827 -772892 
3881.401 -772164 -756255 -727312 -691486 -656088 -628892 -616054 -619793 
3885.259 -636965 -660058 -679445 -686259 -676666 -652151 -618536 -583694 
3889.116 -555732 -541569 -544183 -563277 -594084 -629653 -662837 -687880 
3892.973 -702767 -707497 -703726 -693537 -678717 -660521 -639843 -618337 
3896.831 -597492 -579194 -565660 -558049 -556096 -558512 -563277 -568075 
3900.688 -571947 -575322 -579624 -587102 -599213 -616154 -636072 -655856 
3904.546 -672365 -682753 -685895 -682852 -675309 -665384 -655360 -646460 
3908.403 -639545 -634947 -632598 -632234 -632928 -633425 -631837 -626179 
3912.260 -614830 -597194 -574197 -548320 -523037 -501790 -487194 -480475 
3916.118 -480839 -486135 -493317 -499969 -504702 -506853 -506919 -505529 
3919.975 -502617 -498381 -492523 -485804 -479350 -475478 -476206 -483123 
3923.833 -496329 -514167 -533428 -550802 -562814 -567943 -566123 -558611 
3927.690 -547261 -533428 -518701 -503742 -489279 -476140 -465383 -458300 
3931.548 -455916 -458399 -464721 -472995 -481204 -486996 -489081 -487161 
3935.405 -481932 -473922 -464026 -453235 -441717 -429800 -418016 -406960 
3939.262 -397525 -390805 -387594 -388753 -394314 -403848 -416096 -429072 
3943.120 -440724 -449098 -452673 -451150 -445126 -436156 -426225 -417288 
3946.977 -410866 -407357 -406695 -407887 -410105 -412587 -415467 -418877 
3950.835 -423279 -428046 -432647 -435659 -435858 -432448 -425630 -416195 
3954.692 -405603 -395142 -385442 -376570 -368095 -359190 -349688 -339491 
3958.550 -329393 -320089 -312275 -305818 -300852 -295984 -291018 -285223 
3962.407 -278534 -270985 -263137 -255156 -247606 -240618 -234724 -230021 
3966.264 -226710 -224690 -223299 -222007 -219556 -215682 -209621 -201805 
3970.122 -192896 -184020 -175972 -169513 -165108 -162690 -161862 -162392 
3973.979 -163452 -164181 -163585 -160604 -154509 -144937 -132317 -117444 
3977.837 -102338 -88359 -76831 -68317 -62784 -59339 -56953 -54932 -52381 
3982.176 -49631 -47412 -46120 -46915 -50095 -55794 -63347 -71596 -79150 
3986.516 -84649 -86438 -84119 -78123 -69045 -58643 -48803 -41216 -37108 
3990.855 -36976 -40388 -46550 -54104 -61923 -69045 -75108 -80243 -85046 
3995.195 -90446 -97436 -106943 -118736 -132250 -145930 -158086 -166731 
3999.052 -170706 -169878 -164976 -157656 
##END=
