
##TITLE=Z295_2_e
##JCAMP-DX=5.01  $$ Nicolet v. 1
##DATATYPE=INFRARED SPECTRUM
##ORIGIN=UniL
##OWNER=Nicolet
##LONGDATE=2011/09/09
##TIME=15:18:34
##SPECTROMETER/DATA SYSTEM=Nicolet iS5
##DATA PROCESSING=
Ratio against background
%Transmittance->Absorbance
Truncated
ElementMultiply or ElementDivide
##COMMENTS=
Number of sample scans: 32
Collection length: 51.20 sec
Sample gain: 2.0
Background collected on: Ven Sep 09 13:49:48 2011 (GMT+02:00);
Number of background scans: 32
Background gain: 2.0
Sample spacing:  1.000
Number of scan points: 12415
Resolution points: 8192
Number of FFT points: 65536
Apodization: N-B fort;
Phase correction: Mertz;
Laser frequency: 15798.0 cm-1
Number of rejected sample scans: 0
Number of rejected background scans: 0
Bench serial number: ASB1000141;
##RESOLUTION=4.000
##XUNITS=1/CM
##YUNITS=ABSORBANCE
##FIRSTX=649.893372
##LASTX=4000.122314
##FIRSTY=0.109659
##MAXX=4000.122314
##MINX=649.893372
##MAXY=0.304572
##MINY=0.000694
##XFACTOR=1.000000
##YFACTOR=1.000000E-009
##NPOINTS=6950
##DELTAX=0.482117
##ZPD=6100
##XYDATA=(X++(Y..Y))
649.893 109658704 108644528 107731176 106929640 106220064 105569368 
652.786 104950992 104362352 103826696 103382192 103060376 102871176 
655.679 102795720 102797728 102836568 102886040 102942520 103017696 
658.571 103126760 103274752 103452072 103640392 103824296 104003776 
661.464 104196168 104430992 104739792 105141608 105639888 106223624 
664.357 106877552 107590272 108351192 109144888 109937824 110660976 
667.250 111224144 111550912 111635480 111554984 111429576 111353824 
670.142 111359128 111426192 111503792 111538880 111490088 111344784 
673.035 111116672 110836112 110531720 110215496 109884480 109527192 
675.928 109137392 108722368 108299104 107883392 107478688 107069440 
678.820 106625216 106114504 105520280 104847216 104119856 103368744 
681.713 102618672 101879368 101147336 100413992 99677304 98946888 98241056 
685.088 97577768 96964104 96393056 95846344 95305360 94759848 94214200 
688.463 93683504 93185200 92728072 92308504 91911912 91523608 91137088 
691.838 90760344 90412280 90116080 89888776 89734752 89648520 89620704 
695.212 89647384 89735200 89901000 90162808 90533640 91014008 91592344 
698.587 92251424 92977184 93766024 94623496 95559872 96579960 97675424 
701.962 98824824 99997080 101160344 102292304 103381184 104422616 105413448 
705.337 106344576 107200048 107963472 108624064 109183872 109657464 
708.229 110067968 110437752 110782832 111113248 111437712 111769656 
711.122 112133120 112556536 113065336 113669424 114354328 115080776 
714.015 115790144 116424680 116938032 117306336 117530952 117632672 
716.908 117644624 117602568 117547240 117523864 117579768 117768928 
719.800 118140984 118728664 119538944 120540120 121663872 122803800 
722.693 123838800 124652464 125147224 125273480 125036392 124501672 
725.586 123777072 122995160 122285800 121739064 121398584 121256720 
728.478 121270736 121380360 121532168 121696136 121864640 122046856 
731.371 122255232 122495736 122763880 123049832 123345488 123651728 
734.264 123978512 124338720 124739488 125175504 125628784 126076504 
737.156 126500648 126896184 127272768 127648608 128041552 128458408 
740.049 128893672 129332064 129758600 130164488 130551128 130926192 
742.942 131297592 131666688 132027712 132370128 132686720 132977752 
745.835 133251968 133521152 133793544 134069400 134341088 134598672 
748.727 134836976 135060128 135279872 135510256 135757888 136018720 
751.620 136279216 136524752 136747584 136953472 137158624 137382880 
754.513 137638544 137923760 138222336 138511680 138774320 139003344 
757.405 139205216 139392992 139578512 139764832 139946176 140113808 
760.298 140263952 140402864 140546368 140712080 140911600 141144816 
763.191 141401296 141668432 141942208 142233632 142571056 142992992 
766.083 143533632 144215872 145039744 145981456 146990992 147998736 
768.976 148924352 149681472 150202336 150455776 150468624 150330272 
771.869 150182992 150192544 150483136 151098224 151961072 152890368 
774.762 153623552 153889760 153501088 152384352 150605488 148323936 
777.654 145746144 143049824 140337072 137633808 134899168 132065896 
780.547 129068344 125873816 122487256 118947864 115314784 111656696 
783.440 108047176 104551624 101229736 98132560 95294016 92734960 90461048 
786.815 88466216 86737776 85262168 84028784 83030352 82262352 81720376 
790.189 81398536 81290456 81391624 81703136 82233232 82996376 84009408 
793.564 85283776 86818904 88593368 90564096 92662072 94789984 96836712 
796.939 98674960 100176192 101238816 101799432 101858712 101484648 100814216 
800.314 100029040 99308192 98811216 98627968 98757512 99099304 99466064 
803.689 99626992 99331440 98386696 96697720 94291344 91313072 87993408 
807.063 84601840 81361936 78421112 75824112 73520320 71396392 69320344 
810.438 67193520 64966956 62652944 60306124 58003876 55817936 53795856 
813.813 51961992 50317956 48852832 47551496 46399476 45384120 44492804 
817.188 43712532 43029720 42432440 41913008 41468408 41099472 40808184 
820.563 40595380 40459152 40395660 40400860 40472644 40612040 40822236 
823.938 41106972 41468408 41905564 42413952 42985856 43608548 44263508 
827.312 44925632 45560460 46130112 46598732 46940292 47149104 47244844 
830.687 47274804 47303068 47406236 47661748 48130356 48851092 49827916 
834.062 51023772 52350856 53672748 54826356 55624160 55897856 55536760 
837.437 54503932 52855988 50724452 48300704 45785104 43352592 41141504 
840.812 39229724 37644120 36373336 35383532 34630708 34068800 33657360 
844.186 33359322 33142340 32982762 32864526 32780688 32732062 32722772 
847.561 32755714 32829824 32938798 33073862 33227924 33397608 33584684 
850.936 33794116 34031028 34297472 34591920 34910660 35250516 35611420 
854.311 35997324 36414372 36870200 37370848 37921504 38527236 39196252 
857.686 39939168 40770948 41708080 42766312 43961444 45309604 46827672 
861.060 48536292 50454404 52591716 54937080 57447416 60042644 62598868 
864.435 64971916 67012312 68584256 69601024 70032288 69916136 69348832 
867.810 68479816 67492528 66566028 65874660 65562428 65727032 66429444 
871.185 67687064 69479848 71748336 74396816 77297120 80273200 83119496 
874.560 85615240 87528816 88669928 88912040 88211184 86615888 84255904 
877.935 81323376 78025488 74572128 71150024 67893504 64894736 62198428 
881.309 59809140 57706328 55855956 54225292 52787436 51527508 50441564 
884.684 49531128 48798068 48240092 47848488 47611164 47515860 47555232 
888.059 47729832 48048000 48523100 49167712 49990120 50992396 52171024 
891.434 53520104 55035044 56715608 58566284 60595360 62812820 65227628 
894.809 67843800 70655688 73636704 76729272 79837664 82810296 85456760 
898.183 87567200 88927776 89378272 88835720 87313232 84917832 81833888 
901.558 78299720 74552728 70820792 67296496 64111680 61353432 59062036 
904.933 57239984 55866016 54904664 54317804 54067464 54124132 54468020 
908.308 55087440 55978172 57140196 58574816 60282560 62261060 64500788 
911.683 66981500 69665824 72491104 75375312 78214296 80893200 83313096 
915.058 85398272 87116672 88485056 89569064 90471984 91309392 92200328 
918.432 93237392 94465608 95873160 97383376 98867376 100148696 101048648 
921.807 101421072 101182176 100347448 99037824 97482160 95965928 94809968 
925.182 94326008 94744440 96202144 98703864 102123888 106199424 110557616 
928.557 114786552 118435960 121098872 122471880 122352632 120674672 
931.450 117493208 112971848 107353816 100931416 94043416 87018328 80157504 
934.824 73728648 67922368 62864780 58621876 55204324 52589696 50735956 
938.199 49595640 49115504 49232128 49868312 50912028 52215044 53608900 
941.574 54899140 55903284 56481016 56540796 56063820 55096880 53745040 
944.949 52143716 50434084 48751212 47194384 45828588 44685344 43766768 
948.324 43056792 42529048 42156872 41913920 41776152 41722672 41731612 
951.698 41780964 41850864 41924208 41989460 42043260 42088420 42132920 
955.073 42186228 42257364 42352872 42476356 42629808 42814032 43029172 
958.448 43274796 43549576 43850844 44175096 44519416 44881868 45262308 
961.823 45661780 46081292 46520720 46978168 47450328 47933988 48427932 
965.198 48933076 49452628 49990644 50550580 51134200 51741900 52373544 
968.573 53030000 53713052 54426180 55172084 55952392 56767148 57615592 
971.947 58498116 59417648 60380100 61393844 62467116 63605764 64812332 
975.322 66087068 67428824 68838376 70319160 71877184 73520280 75256808 
978.697 77094984 79045392 81122400 83345648 85742944 88345016 91183768 
982.072 94289168 97682800 101376720 105368088 109636400 114132600 118767072 
985.447 123412568 127886296 131961672 135405920 137983632 139506720 
988.339 139867296 139045536 137120816 134251984 130674256 126655776 
991.232 122466568 118373776 114592992 111284672 108557056 106457560 
994.125 104990736 104130472 103836920 104065872 104776096 105935720 
997.017 107516712 109493464 111842224 114536568 117547712 120844832 
999.910 124385312 128109496 131936608 135748832 139400928 142734384 
1002.803 145580672 147799808 149296000 150031216 150034448 149398992 
1005.695 148280176 146863008 145356736 143973936 142892688 142260112 
1008.588 142178400 142700224 143842912 145596784 147940496 150847584 
1011.481 154294368 158262112 162731776 167684720 173103904 178970480 
1014.374 185266864 191969392 199028576 206353712 213788032 221080848 
1017.266 227917088 233926304 238728400 242028144 243652864 243610768 
1020.159 242091184 239463360 236228000 232909568 230049008 228109392 
1023.052 227414128 228167200 230424128 234120368 239087392 245095456 
1025.945 251888512 259177568 266681408 274122016 281208672 287674784 
1028.838 293280192 297832768 301224000 303429440 304508224 304572352 
1031.731 303771040 302264032 300193600 297690368 294858048 291761728 
1034.624 288426528 284829632 280909856 276577088 271743968 266353008 
1037.517 260389840 253893264 246944864 239659072 232158832 224568672 
1040.410 217013600 209602416 202431296 195575248 189072704 182926992 
1043.303 177104816 171550800 166201952 161009376 155955952 151062048 
1046.196 146385872 142006464 138020272 134520080 131580784 129262672 
1049.089 127599400 126600520 126253368 126525968 127372144 128732936 
1051.982 130548896 132761520 135313936 138156160 141232640 144472736 
1054.875 147789696 151065424 154155008 156907456 159164576 160787056 
1057.768 161675600 161773568 161082336 159661904 157637488 155186288 
1060.661 152517568 149872768 147481440 145545360 144237488 143675072 
1063.554 143927776 145019200 146929552 149597296 152917568 156756496 
1066.448 160940000 165265088 169532256 173540368 177116128 180134080 
1069.341 182505168 184179984 185138144 185376832 184905232 183741920 
1072.234 181916160 179466928 176444048 172914064 168959552 164685808 
1075.127 160231856 155755424 151435104 147462320 144006480 141218736 
1078.020 139216896 138070736 137807760 138404176 139787728 141824608 
1080.913 144321328 147045744 149714832 152043600 153792816 154786576 
1083.806 154965296 154389776 153240480 151774560 150286112 149085024 
1086.699 148431136 148526336 149500848 151394960 154163792 157673456 
1089.592 161728016 166064528 170380672 174389712 177817584 180445376 
1092.485 182132864 182806048 182462192 181154256 178983792 176081840 
1095.378 172590464 168661456 164431680 160016912 155517824 151011280 
1098.271 146558560 142210416 138001792 133952960 130065832 126324040 
1101.164 122696544 119146824 115646984 112186960 108783912 105479632 
1104.057 102341160 99449024 96881936 94717768 93020648 91837232 91201344 
1107.433 91130712 91629656 92689840 94291632 96404304 98983224 101974392 
1110.808 105309688 108900520 112644352 116412376 120049584 123396240 
1113.701 126285272 128565088 130126760 130902808 130879520 130089608 
1116.594 128608168 126538784 123997248 121112224 118004344 114775464 
1119.487 111511072 108267896 105080120 101966896 98938736 96006896 93189392 
1122.862 90509528 87996488 85681032 83589192 81743448 80162328 78860600 
1126.238 77854136 77160328 76796336 76778664 77118696 77818624 78868984 
1129.613 80246456 81915112 83820488 85893496 88051632 90194168 92219424 
1132.988 94033048 95560200 96765864 97659656 98299848 98776984 99205544 
1136.363 99704480 100368568 101264288 102413888 103793368 105331344 
1139.256 106916448 108418256 109686896 110580784 110985616 110813744 
1142.149 110017680 108586752 106541104 103925856 100805480 97265352 93400096 
1145.525 89313680 85116584 80908536 76780760 72811096 69055576 65555648 
1148.900 62337668 59413924 56787540 54454200 52404348 50624104 49096952 
1152.275 47805984 46733464 45863716 45183988 44684136 44356712 44196300 
1155.650 44198572 44360380 44680720 45161264 45806644 46624740 47625032 
1159.026 48815684 50202820 51788632 53571380 55544624 57696756 60009888 
1162.401 62455220 64990392 67562208 70100512 72526576 74761440 76723272 
1165.776 78339640 79550848 80309520 80588376 80381560 79705952 78598848 
1169.151 77114064 75318288 73278200 71060224 68727304 66331968 63922888 
1172.527 61543248 59228184 57009640 54913916 52960148 51163500 49533544 
1175.902 48074944 46789664 45676984 44734704 43959132 43346004 42891268 
1179.277 42590700 42442264 42446176 42605028 42923416 43405680 44055604 
1182.652 44874520 45861804 47014976 48330484 49801456 51415676 53153448 
1186.028 54981604 56854004 58716160 60502684 62148760 63596940 64796328 
1189.403 65711728 66323780 66630000 66645564 66402072 65947352 65336564 
1192.778 64630724 63892716 63176952 62531740 61996128 61596512 61349916 
1196.153 61262464 61329888 61536644 61855816 62251464 62675416 63071428 
1199.529 63380568 63537792 63481568 63160056 62532736 61581620 60314080 
1202.904 58765968 56995320 55076868 53095744 51129580 49246712 47500668 
1206.279 45924336 44535204 43337364 42325188 41486928 40807676 40271892 
1209.654 39863324 39566700 39369988 39263780 39242672 39304804 39450248 
1213.030 39679480 39992024 40385656 40856520 41399404 42007200 42671624 
1216.405 43380968 44120228 44872352 45618352 46339712 47022068 47653908 
1219.780 48227800 48739496 49186892 49569828 49891580 50160572 50391812 
1223.155 50605824 50830336 51095140 51429100 51859716 52407860 53087320 
1226.531 53904064 54854324 55924240 57088272 58312388 59554060 60765300 
1229.906 61901968 62923408 63797376 64504816 65038808 65408244 65637380 
1233.281 65769516 65864168 65989776 66225320 66647032 67321256 68305672 
1236.656 69641944 71358312 73473504 75997392 78931968 82269472 85990544 
1240.031 90059776 94421296 99006400 103727560 108480480 113155960 117628768 
1243.407 121766392 125445408 128548784 130986216 132704568 133687008 
1246.300 133953320 133550224 132549120 131033880 129094664 126828256 
1249.193 124320456 121639048 118827272 115895968 112828664 109591280 
1252.086 106151352 102492080 98627552 94604344 90502504 86425624 82478040 
1255.461 78763984 75368528 72345632 69721136 67488192 65612024 64032236 
1258.836 62672624 61450676 60277840 59077108 57788456 56370536 54808348 
1262.212 53108960 51299504 49418504 47512312 45629428 43811220 42093092 
1265.587 40500728 39048252 37741152 36576076 35544496 34633544 33829936 
1268.962 33121992 32500106 31957280 31488336 31088160 30751120 30470920 
1272.337 30241272 30057476 29917028 29819386 29765660 29756894 29792380 
1275.713 29869500 29982348 30121822 30276086 30429800 30564584 30661790 
1279.088 30702788 30673596 30567464 30385806 30137804 29836386 29496166 
1282.463 29128682 28741470 28339182 27925888 27507268 27093990 26700026 
1285.838 26342114 26037760 25801968 25647176 25584052 25621270 25768002 
1289.214 26033256 26424962 26948644 27605520 28391848 29296806 30302340 
1292.589 31382472 32498394 33601224 34634800 35536440 36251036 36739504 
1295.964 36984776 36996828 36810004 36478984 36063564 35624512 35216592 
1299.339 34879496 34641904 34519516 34514712 34617864 34806720 35050616 
1302.715 35310064 35543488 35714656 35793084 35759696 35607032 35338096 
1306.090 34964632 34505096 33984444 33429812 32869242 32330166 31834114 
1309.465 31396504 31025948 30725300 30494486 30333216 30242552 30224612 
1312.840 30281628 30413950 30619334 30893546 31232300 31633250 32096784 
1316.216 32625750 33223596 33892836 34633616 35444716 36324052 37270832 
1319.591 38284420 39363060 40500252 41681128 42881612 44066972 45192848 
1322.966 46213984 47084140 47765188 48236016 48496948 48575532 48522956 
1326.341 48413928 48332596 48354892 48542816 48927480 49506876 50247604 
1329.717 51096592 51995156 52887124 53733676 54515276 55231076 55895788 
1333.092 56535056 57182264 57870332 58631356 59490520 60461132 61542412 
1336.467 62717444 63957244 65221116 66462808 67637432 68700136 69612224 
1339.842 70344288 70877000 71205024 71336056 71288848 71087736 70757968 
1343.218 70323056 69800360 69201536 68533624 67799568 67000948 66139156 
1346.593 65215692 64233176 63194932 62104948 60969960 59800012 58609968 
1349.968 57422264 56266992 55179188 54201756 53379128 52753836 52367752 
1353.343 52254952 52439152 52929828 53715828 54761892 56002864 57354724 
1356.719 58716424 59979648 61050340 61848976 62320724 62441676 62217508 
1360.094 61685832 60907852 59974056 58993632 58078256 57339980 56864736 
1363.469 56696768 56835952 57237904 57827708 58507136 59174376 59730584 
1366.844 60083776 60167836 59946476 59422016 58632340 57644008 56538456 
1370.219 55389928 54263736 53208464 52255400 51428692 50749888 50240240 
1373.595 49922392 49812940 49916336 50219932 50696820 51313900 52038256 
1376.970 52846520 53726288 54673832 55692860 56792032 57985512 59291456 
1380.345 60731608 62323820 64070672 65944888 67875912 69756976 71441344 
1383.720 72766432 73585200 73769440 73239216 71980456 70065928 67661896 
1387.096 65000936 62355684 59956744 57950216 56392496 55259108 54479516 
1390.471 53963076 53625060 53389472 53189588 52970736 52682868 52283804 
1393.846 51747648 51068940 50266616 49374736 48431412 47464152 46484176 
1397.221 45492684 44490420 43489140 42518924 41623688 40847896 40225688 
1400.597 39768544 39468244 39303496 39250652 39290404 39409608 39602848 
1403.972 39868740 40206644 40614188 41086244 41615668 42195724 42821016 
1407.347 43488812 44198392 44949220 45739560 46565460 47419872 48294152 
1410.722 49179880 50069648 50958228 51842092 52717400 53580152 54426292 
1414.098 55253088 56061404 56856084 57645560 58439808 59248732 60079936 
1417.473 60939648 61832280 62760056 63718984 64696944 65670872 66609100 
1420.848 67475576 68237352 68871176 69365088 69725424 69976896 70162384 
1424.223 70330848 70525680 70776064 71091216 71466896 71894344 72367080 
1427.599 72883400 73443528 74046336 74686504 75356072 76048312 76763712 
1430.974 77511192 78304272 79156544 80075456 81060776 82106888 83209784 
1434.349 84373872 85613992 86955944 88427536 90050024 91821392 93717136 
1437.724 95698952 97722304 99739952 101693272 103513168 105106072 106360280 
1441.100 107171968 107445968 107117560 106159008 104574424 102399752 
1443.993 99695888 96554384 93085256 89402656 85628880 81876376 78249400 
1447.368 74853232 71779488 69096832 66837132 64990164 63515516 62362872 
1450.743 61495568 60899924 60583056 60556696 60817892 61333204 62042220 
1454.118 62853256 63658124 64348936 64819680 65001704 64893192 64581016 
1457.494 64206936 63904920 63762032 63803672 64019828 64389132 64891384 
1460.869 65509140 66222468 67007012 67826568 68631800 69370520 69992152 
1464.244 70466216 70792832 71005360 71154904 71286312 71427088 71579200 
1467.619 71725512 71834800 71869368 71787304 71536112 71054992 70278960 
1470.995 69153280 67664992 65872000 63915244 61974688 60214160 58730232 
1474.370 57540952 56615376 55909276 55392944 55057912 54911472 54959564 
1477.745 55196424 55598476 56132136 56761108 57459176 58217164 59042600 
1481.120 59956288 60983916 62151704 63481420 64994356 66717692 68686248 
1484.496 70941952 73523616 76452056 79709296 83217928 86844640 90385800 
1487.871 93582384 96160592 97840088 98394384 97709568 95816400 92900432 
1491.246 89241240 85152304 80890528 76619736 72431864 68354024 64389476 
1494.621 60559092 56911156 53532024 50531260 48004964 46007540 44538360 
1497.997 43557668 43004620 42818420 42949644 43355596 43996972 44835612 
1501.372 45828220 46928996 48093192 49266644 50386936 51378152 52129668 
1504.747 52499684 52323532 51450180 49822604 47541408 44851156 42025376 
1508.122 39258632 36630440 34139084 31756252 29464570 27266902 25192472 
1511.498 23281902 21566824 20065052 18772778 17670338 16730027 15923200 
1514.873 15224064 14608080 14054977 13551562 13092916 12684457 12335760 
1518.248 12052916 11831541 11654487 11494143 11323757 11129300 10921612 
1521.623 10734298 10607940 10566723 10606514 10700031 10810995 10908836 
1524.999 10976082 11013464 11035759 11063662 11111318 11180771 11263938 
1528.374 11350624 11435729 11521974 11618241 11732026 11865182 12010505 
1531.749 12154821 12284664 12395965 12498735 12614251 12762009 12950097 
1535.124 13168936 13398547 13614295 13795672 13931139 14016204 14055559 
1538.500 14058400 14037524 14004979 13971001 13946467 13941540 13963678 
1541.875 14012200 14076848 14138048 14172827 14164337 14108063 14015382 
1545.250 13909003 13814006 13746593 13707744 13685278 13661239 13619936 
1548.625 13554024 13467717 13373157 13284461 13209752 13147282 13088442 
1552.000 13023839 12948970 12867153 12788216 12723862 12681045 12658188 
1555.376 12644679 12624928 12583144 12504327 12377452 12198336 11977295 
1558.751 11744962 11543683 11411067 11360046 11379433 11444574 11527861 
1562.126 11605308 11656495 11669633 11642541 11584210 11511426 11442806 
1565.501 11390794 11356168 11328925 11293183 11235409 11149324 11039565 
1568.877 10920423 10811572 10730461 10685564 10676259 10695990 10736778 
1572.252 10790478 10848770 10901871 10937038 10941388 10906628 10836200 
1575.627 10749446 10678195 10654934 10695514 10795912 10937140 11097959 
1579.002 11262102 11421952 11578289 11736758 11903833 12083509 12276893 
1582.378 12482298 12697728 12921116 13149947 13378967 13597816 13791807 
1585.753 13945886 14047449 14092283 14087046 14048509 14000052 13966758 
1589.128 13973088 14037114 14172039 14385775 14680425 15050424 15479211 
1592.503 15939388 16390627 16785196 17078482 17233178 17228696 17064868 
1595.879 16760813 16350338 15872849 15370035 14877952 14425027 14034958 
1599.254 13723817 13501759 13372850 13335059 13382144 13506476 13702068 
1602.629 13964397 14289338 14671137 15098107 15552456 16012471 16452843 
1606.004 16848606 17177710 17420248 17560402 17587418 17495856 17286584 
1609.380 16967766 16555751 16073979 15550876 15018936 14506112 14032220 
1612.755 13606637 13227241 12884354 12564692 12256647 11953793 11658708 
1616.130 11383753 11148576 10973194 10869697 10838374 10868202 10942101 
1619.505 11038784 11137323 11221026 11277846 11305732 11313247 11319199 
1622.881 11345557 11410353 11521123 11673683 11856533 12057106 12266565 
1626.256 12480559 12696943 12914528 13130207 13339843 13540008 13730212 
1629.631 13913279 14094029 14276258 14460344 14641766 14811437 14958126 
1633.006 15071075 15141507 15165902 15147511 15098451 15036806 14982991 
1636.382 14953188 14953531 14980419 15024081 15072173 15112413 15134473 
1639.757 15132998 15108537 15068056 15022092 14981242 14951644 14932166 
1643.132 14914848 14886627 14834270 14746680 14619971 14459419 14280982 
1646.507 14106796 13960462 13860219 13814245 13820607 13869353 13946023 
1649.883 14031124 14099882 14124184 14071885 13918788 13667428 13367143 
1653.258 13104287 12950712 12926918 13001374 13125494 13255423 13364273 
1656.633 13440478 13482481 13495401 13486002 13459616 13417854 13358841 
1660.008 13279268 13176723 13051291 12907087 12750852 12592285 12441243 
1663.384 12306376 12193020 12102759 12032511 11974638 11918068 11849484 
1666.759 11754460 11621406 11444472 11227044 10982301 10730155 10492854 
1670.134 10286792 10119999 9990768 9892013 9812565 9738756 9656930 9553036 
1673.991 9416828 9246442 9052948 8859743 8691976 8568102 8490349 8447947 
1677.849 8421663 8392780 8348698 8285844 8209524 8129405 8053147 7979535 
1681.706 7897028 7785491 7624714 7405213 7142672 6877495 6661736 6529695 
1685.564 6482708 6497136 6540223 6585702 6614970 6619075 6596736 6551290 
1689.421 6489199 6418408 6347594 6284995 6236959 6206203 6189734 6178811 
1693.279 6158579 6113178 6029648 5906061 5756823 5611059 5500007 5439342 
1697.136 5422902 5426760 5421526 5378617 5281308 5132955 4963035 4816667 
1700.993 4729332 4711043 4745009 4803668 4860090 4894201 4894905 4858850 
1704.851 4791775 4706555 4620180 4547449 4497495 4472220 4468035 4478279 
1708.708 4495286 4513566 4529770 4543331 4555786 4568611 4582574 4596504 
1712.566 4607957 4613951 4612712 4603737 4587463 4564659 4533855 4492172 
1716.423 4436735 4368018 4292653 4223757 4176718 4161998 4181770 4229312 
1720.281 4293790 4362563 4425254 4476069 4513499 4539748 4559503 4577417 
1724.138 4597140 4620481 4647909 4679559 4714862 4752881 4791104 4825412 
1727.995 4851177 4864949 4865987 4856840 4841930 4824741 4804472 4774790 
1731.853 4723336 4635618 4501848 4325816 4130754 3952098 3824655 3762752 
1735.710 3758073 3787652 3825925 3852433 3854038 3826727 3775586 3713590 
1739.568 3656415 3617924 3605662 3619327 3653140 3698586 3747311 3792633 
1743.425 3829736 3856913 3874999 3886733 3895760 3905489 3918027 3933808 
1747.282 3951596 3968916 3983262 3991722 3992190 3982794 3962530 3932136 
1751.140 3894490 3855342 3821312 3798148 3788154 3789391 3795975 3798883 
1754.997 3789791 3762685 3717902 3661661 3605495 3560761 3533702 3523614 
1758.855 3523514 3523614 3514194 3489276 3448462 3396931 3343170 3296226 
1762.712 3262974 3245748 3243612 3253059 3269751 3288480 3303671 3310416 
1766.570 3304873 3286244 3257232 3223383 3190838 3162901 3138904 3113740 
1770.427 3081170 3036724 2982273 2926661 2884332 2868322 2884165 2927762 
1774.284 2987744 3051505 3108301 3153088 3185497 3208562 3226020 3240073 
1778.142 3250589 3255897 3254395 3247017 3236969 3229492 3228991 3236936 
1781.999 3251056 3266780 3278498 3282771 3278398 3267314 3253326 3240140 
1785.857 3230760 3226587 3228390 3236368 3250756 3270619 3293688 3314956 
1789.714 3327878 3325807 3304139 3263175 3209129 3152921 3106098 3076999 
1793.572 3067255 3073195 3087744 3103729 3116110 3122150 3121650 3115643 
1797.429 3105664 3093651 3081204 3069624 3059847 3052340 3046500 3040961 
1801.286 3034088 3024512 3012000 2998020 2984542 2973699 2967026 2964691 
1805.144 2965725 2969062 2973599 2979604 2987044 2996218 3006428 3015970 
1809.001 3022643 3025312 3024411 3022510 3022743 3028649 3041562 3060114 
1812.859 3080836 3099524 3113140 3120281 3122417 3122184 3123218 3128224 
1816.716 3138837 3155324 3176952 3202954 3232462 3264276 3297662 3331517 
1820.573 3364974 3397866 3429893 3461454 3491915 3519672 3542153 3556351 
1824.431 3560828 3556752 3547933 3539414 3535539 3537310 3542788 3546630 
1828.288 3543824 3531497 3511756 3491547 3479924 3485168 3510386 3552843 
1832.146 3605294 3659857 3710249 3753761 3791062 3825557 3861025 3900608 
1836.003 3945076 3994030 4046433 4101653 4160092 4222754 4290980 4365207 
1839.861 4445037 4528799 4614353 4698951 4779346 4853054 4918262 4975838 
1843.718 5029936 5086958 5154917 5238883 5339201 5450716 5564474 5669902 
1847.575 5757091 5820555 5858604 5873650 5870224 5852223 5821831 5778446 
1851.433 5720528 5647646 5561655 5466989 5369593 5274601 5184726 5099730 
1855.290 5017568 4935889 4853690 4772177 4693927 4621117 4554915 4494348 
1859.148 4437438 4382377 4328426 4276390 4227070 4180766 4136274 4091251 
1863.005 4043590 3992993 3942033 3895058 3856579 3829234 3812187 3800855 
1866.863 3789391 3771876 3746910 3716665 3687291 3665003 3654444 3656148 
1870.720 3668010 3686255 3707575 3729966 3752024 3772478 3789323 3800086 
1874.577 3802827 3796978 3784444 3768200 3752224 3738822 3727760 3716598 
1878.435 3702128 3681911 3656047 3626878 3598445 3574191 3556017 3543223 
1882.292 3533435 3524349 3514428 3503271 3491714 3480391 3468802 3455910 
1886.150 3440145 3420475 3397532 3372788 3348479 3326108 3306209 3288948 
1890.007 3274459 3264043 3259736 3264076 3277864 3299565 3325340 3349347 
1893.865 3367512 3377563 3381270 3383039 3388149 3400204 3420074 3446157 
1897.722 3475648 3506378 3537176 3568411 3599782 3629484 3654210 3670316 
1901.579 3675127 3669447 3657317 3644754 3637503 3638038 3645288 3655145 
1905.437 3662998 3665905 3664501 3661795 3661628 3666072 3673858 3681142 
1909.294 3683448 3677834 3664602 3646725 3628782 3614616 3605060 3600183 
1913.152 3598679 3600283 3605762 3616687 3632959 3651737 3666774 3670783 
1917.009 3657685 3625942 3580605 3530729 3485702 3451534 3428490 3411925 
1920.866 3394727 3371886 3341434 3306275 3271387 3241809 3219611 3203989 
1924.724 3192340 3182727 3174916 3171178 3173782 3183761 3199082 3215338 
1928.581 3227956 3234332 3235567 3235300 3238471 3248119 3263909 3282237 
1932.439 3298029 3307978 3311450 3310883 3310115 3312185 3317694 3324705 
1936.296 3330482 3333554 3334689 3336625 3342168 3352553 3366343 3380101 
1940.154 3390386 3395328 3396197 3396163 3398501 3404078 3411024 3415299 
1944.011 3414497 3408753 3402541 3401940 3412994 3437206 3471707 3508783 
1947.868 3540383 3561262 3570816 3572353 3571885 3574525 3582743 3596574 
1951.726 3614482 3636200 3662196 3692738 3726791 3758875 3780065 3780600 
1955.583 3754229 3699956 3625007 3542521 3467766 3412092 3381236 3373990 
1959.441 3384609 3406148 3433466 3464727 3498862 3533936 3566072 3591196 
1963.298 3604960 3607633 3602521 3594269 3587153 3581975 3575226 3562197 
1967.156 3539381 3508783 3477552 3455108 3448628 3459483 3481093 3502570 
1971.013 3512624 3504474 3479222 3444487 3410790 3387013 3378966 3387214 
1974.870 3411658 3453238 3514562 3599648 3708778 3837056 3972060 4097974 
1978.728 4200706 4270835 4306674 4311794 4292519 4254807 4202679 4138916 
1982.585 4066968 3991689 3920066 3858384 3809980 3774283 3746242 3719038 
1986.443 3688260 3654243 3621933 3599214 3592632 3604392 3630821 3665671 
1990.300 3701092 3731938 3758173 3781569 3804732 3829134 3852601 3872291 
1994.157 3886031 3894055 3899973 3907528 3919531 3934276 3946614 3949289 
1998.015 3937051 3908565 3867243 3819908 3772478 3728696 3687258 3645021 
2001.872 3597877 3545628 3491815 3444153 3409154 3392056 3393191 3409187 
2005.730 3434935 3466163 3500666 3537744 3576529 3614449 3646658 3668478 
2009.587 3678001 3677132 3672387 3671452 3681944 3706773 3744303 3789391 
2013.445 3836054 3878877 3914917 3942969 3961761 3970020 3965807 3949523 
2017.302 3924647 3898368 3880482 3879947 3901577 3943905 3999614 4059343 
2021.159 4113394 4155575 4184212 4199669 4203917 4198096 4183509 4161263 
2025.017 4134635 4109514 4091217 4084829 4091418 4107841 4127644 4145272 
2028.874 4157683 4165913 4173874 4185851 4204018 4227873 4253804 4278799 
2032.732 4302893 4328560 4360220 4401087 4451263 4507004 4563990 4617099 
2036.589 4665793 4712450 4761155 4813920 4870041 4924126 4969805 5002350 
2040.447 5021288 5030741 5037043 5045657 5057256 5068318 5072140 5063223 
2044.304 5039959 5006372 4970241 4940514 4924797 4926003 4944234 4976575 
2048.161 5019579 5069995 5123165 5173023 5211720 5231472 5227615 5201291 
2052.019 5160818 5118673 5089874 5085449 5109051 5156392 5216683 5277821 
2055.876 5330078 5369694 5397840 5418305 5435013 5448401 5458097 5462191 
2059.734 5460882 5456923 5455380 5461352 5477559 5502826 5533498 5563836 
2063.591 5590115 5610522 5625828 5637476 5646539 5652212 5652481 5645733 
2067.448 5631333 5611127 5588202 5565212 5544069 5524336 5505343 5486283 
2071.306 5468801 5455748 5450213 5453635 5464808 5478565 5489404 5492759 
2075.163 5487055 5475009 5461587 5452125 5449977 5455178 5465311 5477559 
2079.021 5490041 5502356 5515611 5530612 5546082 5559775 5567930 5567863 
2082.878 5560480 5548734 5538028 5533162 5536585 5547056 5561621 5575381 
2086.736 5585148 5589578 5589578 5586222 5580617 5572025 5559305 5541586 
2090.593 5519269 5494907 5471687 5453265 5441086 5435349 5434980 5438570 
2094.450 5446320 5459238 5478028 5502188 5528867 5553298 5570548 5577731 
2098.308 5575616 5568400 5561789 5560681 5567427 5580147 5595250 5608408 
2102.165 5617537 5623646 5630091 5640832 5658624 5684203 5715794 5751081 
2106.023 5788049 5825827 5863608 5900821 5935317 5964171 5984294 5994607 
2109.880 5996421 5993398 5990072 5990374 5995279 6003476 6011942 6017788 
2113.738 6020375 6021114 6023029 6028740 6039559 6054678 6071377 6087371 
2117.595 6101887 6115396 6129846 6146481 6165267 6184559 6202136 6216455 
2121.452 6228017 6239412 6254539 6276019 6304594 6338113 6372979 6405798 
2125.310 6434246 6458325 6478974 6496464 6510253 6517014 6512944 6495488 
2129.167 6464412 6422443 6374795 6326783 6283616 6248522 6223412 6209665 
2133.025 6208825 6221564 6246539 6279280 6311082 6332061 6333776 6312662 
2136.882 6271985 6221396 6173434 6138583 6122285 6122856 6134349 6149304 
2140.740 6162612 6173636 6185029 6200557 6221732 6246572 6269766 6285600 
2144.597 6290340 6283885 6269128 6250875 6232051 6214001 6196255 6177265 
2148.454 6157302 6136802 6117177 6097788 6075107 6043826 5998235 5935921 
2152.312 5858268 5771395 5682156 5595049 5509806 5421425 5324711 5218896 
2156.169 5112336 5022361 4973693 4987871 5075794 5231036 5431692 5647848 
2160.027 5848529 6013219 6131593 6203111 6232118 6225396 6191146 6137037 
2163.884 6071276 6003375 5940892 5888092 5844767 5806015 5765015 5715962 
2167.741 5657113 5590853 5523195 5459137 5402134 5351110 5302506 5252097 
2171.599 5198910 5145126 5097350 5063625 5050015 5058764 5089103 5134967 
2175.456 5188213 5241063 5284059 5308845 5308745 5279095 5219768 5135739 
2179.314 5037545 4938436 4851311 4786079 4746148 4728561 4725681 4729265 
2183.171 4732715 4732983 4729433 4723839 4716905 4708832 4699286 4689205 
2187.029 4680831 4677750 4683980 4701296 4729633 4765477 4804572 4843471 
2190.886 4880362 4915078 4948591 4981000 5010428 5034260 5049110 5053200 
2194.743 5047334 5034461 5018271 5002417 4989044 4978520 4971280 4967795 
2198.601 4968766 4975805 4988608 5005065 5020685 5030942 5031646 5022629 
2202.458 5006540 4988876 4975134 4969403 4972286 4982039 4996451 5014015 
2206.316 5035266 5061681 5094802 5133257 5173224 5208802 5234590 5248039 
2210.173 5250386 5245792 5239722 5235999 5235630 5236234 5233853 5225737 
2214.031 5211083 5192740 5174197 5159846 5151665 5150055 5153173 5159008 
2217.888 5165781 5171783 5175907 5175639 5167792 5149485 5119377 5079079 
2221.745 5033288 4988809 4951908 4926640 4912632 4906064 4901573 4894101 
2225.603 4880999 4863005 4842499 4821894 4802797 4784572 4765343 4743870 
2229.460 4719853 4695167 4672927 4656416 4647808 4647474 4654339 4665793 
2233.318 4680027 4694798 4708766 4721394 4732046 4740688 4748124 4754991 
2237.175 4762629 4772110 4783533 4796331 4809196 4821324 4832582 4844141 
2241.032 4857878 4874699 4894804 4915681 4934482 4948457 4957170 4962667 
2244.890 4969805 4983748 5008216 5043579 5086924 5132452 5173492 5205281 
2248.747 5225167 5233451 5232444 5225167 5214839 5204510 5197233 5195825 
2252.605 5203169 5220707 5247737 5280738 5314246 5341885 5357819 5358926 
2256.462 5344803 5317264 5280134 5237106 5191600 5147104 5106570 5072911 
2260.320 5049110 5036406 5034528 5041199 5052597 5064463 5073816 5079716 
2264.177 5082432 5083739 5084443 5083940 5081158 5074453 5063256 5049479 
2268.034 5036506 5028361 5028394 5037143 5052931 5072341 5091618 5107911 
2271.892 5120718 5130508 5138890 5146635 5153978 5160382 5165110 5167993 
2275.749 5169771 5171749 5175169 5180668 5188414 5198038 5209071 5221545 
2279.607 5235429 5250721 5266753 5282684 5297240 5310455 5323570 5338631 
2283.464 5358456 5384891 5417869 5455010 5492289 5525578 5552459 5572528 
2287.322 5587464 5600285 5613375 5628010 5644088 5660100 5674837 5688030 
2291.179 5700418 5713881 5729761 5749201 5772134 5798660 5828446 5862063 
2295.036 5900048 5942908 5989736 6038248 6085221 6127124 6161738 6188793 
2298.894 6210472 6229934 6250471 6274372 6302106 6332464 6363699 6394230 
2302.751 6423149 6450355 6476015 6500398 6523304 6544259 6563198 6580623 
2306.609 6597678 6616181 6637478 6662644 6691716 6724592 6760465 6798866 
2310.466 6839492 6881569 6923784 6964355 7000989 7031059 7053622 7068676 
2314.323 7078105 7084774 7092082 7103264 7120677 7145535 7178209 7217927 
2318.181 7263343 7312402 7362681 7412055 7459007 7502594 7542746 7579160 
2322.038 7611125 7635809 7649095 7646667 7624714 7582228 7521675 7449064 
2325.896 7372117 7299294 7237165 7189326 7156044 7134824 7121654 7112762 
2329.753 7104645 7095618 7084875 7072515 7059414 7047493 7039343 7037861 
2333.611 7045910 7064937 7094036 7130277 7169249 7206372 7238209 7264050 
2337.468 7285412 7305225 7326488 7351054 7379329 7410471 7443873 7479266 
2341.325 7517529 7559604 7605022 7652130 7696141 7731521 7753210 7758371 
2345.183 7748521 7729261 7709665 7700121 7709328 7743900 7806272 7895544 
2349.040 8007481 8135887 8272638 8408454 8535357 8646546 8738729 8811523 
2352.898 8868163 8913076 8950991 8985662 9019930 9055519 9094293 9137875 
2356.755 9187587 9243431 9304224 9367124 9428374 9485468 9536677 9582064 
2360.613 9622680 9659201 9691319 9717477 9736215 9746347 9749566 9749126 
2364.470 9749736 9755868 9769593 9790604 9815852 9841137 9862693 9878048 
2368.327 9886386 9888081 9884115 9875370 9862456 9846831 9830324 9814938 
2372.185 9803685 9798331 9799415 9806261 9816293 9827274 9837171 9844661 
2376.042 9849745 9852660 9854185 9854830 9855405 9857235 9862117 9872523 
2379.900 9891064 9919335 9958254 10007178 10064009 10126138 10190820 
2383.275 10255444 10317871 10376440 10429585 10476527 10516920 10551276 
2386.650 10580914 10607464 10632115 10654798 10674460 10688858 10695549 
2390.025 10693409 10682542 10665393 10644577 10623117 10602881 10583698 
2393.401 10564686 10544180 10521503 10497232 10473132 10451681 10434948 
2396.776 10424461 10420218 10422119 10429688 10443026 10462780 10489765 
2400.151 10524253 10566077 10614493 10668313 10726894 10790002 10858044 
2403.526 10931602 11010847 11095240 11183558 11274683 11367494 11461992 
2406.902 11558791 11659558 11766137 11880233 12003284 12136557 12280336 
2410.277 12434629 12598186 12768561 12941734 13113610 13279132 13434498 
2413.652 13577133 13706069 13821325 13923954 14014903 14094680 14163755 
2417.027 14222604 14271669 14312280 14345499 14372212 14393036 14408072 
2420.403 14417012 14419821 14416943 14409065 14396872 14381493 14363410 
2423.778 14343649 14323787 14305774 14293139 14289749 14298755 14322862 
2427.153 14363068 14418690 14488434 14570662 14664248 14768927 14884947 
2430.528 15012316 15150771 15299566 15457236 15622829 15795838 15976101 
2433.904 16163660 16358458 16559985 16767357 16979928 17197326 17420522 
2437.279 17650840 17890394 18141034 18403844 18679616 18968470 19270542 
2440.654 19585926 19915240 20258622 20615722 20985668 21367102 21758836 
2444.029 22159988 22570132 22988838 23415082 23846784 24280844 24713796 
2447.405 25142368 25564862 25980910 26391334 26797602 27200228 27598246 
2450.780 27989918 28372146 28741824 29096970 29435954 29758350 30064010 
2454.155 30352476 30622890 30874298 31104782 31312380 31494714 31648822 
2457.530 31771690 31860072 31910740 31921048 31889596 31815004 31696976 
2460.906 31535436 31330864 31084030 30796752 30472306 30114434 29728330 
2464.281 29319600 28893438 28455382 28010982 27565660 27126330 26700342 
2467.656 26295362 25918862 25576672 25272292 25006906 24779320 24586916 
2471.031 24426806 24296368 24193466 24116472 24063900 24033784 24023836 
2474.406 24031506 24054060 24088662 24132584 24183096 24237152 24291812 
2477.782 24344516 24393300 24437534 24476864 24511288 24540354 24562476 
2481.157 24575414 24576922 24564896 24539020 24500034 24450504 24393090 
2484.532 24330392 24264236 24195812 24125752 24055004 23984862 23917114 
2487.907 23853154 23793546 23737654 23683590 23628694 23570618 23507236 
2491.283 23438056 23362910 23282638 23197800 23108892 23016088 22918728 
2494.658 22816430 22708572 22594248 22472732 22343122 22205006 22058218 
2498.033 21903710 21742636 21577132 21408836 21239110 21068648 20897456 
2501.408 20725044 20551308 20376570 20201412 20027786 19856862 19690688 
2504.784 19530642 19377862 19233066 19096454 18967744 18845924 18729532 
2508.159 18616424 18505212 18394822 18285464 18178346 18075156 17977654 
2511.534 17886976 17802910 17724488 17649736 17576756 17503998 17430558 
2514.909 17356444 17282584 17210252 17141346 17077826 17021586 16974002 
2518.285 16935656 16905994 16883878 16867308 16854666 16845126 16838684 
2521.660 16836584 16840028 16850050 16866276 16888012 16912506 16938240 
2525.035 16963148 16986268 17007872 17028030 17047120 17065556 17082926 
2528.410 17098884 17112842 17124422 17132798 17137346 17137176 17131454 
2531.786 17119736 17102778 17081996 17059698 17038266 17019312 17003530 
2535.161 16990678 16979858 16969972 16960806 16952846 16947128 16944716 
2538.536 16945716 16949816 16955602 16961668 16966422 16969902 16972210 
2541.911 16974518 16978584 16985476 16996294 17011696 17031372 17054944 
2545.287 17080996 17107946 17133796 17156512 17175022 17189190 17199532 
2548.662 17207564 17214804 17222044 17229316 17235868 17240900 17243934 
2552.037 17244968 17245106 17245418 17246556 17248486 17250588 17251484 
2555.412 17250174 17246382 17240314 17232938 17225216 17217354 17209426 
2558.788 17200670 17190154 17177332 17161442 17141898 17117944 17088372 
2562.163 17051704 17007046 16954054 16893558 16828042 16760573 16694285 
2565.538 16632278 16576748 16528869 16488979 16456800 16431611 16412305 
2568.913 16397303 16385192 16374765 16365441 16357735 16352883 16352471 
2572.289 16357528 16368400 16384503 16404288 16426207 16449505 16474351 
2575.664 16501816 16532965 16568452 16607765 16649215 16690738 16730579 
2579.039 16767977 16803554 16838924 16875678 16915328 16958394 17004736 
2582.414 17054012 17105880 17159752 17215630 17272792 17330410 17387206 
2585.790 17442114 17494718 17545740 17596734 17649908 17707126 17769428 
2589.165 17836846 17908004 17981626 18056226 18130530 18203948 18275686 
2592.540 18345082 18411174 18472848 18529624 18581702 18629912 18675740 
2595.915 18720952 18766894 18814468 18864194 18916484 18971828 19031022 
2599.291 19094620 19163110 19236496 19314222 19395496 19479628 19566064 
2602.666 19654944 19746582 19841396 19939558 20040590 20144108 20249318 
2606.041 20356082 20464054 20573856 20685982 20800952 20919358 21041624 
2609.416 21167820 21297882 21431288 21566720 21702266 21835482 21964072 
2612.792 22085654 22199146 22304158 22401310 22491610 22575716 22654288 
2616.167 22727462 22795130 22856976 22913174 22963790 23009380 23050222 
2619.542 23086668 23119236 23148486 23175572 23201854 23228700 23257188 
2622.917 23287810 23320254 23353890 23387910 23422216 23457012 23493420 
2626.292 23532420 23575062 23621730 23672464 23726946 23784902 23846610 
2629.668 23912248 23982238 24056404 24133984 24214170 24295350 24376512 
2633.043 24456952 24536706 24616546 24696994 24778582 24861590 24945874 
2636.418 25031438 25118108 25206062 25295540 25386900 25480352 25575722 
2639.793 25672626 25770570 25869272 25968598 26068262 26168266 26268398 
2643.169 26368378 26467678 26565728 26662818 26758554 26853676 26948890 
2646.544 27044796 27142308 27242312 27345200 27451462 27561000 27673532 
2649.919 27789058 27907090 28027170 28149720 28274568 28402070 28532370 
2653.294 28665364 28800700 28938060 29077164 29217910 29360506 29505422 
2656.670 29653082 29803736 29957248 30113334 30271078 30430262 30590074 
2660.045 30750374 30910942 31071182 31230910 31389628 31546730 31702180 
2663.420 31855792 32007784 32158368 32307536 32455150 32600924 32744672 
2666.795 32886610 33027380 33167910 33309306 33452428 33598112 33746304 
2670.171 33896812 34049484 34204180 34360724 34519196 34679728 34842120 
2673.546 35006076 35171068 35336516 35501780 35666128 35828920 35989476 
2676.921 36147208 36301896 36453616 36603364 36752232 36901980 37054448 
2680.296 37210980 37373016 37541220 37716252 37898796 38089344 38289052 
2683.672 38498632 38719284 38951436 39195708 39452024 39720468 40000416 
2687.047 40291304 40592140 40901992 41219536 41543944 41874656 42211352 
2690.422 42554188 42903444 43259384 43621996 43991288 44367244 44749804 
2693.797 45139428 45536616 45941500 46354312 46774608 47201328 47633724 
2697.173 48070876 48512656 48959188 49411228 49869316 50333876 50804744 
2700.548 51281684 51764216 52251924 52744636 53241908 53743164 54247368 
2703.923 54752680 55257116 55758220 56253376 56739960 57214808 57675076 
2707.298 58117040 58537732 58933784 59302700 59642656 59952560 60231820 
2710.674 60480404 60698076 60885248 61041836 61168500 61265552 61333204 
2714.049 61371748 61380564 61359000 61305884 61220572 61102588 60952384 
2717.424 60771016 60559972 60321428 60058284 59773096 59469736 59152128 
2720.799 58824392 58491328 58157496 57827252 57504828 57194168 56898916 
2724.175 56622700 56368312 56138096 55933624 55755620 55604276 55479416 
2727.550 55380672 55307692 55260352 55238152 55240520 55266372 55314504 
2730.925 55383608 55472712 55580888 55707628 55851960 56012400 56186548 
2734.300 56371444 56563664 56760236 56958864 57158336 57358052 57558392 
2737.676 57759200 57959912 58160452 58359492 58556200 58749996 58940540 
2741.051 59127560 59311280 59491512 59668428 59842568 60014800 60186260 
2744.426 60358664 60533272 60711108 60892416 61076960 61263452 61451132 
2747.801 61638516 61824296 62007328 62186076 62358936 62524356 62681004 
2751.177 62828400 62966428 63095948 63218156 63334644 63447364 63557664 
2754.552 63666800 63775612 63884236 63992336 64098968 64202940 64302444 
2757.927 64396360 64483024 64561292 64629956 64687604 64732476 64762748 
2761.302 64776600 64772368 64749136 64706556 64644492 64563364 64463264 
2764.677 64344444 64207092 64052008 63880704 63695460 63499212 63295388 
2768.053 63087100 62877796 62669596 62464976 62266032 62074292 61891420 
2771.428 61718868 61557644 61408160 61270740 61145348 61031768 60929660 
2774.803 60838628 60757564 60685272 60619968 60559436 60501048 60441904 
2778.178 60378272 60306540 60222188 60120992 59999276 59854928 59687588 
2781.554 59499112 59293012 59073992 58846812 58615236 58382688 58150944 
2784.929 57921972 57696836 57477180 57263344 57055472 56852496 56651880 
2788.304 56451016 56247268 56038940 55826036 55609324 55391248 55173508 
2791.679 54958096 54745952 54537104 54331808 54130440 53933436 53741816 
2795.055 53556684 53379056 53209176 53047296 52893412 52747516 52609784 
2798.430 52480468 52359528 52246804 52141732 52043488 51950788 51862664 
2801.805 51777916 51695616 51614592 51533480 51451108 51366520 51279036 
2805.180 51188620 51095884 51001524 50906700 50811748 50717152 50622764 
2808.556 50528284 50433336 50337484 50240540 50142124 50042132 49940012 
2811.931 49835720 49728852 49619744 49508736 49396308 49283052 49169712 
2815.306 49057408 48947096 48840856 48740720 48649984 48571272 48508284 
2818.681 48463680 48440452 48441084 48467828 48522436 48605808 48718592 
2822.057 48859804 49027472 49218360 49428828 49654476 49891208 50135356 
2825.432 50382916 50630768 50875256 51112508 51338544 51549372 51741000 
2828.807 51910420 52054916 52173008 52264520 52330184 52372088 52392608 
2832.182 52394404 52380048 52351640 52310528 52258092 52195500 52124364 
2835.558 52046848 51965652 51883272 51801696 51722040 51644896 51570228 
2838.933 51498296 51430296 51367896 51314196 51272472 51245292 51235112 
2842.308 51243728 51272396 51323368 51399116 51503184 51640044 51813644 
2845.683 52026156 52277188 52562100 52871928 53192280 53505264 53790452 
2849.059 54026112 54193232 54276800 54267940 54165196 53974444 53707804 
2852.434 53381340 53013228 52622460 52225540 51837500 51470396 51132856 
2855.809 50830596 50566440 50340016 50149116 49989156 49855008 49740704 
2859.184 49640952 49550808 49466032 49383384 49299864 49213760 49123852 
2862.560 49030068 48933152 48834480 48736196 48640496 48550076 48468200 
2865.935 48398408 48345036 48313040 48307224 48331928 48389852 48481792 
2869.310 48606104 48758812 48934156 49125596 49325400 49526488 49722312 
2872.685 49906964 50076084 50226924 50358472 50471708 50569600 50656716 
2876.061 50738156 50819424 50905508 51000180 51105948 51223704 51353428 
2879.436 51494344 51645344 51805580 51974836 52153464 52341884 52540144 
2882.811 52747440 52961420 53177488 53389696 53591544 53775716 53936700 
2886.186 54070616 54176304 54255288 54311832 54352648 54385320 54418816 
2889.562 54462612 54525532 54616904 54746368 54923580 55160908 55472560 
2892.937 55875060 56388984 57036996 57841716 58826020 60006428 61389072 
2896.312 62963708 64699524 66540540 68401344 70181152 71763536 73030616 
2899.687 73887976 74268448 74148152 73547208 72527272 71180080 69605536 
2903.063 67909936 66186732 64507700 62929040 61486216 60198744 59075324 
2906.438 58116472 57317296 56669660 56165092 55795068 55552344 55431600 
2909.813 55428400 55538264 55755052 56069624 56468224 56934836 57449532 
2913.188 57990508 58536824 59067160 59561888 60005096 60382764 60685272 
2916.563 60907052 61046756 61106672 61092292 61011636 60873736 60688056 
2919.939 60464904 60213548 59943052 59661740 59376996 59095480 58823592 
2923.314 58567156 58331828 58123292 57946660 57806244 57704744 57643704 
2926.689 57622592 57639696 57691988 57775476 57884792 58013912 58154996 
2930.064 58299236 58437612 58560332 58658848 58725644 58754204 58739716 
2933.440 58678152 58566436 58402928 58187996 57924244 57617484 57275896 
2936.815 56910512 56532528 56154420 55787980 55443572 55131452 54860416 
2940.190 54637872 54469636 54358920 54305600 54305636 54351332 54431288 
2943.565 54529928 54630244 54713332 54759632 54752116 54676460 54523580 
2946.941 54290732 53982364 53609804 53188312 52736964 52275020 51819056 
2950.316 51383116 50976784 50605076 50269296 49968116 49698276 49455412 
2953.691 49235472 49035040 48851796 48684528 48532624 48395892 48273600 
2957.066 48164488 48066508 47977316 47894880 47817860 47746028 47679832 
2960.442 47620412 47568760 47525548 47491132 47465848 47450032 47444192 
2963.817 47449144 47465520 47493572 47533160 47583808 47645224 47717216 
2967.192 47800436 47895992 48005480 48130060 48270972 48428708 48603696 
2970.567 48796548 49007852 49238700 49490020 49761960 50053472 50361300 
2973.943 50679544 50999212 51308864 51593512 51836492 52021188 52131420 
2977.318 52155184 52085584 51922816 51673892 51352380 50977156 50568224 
2980.693 50146700 49731676 49338132 48977360 48655912 48375852 48135056 
2984.068 47928180 47747064 47581736 47422128 47259808 47088644 46905960 
2987.444 46712840 46513088 46310924 46110068 45911040 45710408 45500888 
2990.819 45272200 45014528 44719940 44385740 44015012 43617088 43205544 
2994.194 42794796 42398684 42026616 41683208 41367988 41076924 40804616 
2997.569 40545032 40294032 40049064 39809140 39574100 39344124 39119344 
3000.945 38899392 38684184 38473868 38268536 38069268 37876776 37691856 
3004.320 37515032 37346368 37185708 37032836 36887228 36749060 36618180 
3007.695 36494444 36378196 36269188 36167480 36072888 35984904 35903272 
3011.070 35827484 35756856 35690768 35628612 35569524 35513032 35458452 
3014.446 35405568 35354308 35305248 35259068 35217272 35180948 35151308 
3017.821 35128676 35112688 35102164 35095768 35091920 35089480 35087864 
3021.196 35086788 35086464 35086860 35088044 35089732 35091744 35094224 
3024.571 35097956 35104244 35114984 35132160 35157448 35192016 35235960 
3027.947 35288140 35346152 35406860 35466184 35519756 35563772 35595380 
3031.322 35613148 35617104 35608688 35590200 35563912 35532304 35497140 
3034.697 35459892 35421960 35384756 35349312 35317036 35288604 35264492 
3038.072 35244980 35230212 35220584 35216736 35219392 35229208 35246060 
3041.448 35269240 35297088 35328036 35360812 35394892 35430732 35468952 
3044.823 35510444 35555032 35601784 35649004 35695088 35739116 35781644 
3048.198 35824032 35868724 35917812 35972484 36032388 36095824 36160496 
3051.573 36223376 36282300 36335720 36383532 36426264 36465508 36503384 
3054.948 36542380 36584408 36631452 36683868 36741812 36804268 36869876 
3058.324 36937696 37007252 37078808 37152756 37229604 37309392 37391544 
3061.699 37475084 37559068 37642964 37727020 37811780 37898292 37987424 
3065.074 38079284 38174024 38271212 38370664 38472492 38576588 38682920 
3068.449 38790800 38898776 39005188 39108468 39207496 39302012 39393028 
3071.825 39481596 39568912 39655884 39742944 39830424 39918464 40007716 
3075.200 40098628 40192068 40287416 40384204 40480760 40575808 40668184 
3078.575 40757556 40844584 40930244 41015664 41101764 41188820 41277064 
3081.950 41366496 41457616 41550724 41646156 41743868 41842912 41942416 
3085.326 42041108 42138688 42235964 42334536 42436420 42543300 42655944 
3088.701 42773992 42896096 43020648 43146072 43271540 43396892 43522104 
3092.076 43647312 43772812 43898312 44024288 44151216 44280276 44412788 
3095.451 44549560 44691036 44836420 44984428 45133364 45281836 45429036 
3098.827 45574996 45720016 45864784 46009456 46154360 46299532 46445048 
3102.202 46590948 46737892 46885988 47035360 47185780 47336508 47486732 
3105.577 47635680 47782756 47927996 48071728 48214728 48357852 48502096 
3108.952 48647944 48796032 48945948 49097588 49249980 49402764 49555636 
3112.328 49708864 49863184 50019564 50178648 50340240 50503232 50665952 
3115.703 50826200 50982744 51135352 51285000 51433800 51584072 51737828 
3119.078 51896080 52058576 52224048 52391564 52559628 52727872 52896252 
3122.453 53064964 53234604 53405244 53576736 53749012 53921320 54093468 
3125.829 54264900 54435192 54603752 54770496 54935388 55098460 55260652 
3129.204 55422492 55584920 55748088 55912368 56077316 56242816 56408532 
3132.579 56574460 56740828 56908056 57076936 57247696 57420940 57596756 
3135.954 57775400 57956352 58138896 58322204 58505012 58686500 58866124 
3139.330 59044044 59220664 59396940 59573288 59749940 59926620 60103032 
3142.705 60279208 60455308 60632468 60811796 60994360 61180096 61368428 
3146.080 61557644 61745832 61931812 62114812 62294944 62472972 62649772 
3149.455 62826872 63004768 63184692 63367188 63552944 63742384 63935252 
3152.831 64130656 64326764 64522116 64715216 64905352 65092960 65278992 
3156.206 65464488 65649940 65835288 66019712 66202396 66382996 66562056 
3159.581 66740604 66920192 67102052 67286744 67474104 67663568 67854416 
3162.956 68046408 68239128 68432568 68625856 68818024 69007640 69193728 
3166.332 69375656 69553928 69729544 69903680 70076832 70249040 70419720 
3169.707 70587704 70752584 70914456 71074192 71232744 71390728 71548144 
3173.082 71704168 71857904 72008224 72154864 72297728 72437152 72573408 
3176.457 72706376 72835664 72961344 73083776 73203840 73323344 73443528 
3179.833 73565256 73688680 73812688 73936256 74058240 74177984 74295688 
3183.208 74411728 74526656 74640672 74753808 74866024 74977136 75087648 
3186.583 75197824 75308112 75418112 75527320 75634768 75739688 75841744 
3189.958 75941384 76039232 76135992 76232072 76327328 76421552 76514648 
3193.333 76606416 76697488 76787752 76877248 76964944 77049408 77129616 
3196.709 77204808 77275904 77345112 77414760 77486832 77562008 77639696 
3200.084 77717720 77794208 77867696 77937824 78005304 78070984 78135392 
3203.459 78198264 78258768 78316064 78370312 78422224 78473624 78525992 
3206.834 78580152 78635616 78690624 78743368 78792544 78837920 78880344 
3210.210 78921080 78960936 78999888 79037000 79070912 79100848 79127120 
3213.585 79151216 79175224 79201240 79230384 79262472 79296632 79331520 
3216.960 79366360 79400968 79435696 79471624 79509384 79548944 79590328 
3220.335 79633232 79677408 79723072 79769976 79818192 79867048 79915760 
3223.711 79963880 80011240 80058608 80106856 80156944 80209312 80263760 
3227.086 80318688 80372824 80424424 80472432 80516744 80557824 80596440 
3230.461 80633976 80671992 80712176 80756504 80806872 80864704 80930408 
3233.836 81002992 81080256 81159776 81238632 81315144 81388592 81459088 
3237.212 81527488 81594248 81660192 81725528 81790888 81857456 81926472 
3240.587 81998896 82074944 82153520 82232720 82309488 82381816 82449232 
3243.962 82512736 82575488 82640728 82711872 82790616 82877384 82971424 
3247.337 83071304 83175832 83283384 83393096 83503360 83612608 83719152 
3250.713 83821216 83918240 84010696 84099640 84186752 84273280 84360184 
3254.088 84447392 84534568 84621008 84706128 84789256 84869936 84946968 
3257.463 85019416 85086528 85148312 85205680 85260472 85315320 85372384 
3260.838 85432840 85496824 85563024 85629528 85694104 85754808 85810520 
3264.214 85860344 85903872 85941104 85972120 85997888 86019416 86038488 
3267.589 86056664 86075048 86094112 86113496 86132536 86150352 86166424 
3270.964 86180208 86191320 86199120 86203040 86202432 86197256 86188648 
3274.339 86178792 86170224 86165056 86164976 86169336 86176408 86183768 
3277.715 86189216 86191888 86192168 86191080 86190272 86190672 86192448 
3281.090 86195640 86200088 86206192 86215200 86227968 86245672 86267736 
3284.465 86292912 86319312 86345016 86369312 86392800 86416808 86443456 
3287.840 86474144 86509608 86549480 86593240 86640240 86690440 86744368 
3291.216 86802640 86866168 86935464 87011040 87093392 87183368 87281472 
3294.591 87388880 87505384 87630608 87762952 87900744 88042384 88186664 
3297.966 88333480 88482864 88635344 88791368 88950792 89114376 89282504 
3301.341 89456720 89638536 89829888 90031520 90243520 90464512 90693008 
3304.717 90927064 91165456 91407288 91652408 91900776 92152688 92408304 
3308.092 92668224 92933712 93206264 93487040 93776512 94073664 94376488 
3311.467 94682088 94988272 95294176 95600832 95910432 96225464 96547432 
3314.842 96876176 97209896 97546152 97882720 98218248 98553256 98888144 
3318.218 99223912 99559776 99894944 100227528 100556144 100880456 101200880 
3321.593 101518224 101832952 102144680 102452272 102754544 103050968 
3324.486 103342128 103629120 103913944 104197096 104477568 104753240 
3327.379 105021496 105279744 105526824 105762456 105986896 106199840 
3330.272 106400112 106585952 106754960 106906112 107039672 107156616 
3333.165 107258696 107346256 107418264 107472232 107505680 107516888 
3336.058 107506152 107475632 107428448 107366840 107291152 107200512 
3338.951 107091992 106963040 106812040 106639480 106446560 106235048 
3341.844 106005840 105758192 105490792 105202104 104890832 104556632 
3344.737 104200424 103822816 103423936 103003376 102560352 102094800 
3347.630 101607768 101102176 100581784 100051104 99514520 98975192 98435400 
3351.006 97896952 97360128 96825408 96291968 95758768 95224280 94687368 
3354.381 94147736 93606800 93067856 92535680 92014696 91508480 91018704 
3357.756 90545072 90086024 89640168 89206528 88785720 88378968 87987568 
3361.131 87612360 87252840 86907536 86574600 86252624 85941024 85640064 
3364.507 85351040 85074952 84813136 84566336 84334832 84118704 83917712 
3367.882 83730672 83555688 83390008 83230688 83074640 82919768 82764592 
3371.257 82608232 82450112 82288456 82121336 81945920 81759528 81560104 
3374.632 81346832 81119800 80879912 80627512 80361984 80081952 79784784 
3378.008 79467920 79128712 78765448 78376856 77962008 77520496 77052448 
3381.383 76557960 76038600 75495664 74931736 74349320 73750832 73139096 
3384.758 72516192 71885008 71247816 70606840 69963824 69319520 68674368 
3388.133 68027960 67380304 66731944 66084252 65439292 64799020 64165144 
3391.509 63538484 62919236 62307412 61703588 61108688 60523900 59949860 
3394.884 59386532 58832132 58284456 57740996 57200180 56661808 56127460 
3398.259 55599304 55078900 54566672 54061496 53561148 53063096 52565836 
3401.634 52069672 51575528 51084776 50598676 50117360 49639360 49163220 
3405.010 48687568 48212100 47737708 47265420 46796640 46331936 45871340 
3408.385 45414504 44961312 44512404 44068988 43633020 43205800 42787556 
3411.760 42377716 41974792 41577160 41183868 40795044 40411988 40036384 
3415.135 39670260 39314744 38970316 38635980 38310660 37992308 37678844 
3418.510 37368612 37059792 36751692 36444100 36137844 35834464 35536008 
3421.886 35243756 34958636 34680196 34407204 34137940 33870876 33605272 
3425.261 33341612 33080798 32823962 32572314 32325524 32083228 31843848 
3428.636 31606130 31369432 31133364 30898490 30665736 30436198 30210474 
3432.011 29988844 29771478 29558124 29348242 29141508 28937386 28735486 
3435.387 28535696 28337908 28142012 27948220 27756280 27565906 27376640 
3438.762 27187810 26998638 26808914 26618394 26427744 26237986 26050284 
3442.137 25866144 25686334 25510992 25339444 25170282 25001184 24830012 
3445.512 24655050 24475986 24293880 24111356 23932028 23759144 23595142 
3448.888 23440504 23293614 23151910 23012246 22872064 22730324 22587304 
3452.263 22443912 22301508 22160756 22021442 21882418 21742672 21601264 
3455.638 21458580 21315908 21174884 21037450 20904790 20777420 20655020 
3459.013 20536582 20420880 20306464 20191974 20076296 19958812 19839384 
3462.389 19718150 19596256 19474986 19355688 19239334 19126162 19015998 
3465.764 18908248 18802498 18698502 18596400 18496394 18398488 18302088 
3469.139 18206262 18109700 18011258 17910594 17808158 17704918 17602256 
3472.514 17501512 17403450 17308858 17218078 17131488 17049568 16972520 
3475.890 16900446 16832794 16768804 16706921 16646495 16586283 16525736 
3479.265 16464543 16402086 16338089 16272210 16204759 16137077 16070953 
3482.640 16009308 15953997 15906151 15865529 15830131 15797729 15765980 
3486.015 15734026 15701801 15670815 15642373 15617779 15597138 15580102 
3489.391 15566021 15554276 15545210 15539338 15537002 15537964 15541536 
3492.766 15546034 15550739 15555341 15560732 15569250 15583400 15605106 
3496.141 15635846 15675556 15724234 15781475 15847212 15921688 16005183 
3499.516 16097050 16195575 16298320 16402567 16506944 16611414 16717976 
3502.892 16830314 16952088 17086890 17236420 17401036 17579792 17770634 
3506.267 17970748 18177448 18387874 18599614 18811250 19022886 19236392 
3509.642 19454714 19681572 19919680 20169724 20430502 20698422 20969880 
3513.017 21241824 21512718 21782524 22052396 22322750 22593062 22861272 
3516.393 23124338 23379554 23624810 23859070 24082568 24294930 24494848 
3519.768 24679774 24845800 24989040 25105646 25192962 25249358 25273730 
3523.143 25265442 25224320 25150830 25046180 24912290 24751396 24565562 
3526.518 24356256 24124106 23869782 23594162 23299382 22988278 22664794 
3529.894 22332168 21993208 21649324 21301432 20949956 20595744 20240468 
3533.269 19885202 19531198 19178486 18825922 18472020 18115642 17756760 
3536.644 17397034 17038954 16685471 16339224 16001884 15674217 15356819 
3540.019 15050150 14755181 14473532 14206102 13953687 13715815 13491334 
3543.395 13277560 13071334 12869542 12668593 12465486 12257670 12044298 
3546.770 11825956 11605207 11385964 11172169 10966975 10771151 10583664 
3550.145 10400840 10219246 10036102 9850898 9665943 9485367 9314210 9156859 
3554.002 9015363 8889739 8777914 8676697 8582938 8493052 8404603 8314854 
3557.860 8221546 8122991 8018450 7907995 7792677 7674725 7556604 7440806 
3561.717 7329555 7224497 7127582 7039242 6959708 6888032 6820743 6753667 
3565.575 6680847 6597409 6500398 6391002 6274305 6157941 6049571 5954295 
3569.432 5873616 5805477 5745709 5689239 5631903 5570918 5505242 5435383 
3573.290 5362884 5289492 5216817 5146199 5078208 5012808 4949831 4888036 
3577.147 4826718 4765343 4703909 4643120 4584349 4528699 4476739 4428601 
3581.004 4383615 4341746 4303260 4269999 4244134 4227873 4221717 4223691 
3584.862 4228943 4229747 4217501 4184981 4128112 4047838 3950660 3846650 
3588.719 3746409 3658988 3590026 3541987 3514094 3503205 3505008 3513526 
3592.577 3521810 3523447 3512591 3486504 3445055 3391789 3332285 3272155 
3596.434 3216473 3167140 3124286 3085542 3047935 3009264 2968161 2925027 
3600.292 2882197 2842307 2807856 2780944 2762270 2751800 2748466 2751167 
3604.149 2758769 2770474 2785146 2801553 2817461 2830101 2835870 2830868 
3608.006 2812392 2780044 2735528 2682616 2626076 2569876 2516651 2466963 
3611.864 2420348 2375935 2333426 2293786 2259279 2232168 2213851 2204359 
3615.721 2201595 2201962 2201296 2195468 2181781 2159503 2130833 2099236 
3619.579 2069471 2045568 2029056 2019735 2015075 2011813 2007053 1999030 
3623.436 1988179 1976529 1967376 1963648 1967209 1976329 1987247 1992972 
3627.293 1986348 1962084 1919815 1865737 1811067 1767681 1742364 1735578 
3631.151 1741300 1752178 1760429 1760329 1749517 1728825 1701481 1671677 
3635.008 1643173 1618595 1599006 1584474 1574497 1568611 1566217 1566117 
3638.866 1567281 1567747 1565585 1559500 1549590 1536988 1524153 1514145 
3642.723 1509490 1511352 1519099 1530471 1541543 1547861 1545201 1530338 
3646.581 1501743 1460250 1408589 1350819 1291196 1233208 1179814 1133635 
3650.438 1098290 1077529 1074872 1091945 1127688 1177787 1234737 1289202 
3654.295 1331775 1354010 1352049 1327820 1289534 1248427 1215066 1195529 
3658.153 1190147 1194134 1200945 1204600 1201543 1191277 1175893 1159448 
3662.010 1145893 1137588 1136259 1141608 1152870 1169481 1190678 1216595 
3665.868 1246434 1279099 1311800 1340516 1360059 1365278 1352880 1322768 
3669.725 1280329 1235767 1200347 1184067 1190678 1218389 1260423 1307979 
3673.583 1352115 1385620 1404833 1411049 1409853 1408157 1410152 1415869 
3677.440 1420756 1419726 1408656 1386651 1356170 1322236 1289833 1262317 
3681.297 1239821 1220150 1199217 1174498 1144963 1112540 1080718 1052418 
3685.155 1029301 1010138 992204 971880 947274 919215 892287 873197 868051 
3689.494 879936 907694 946477 990046 1032755 1070886 1102342 1126791 1144864 
3693.834 1156890 1162903 1161907 1153235 1136492 1113105 1085733 1058098 
3697.691 1034449 1018076 1010503 1010869 1016548 1023788 1028969 1030098 
3701.549 1027043 1022161 1018939 1020002 1026976 1039332 1054477 1069723 
3705.406 1082412 1091015 1095101 1095300 1092244 1086730 1078658 1067033 
3709.264 1051222 1030464 1005422 977991 951823 931468 921540 925425 944617 
3713.603 977659 1021330 1069989 1117556 1157953 1185695 1197755 1193436 
3717.461 1174963 1146126 1112075 1077031 1043882 1014157 988352 967563 
3721.318 953151 947307 952321 969024 996488 1031759 1070520 1108321 1142007 
3725.658 1169947 1192340 1210514 1225599 1238292 1247530 1250753 1244971 
3729.515 1227028 1195629 1151641 1099851 1048465 1006485 982540 980448 
3733.373 997352 1024020 1048233 1058397 1047037 1015253 971582 929542 901485 
3737.712 894744 910084 942791 985961 1032124 1076433 1115231 1146159 1166159 
3742.052 1170146 1151109 1102209 1021629 918485 813141 731884 694049 703242 
3746.391 749276 814634 881165 932829 960490 961752 943023 915762 892985 
3750.731 884219 891690 912176 939437 968128 994795 1018109 1037372 1052119 
3755.071 1060622 1061984 1055241 1040893 1020965 998780 977559 959627 946742 
3759.410 940367 942094 953815 977526 1013160 1058197 1108022 1155794 1194366 
3763.750 1218024 1224636 1215365 1194699 1169647 1145661 1125529 1109218 
3767.607 1093872 1077429 1058330 1037671 1018474 1004725 999079 1002699 
3771.465 1014323 1031626 1051920 1073045 1094104 1115065 1135894 1156657 
3775.322 1176724 1194167 1206394 1210614 1204301 1185994 1156657 1119882 
3779.179 1080850 1046506 1022758 1012596 1015884 1029866 1049927 1072048 
3783.037 1092842 1111212 1126858 1139814 1150843 1158916 1163136 1162272 
3786.894 1156358 1146458 1134964 1124300 1116360 1111311 1107757 1103339 
3790.752 1095798 1084172 1069424 1053813 1039963 1029899 1024187 1022293 
3794.609 1022592 1023921 1026644 1032556 1044712 1065571 1095665 1132339 
3798.467 1170279 1201576 1217425 1211079 1179714 1127489 1065903 1011267 
3802.324 977958 972810 993001 1028172 1064541 1087992 1088291 1062416 
3806.181 1015651 961885 919049 903543 922237 972777 1044513 1125629 1204600 
3810.521 1273682 1329348 1371028 1399049 1413908 1414307 1397553 1361455 
3814.378 1305984 1236033 1161840 1097957 1057799 1048067 1066734 1104701 
3818.236 1148950 1185994 1206162 1203371 1178020 1136591 1090816 1054876 
3822.093 1038269 1044513 1070553 1108986 1151641 1191376 1223705 1246733 
3825.951 1261453 1270692 1277737 1284948 1292990 1300734 1306250 1308211 
3829.808 1306450 1302329 1298474 1297643 1301930 1311468 1324895 1339851 
3833.666 1353644 1363716 1368070 1364613 1351318 1326258 1288271 1237960 
3837.523 1179216 1118486 1064375 1024054 1002533 1000905 1016814 1045476 
3841.380 1081648 1120181 1157156 1189848 1217891 1241350 1261952 1281625 
3845.238 1302262 1325560 1352016 1381332 1411481 1440104 1463608 1479200 
3849.095 1483922 1475876 1453402 1414939 1358298 1281625 1185296 1073144 
3852.953 956804 854107 782933 755350 772411 825921 904240 995226 1089287 
3857.292 1179648 1260922 1330578 1387016 1429266 1457624 1472983 1476940 
3861.150 1470989 1457491 1438076 1413609 1384856 1351982 1316453 1281159 
3865.007 1250554 1229786 1222409 1228822 1245802 1267069 1285380 1294220 
3868.865 1290431 1276208 1259293 1250355 1256967 1281857 1320375 1363416 
3872.722 1399913 1420789 1420956 1401576 1369532 1334999 1307879 1294452 
3876.579 1296413 1310837 1332473 1355306 1374086 1386085 1391470 1393199 
3880.437 1395858 1404102 1421321 1447983 1481428 1516539 1546598 1564089 
3884.294 1563058 1540845 1500280 1450077 1401675 1366674 1351451 1355473 
3888.152 1373288 1395925 1414207 1420756 1412878 1392966 1368801 1350121 
3892.009 1345967 1361621 1397021 1448049 1508459 1571903 1632829 1686546 
3895.866 1730455 1762358 1780657 1784982 1775833 1755006 1725764 1692466 
3899.724 1658971 1628106 1600769 1575927 1551718 1526514 1499980 1474180 
3903.581 1452005 1437477 1433023 1439738 1455928 1478369 1503006 1526613 
3907.439 1546997 1563823 1577789 1590726 1605159 1622386 1643173 1667120 
3911.296 1692433 1716949 1738572 1755505 1766983 1772938 1774136 1771208 
3915.154 1764687 1755106 1742364 1726796 1708999 1690471 1672875 1658439 
3919.011 1649126 1646332 1650557 1661133 1676400 1693863 1710529 1723968 
3922.868 1732218 1734447 1730655 1722504 1711760 1701148 1692766 1688076 
3926.726 1687943 1692733 1702645 1717415 1736709 1759797 1785015 1810135 
3930.583 1832561 1849498 1859381 1861211 1856020 1846104 1833792 1821514 
3934.441 1810468 1800985 1792202 1783518 1774269 1764887 1756703 1751646 
3938.298 1751945 1759131 1773969 1795462 1821747 1849665 1875221 1895188 
3942.156 1906969 1910064 1905604 1896652 1886269 1877816 1872758 1871194 
3946.013 1871827 1872492 1871061 1866935 1860379 1852759 1846237 1841978 
3949.870 1840181 1840381 1841213 1841778 1842211 1842910 1845039 1850031 
3953.728 1857750 1867833 1878815 1889630 1899481 1908732 1918750 1930898 
3957.585 1946440 1965379 1986348 2007053 2025062 2038211 2045368 2046766 
3961.443 2043537 2037479 2030821 2024895 2021167 2020401 2022898 2028723 
3965.300 2037578 2048831 2061814 2075597 2089281 2102032 2113286 2122609 
3969.157 2130068 2135695 2140157 2143919 2147815 2152410 2158005 2164598 
3973.015 2171924 2179583 2187076 2194335 2201595 2209555 2218680 2229537 
3976.872 2242326 2257281 2273901 2291255 2308776 2324932 2338523 2348151 
3980.730 2352448 2350716 2342987 2329762 2312806 2294019 2274867 2256348 
3984.587 2239295 2223875 2210287 2199431 2192870 2192071 2198731 2213351 
3988.445 2235132 2262110 2291288 2319102 2343387 2362209 2374536 2380866 
3992.302 2381466 2376735 2367173 2353248 2335425 2314972 2293286 2271902 
3996.159 2252518 2236731 2225274 2218846 2217314 2220012 2226073 2234133 
4000.017 2242493 2249786 
##END=
