
##TITLE=Z295_2_d
##JCAMP-DX=5.01  $$ Nicolet v. 1
##DATATYPE=INFRARED SPECTRUM
##ORIGIN=UniL
##OWNER=Nicolet
##LONGDATE=2011/09/09
##TIME=15:16:52
##SPECTROMETER/DATA SYSTEM=Nicolet iS5
##DATA PROCESSING=
Ratio against background
%Transmittance->Absorbance
Truncated
ElementMultiply or ElementDivide
##COMMENTS=
Number of sample scans: 32
Collection length: 51.21 sec
Sample gain: 2.0
Background collected on: Ven Sep 09 13:49:48 2011 (GMT+02:00);
Number of background scans: 32
Background gain: 2.0
Sample spacing:  1.000
Number of scan points: 12415
Resolution points: 8192
Number of FFT points: 65536
Apodization: N-B fort;
Phase correction: Mertz;
Laser frequency: 15798.0 cm-1
Number of rejected sample scans: 0
Number of rejected background scans: 0
Bench serial number: ASB1000141;
##RESOLUTION=4.000
##XUNITS=1/CM
##YUNITS=ABSORBANCE
##FIRSTX=649.893372
##LASTX=4000.122314
##FIRSTY=0.110094
##MAXX=4000.122314
##MINX=649.893372
##MAXY=0.315126
##MINY=0.000802
##XFACTOR=1.000000
##YFACTOR=1.000000E-009
##NPOINTS=6950
##DELTAX=0.482117
##ZPD=6100
##XYDATA=(X++(Y..Y))
649.893 110094352 109003944 108011312 107134144 106359600 105660560 
652.786 105012592 104410856 103871552 103424488 103094488 102888216 
655.679 102789504 102768264 102792992 102845256 102925208 103043776 
658.571 103210624 103422264 103660792 103901688 104127896 104342512 
661.464 104569920 104845520 105204216 105661144 106207712 106814448 
664.357 107446304 108073480 108674064 109232488 109732200 110147896 
667.250 110454032 110643664 110749432 110831112 110949848 111134560 
670.142 111374680 111631416 111853536 111997816 112035552 111964536 
673.035 111804840 111589424 111346584 111089032 110814816 110514920 
675.928 110184872 109830624 109465968 109101312 108735136 108350264 
678.820 107918520 107413808 106825728 106163664 105453744 104723088 
681.713 103990384 103258488 102518512 101759904 100982088 100198312 99432280 
685.088 98707352 98035080 97411584 96820440 96243120 95667120 95093640 
688.463 94533856 94002688 93509520 93054760 92631312 92232544 91857952 
691.838 91516944 91224520 90995616 90837168 90746664 90714856 90733840 
695.212 90804080 90937608 91153760 91470480 91897256 92429296 93051760 
698.587 93745920 94498840 95309656 96186880 97141768 98178288 99285624 
701.962 100440176 101610232 102765288 103886280 104966224 106005880 
704.855 107006056 107961648 108859128 109683480 110423472 111078200 
707.747 111656608 112174096 112644648 113076848 113476656 113852240 
710.640 114220560 114611624 115059912 115594184 116225224 116935864 
713.533 117682512 118402056 119034368 119532448 119874792 120066264 
716.425 120132104 120110168 120040928 119970040 119947592 120025464 
719.318 120261240 120706480 121394032 122328392 123473904 124755744 
722.211 126058432 127249632 128199728 128796144 128976304 128736912 
725.104 128142208 127307552 126380832 125512960 124813640 124342688 
727.996 124101160 124047152 124115320 124244800 124399072 124567128 
730.889 124758480 124988040 125263704 125580368 125923928 126278672 
733.782 126637504 127003160 127384808 127789424 128214536 128646360 
736.674 129066200 129459264 129822032 130164848 130506512 130865096 
739.567 131248592 131652560 132062840 132465272 132851544 133223368 
742.460 133589296 133958192 134332512 134707552 135073072 135420944 
745.352 135749648 136065360 136377120 136690992 137005968 137314192 
748.245 137605936 137876656 138130800 138380160 138637744 138908928 
751.138 139188224 139460352 139709424 139926816 140117968 140299504 
754.031 140492464 140711360 140956416 141214336 141465120 141693168 
756.923 141893264 142072976 142245568 142423680 142610912 142802320 
759.816 142990080 143170144 143347648 143536304 143749936 143996544 
762.709 144272032 144563696 144857056 145148128 145448656 145789616 
765.601 146212304 146754800 147444368 148284928 149255312 150304800 
768.494 151358992 152328640 153114144 153633792 153845408 153770064 
771.387 153499856 153187488 153016336 153129312 153587200 154325536 
774.279 155167296 155847360 156085456 155681728 154549504 152743856 
777.172 150418064 147775360 144994768 142181616 139365712 136510128 
780.065 133549912 130421312 127092880 123571048 119897408 116135128 
782.958 112357224 108641688 105057248 101664504 98512424 95631760 93038496 
786.332 90733392 88706832 86943600 85428968 84152040 83106008 82286816 
789.707 81691224 81314864 81153384 81204720 81472200 81966128 82701936 
793.082 83697608 84965136 86505040 88297624 90302048 92451888 94652832 
796.457 96796008 98756896 100409440 101654824 102432888 102746976 102666808 
799.832 102328960 101910704 101582608 101490432 101705328 102205176 
802.724 102865424 103477088 103792656 103552360 102564704 100746184 98144728 
806.099 94931288 91361568 87726416 84261056 81114840 78325544 75830776 
809.474 73504184 71203584 68827152 66330344 63736440 61113764 58554832 
812.849 56143148 53933512 51952244 50198208 48654840 47299372 46110180 
816.224 45069144 44159288 43365552 42673416 42070568 41548540 41103512 
819.598 40734956 40443296 40227688 40084856 40009972 39998672 40048776 
822.973 40162192 40343700 40599344 40934212 41350564 41846852 42417056 
826.348 43048888 43722940 44412564 45081200 45690124 46203852 46598032 
829.723 46870084 47042928 47166644 47307796 47544360 47954228 48597544 
833.098 49511224 50694660 52103516 53638444 55147400 56450448 57342248 
836.473 57640528 57227960 56070036 54234828 51871884 49194760 46424068 
839.847 43750824 41324620 39227916 37487832 36090168 34996848 34159908 
843.222 33529990 33064280 32724344 32476362 32295328 32163218 32071244 
846.597 32018020 32006036 32036748 32107666 32211638 32338876 32481324 
849.972 32635142 32801948 32986838 33195842 33432104 33695424 33983444 
853.347 34294352 34628772 34991784 35390432 35832628 36324952 36872040 
856.721 37478404 38150548 38897836 39734268 40676660 41742080 42949492 
860.096 44318952 45871340 47630840 49618744 51845152 54297264 56928076 
863.471 59651208 62334072 64822868 66958344 68595864 69643144 70069008 
866.846 69915440 69287464 68346392 67289568 66307604 65584624 65270328 
870.221 65463908 66224588 67565808 69461688 71846336 74616592 77637480 
873.596 80725104 83666472 86234032 88190328 89341920 89562384 88811048 
876.970 87142832 84695976 81671904 78285744 74753448 71264880 67954064 
880.345 64909892 62171660 59737960 57582644 55667964 53960112 52434032 
883.720 51078964 49896264 48893288 48077204 47448884 47002168 46724868 
887.095 46603860 46629460 46799520 47119336 47599668 48250792 49079632 
890.470 50087608 51271352 52625636 54147440 55838660 57706520 59763056 
893.844 62021656 64494984 67189536 70099920 73198000 76421552 79669048 
897.219 82781304 85560000 87788664 89247792 89773584 89281000 87783400 
900.594 85388992 82285136 78714488 74919136 71132504 67552144 64313436 
903.969 61505872 59170240 57308900 55900232 54909220 54299028 54034288 
907.344 54088216 54443232 55089204 56021784 57239832 58743432 60531936 
910.719 62602384 64944944 67539400 70347912 73306208 76329504 79310632 
914.093 82131424 84690456 86910768 88759904 90255344 91463192 92487144 
917.468 93441720 94443368 95580016 96890792 98355232 99887224 101348512 
920.843 102554472 103322464 103508288 103037440 101940496 100358880 98544232 
924.218 96802464 95470744 94870520 95233392 96689024 99226120 102697664 
927.593 106815208 111179672 115359816 118894144 121378120 122523504 
930.485 122154088 120233880 116844792 112169928 106459720 100001800 93121680 
933.860 86129984 79311264 72918784 67134464 62080868 57824720 54379532 
937.235 51727488 49831372 48647944 48127880 48210916 48822168 49850920 
940.610 51148664 52545344 53843372 54856168 55439584 55498880 55013308 
943.985 54029228 52653280 51022876 49281788 47567504 45981720 44590788 
947.359 43427580 42494880 41776952 41247228 40877856 40640964 40509964 
950.734 40461664 40471772 40516732 40576240 40633760 40679204 40711156 
954.109 40734372 40758500 40793660 40849280 40931700 41044000 41187804 
957.484 41363616 41571728 41811572 42081592 42378700 42698604 43037584 
960.859 43393016 43764604 44153564 44561968 44991076 45440036 45906580 
964.233 46388084 46883000 47391748 47916636 48461308 49028624 49620524 
967.608 50237340 50879096 51546352 52240864 52965648 53723476 54516592 
970.983 55345856 56212004 57116652 58063596 59059152 60110984 61226332 
974.358 62410192 63664228 64988352 66382228 67847328 69387864 71010504 
977.733 72723384 74534592 76452408 78487960 80656712 82980648 85490208 
981.108 88218696 91200280 94465280 98034128 101915816 106102408 110567016 
984.482 115253128 120062768 124860816 129456368 133616064 137101920 
987.375 139675888 141149904 141419680 140471616 138393424 135353392 
990.268 131596832 127401336 123044688 118800304 114888120 111470512 
993.160 108656360 106492456 104982048 104097952 103798960 104039856 
996.053 104778504 105981904 107620960 109668688 112100568 114889152 
998.946 118004952 121416416 125078928 128929880 132883656 136816240 
1001.839 140575952 143998768 146912832 149177744 150700832 151449424 
1004.731 151459008 150829104 149720112 148321040 146843712 145503312 
1007.624 144479568 143922192 143935536 144573760 145855440 147771296 
1010.517 150299600 153413424 157088000 161303120 166036992 171266656 
1013.409 176969136 183117248 189684304 196637376 203917696 211426848 
1016.302 219002304 226388864 233270080 239277248 244036592 247263664 
1019.195 248800528 248673328 247088192 244429952 241210704 237960992 
1022.087 235224352 233462400 232995952 234024192 236597440 240645568 
1024.980 245993120 252402240 259608688 267313184 275224672 283055456 
1027.873 290504480 297296448 303184224 307970240 311543360 313878592 
1030.766 315035584 315126368 314299552 312713376 310507776 307812672 
1033.659 304732512 301335296 297652192 293668064 289330432 284559744 
1036.552 279280064 273445600 267054800 260158336 252848480 245248560 
1039.446 237487776 229693440 221990528 214484336 207263984 200394512 
1042.339 193902352 187776640 181969104 176411312 171028784 165765472 
1045.232 160601856 155561360 150709472 146135456 141948224 138252368 
1048.125 135133072 132658792 130868448 129774096 129362896 129601256 
1051.018 130439984 131816264 133666592 135927552 138536752 141438320 
1053.911 144569648 147853024 151194976 154471712 157534048 160228976 
1056.804 162399216 163908336 164662000 164610016 163761888 162185056 
1059.697 160013728 157432896 154658496 151937184 149501216 147552784 
1062.590 146263120 145746608 146069024 147249632 149264176 152046688 
1065.483 155486560 159443776 163735936 168150864 172479552 176512304 
1068.376 180069120 183021360 185280576 186800768 187568784 187590672 
1071.269 186886720 185486320 183430368 180768528 177559136 173875488 
1074.162 169804144 165451504 160955264 156470176 152170720 148243536 
1077.055 144853632 142147664 140239008 139191920 139027872 139715552 
1079.948 141174992 143264416 145783776 148497184 151121216 153375040 
1082.842 155026992 155912496 155983856 155312784 154088288 152571888 
1085.735 151058896 149857328 149223632 149356048 150381568 152338256 
1088.628 155180272 158773040 162920656 167359504 171786608 175913888 
1091.521 179465232 182219456 184033824 184831184 184605232 183405504 
1094.414 181329408 178504800 175071216 171179520 166967152 162552528 
1097.307 158040848 153514928 149042704 144681424 140470720 136432736 
1100.200 132567688 128853608 125250848 121712232 118201048 114700208 
1103.093 111224568 107818488 104556088 101527512 98821992 96527568 94716624 
1106.468 93440568 92735912 92620528 93096752 94152872 95765248 97898280 
1109.844 100501512 103515440 106866280 110460096 114190608 117926656 
1112.737 121512968 124792048 127600832 129793984 131269160 131965848 
1115.630 131876272 131037416 129526544 127447408 124914176 122052384 
1118.523 118978456 115790272 112568944 109367672 106217992 103137216 
1121.416 100135296 97223944 94422568 91756272 89256256 86955096 84879968 
1124.791 83053856 81495224 80218280 79238248 78571968 78236552 78248376 
1128.166 78618864 79350008 80431640 81838888 83533720 85458944 87543168 
1131.542 89701552 91831880 93832392 95609792 97091456 98244872 99082656 
1134.917 99665504 100085104 100456208 100896600 101499424 102328664 
1137.810 103404272 104700152 106143656 107623592 109010800 110158824 
1140.703 110930728 111217896 110938560 110050808 108547824 106452184 
1143.596 103809272 100682256 97153704 93314816 89265944 85114008 80955600 
1146.971 76879224 72960800 69254544 65800936 62625544 59740396 57148512 
1150.346 54845864 52823132 51066776 49560284 48286784 47228476 46369612 
1153.722 45698040 45204024 44881244 44725488 44733716 44903804 45235172 
1157.097 45729472 46390996 47226704 48245200 49453924 50859016 52462520 
1160.472 54263096 56254696 58425292 60756420 63217848 65765508 68344336 
1163.847 70882616 73300872 75520296 77459904 79049128 80231000 80960872 
1167.223 81214544 80988344 80301464 79191576 77712488 75929664 73907888 
1170.598 71711952 69403176 67033620 64651952 62301944 60019248 57836036 
1173.973 55778416 53864600 52108636 50518980 49099996 47853780 46780436 
1177.348 45878924 45146632 44580068 44175316 43928044 43835996 43899300 
1180.724 44120704 44505028 45057160 45781272 46678712 47748692 48988192 
1184.099 50392628 51953812 53657188 55480432 57386340 59323552 61232472 
1187.474 63041812 64681948 66091924 67219896 68031792 68512632 68666488 
1190.849 68516672 68102872 67480880 66711544 65859696 64990164 64157768 
1194.225 63410288 62786400 62311964 62004000 61868420 61900936 62085224 
1197.600 62393056 62786704 63215704 63620844 63940972 64108416 64059956 
1200.975 63742460 63115416 62161532 60889480 59336960 57563500 55644872 
1204.350 53666376 51704832 49827436 48086496 46514044 45127740 43932148 
1207.726 42922864 42089220 41416972 40890488 40493016 40208204 40023416 
1211.101 39928740 39918932 39992824 40151032 40394820 40724040 41136440 
1214.476 41628028 42193128 42824344 43512764 44246452 45009708 45784588 
1217.851 46551300 47290472 47986752 48628560 49208304 49722016 50168232 
1221.227 50547748 50864828 51128644 51354920 51564072 51783444 52041808 
1224.602 52366444 52783056 53310680 53961276 54739152 55639224 56646520 
1227.977 57734828 58870492 60012172 61114832 62138516 63048712 63820288 
1231.352 64441556 64912932 65249532 65479548 65648364 65815008 66045172 
1234.728 66413768 66991552 67839272 69008696 70535864 72443720 74745656 
1238.103 77446160 80541592 84017328 87847032 91987872 96377296 100941952 
1241.478 105592400 110226936 114742792 119025384 122956600 126427856 
1244.371 129337504 131608192 133195488 134086400 134299184 133875208 
1247.264 132876144 131374968 129451048 127191008 124673128 121961120 
1250.157 119097480 116095904 112945976 109622072 106101008 102375048 
1253.050 98465536 94423104 90328360 86281960 82382896 78728472 75396400 
1256.426 72435000 69865856 67679320 65840380 64289032 62950112 61742280 
1259.801 60578220 59381592 58093216 56672492 55105004 53398724 51581500 
1263.176 49692556 47779056 45890232 44067964 42348124 40756792 39308032 
1266.551 38007096 36850216 35828240 34927644 34134424 33436398 32823424 
1269.927 32288086 31824950 31428918 31094460 30816032 30588082 30406666 
1273.302 30269904 30177832 30131516 30131908 30178364 30268092 30395470 
1276.677 30551502 30724162 30897174 31050362 31162982 31213964 31187084 
1280.052 31074778 30878498 30608704 30280314 29910284 29512338 29095624 
1283.427 28666214 28229094 27790578 27362030 26957704 26594332 26288850 
1286.803 26055138 25904162 25844832 25884538 26031672 26295328 26684098 
1290.178 27204566 27859182 28644552 29550038 30556622 31637240 32751638 
1293.553 33849780 34875076 35765524 36467452 36943572 37178960 37184992 
1296.928 36996896 36668940 36260040 35829608 35431380 35104964 34879100 
1300.304 34770392 34782168 34905164 35116384 35383748 35665120 35915832 
1303.679 36097084 36176160 36133056 35960788 35663720 35255904 34758368 
1307.054 34198876 33606952 33012472 32444152 31923902 31467102 31081896 
1310.429 30770042 30530388 30361606 30263724 30238182 30286638 30409296 
1313.805 30603728 30865904 31191676 31579118 32028970 32544352 33129070 
1317.180 33785988 34515464 35316244 36187036 37126696 38135284 39211012 
1320.555 40347512 41529652 42733116 43922544 45052824 46078016 46951332 
1323.930 47634312 48105668 48365632 48441636 48384740 48269492 48180000 
1327.306 48192216 48368704 48741496 49309848 50042024 50886544 51785868 
1330.681 52684812 53544576 54345176 55084880 55776792 56445056 57121224 
1334.056 57836792 58622484 59502416 60489392 61582768 62765948 64011148 
1337.431 65278300 66522160 67697984 68760184 69668896 70393384 70913512 
1340.807 71223840 71332928 71261400 71035792 70683608 70230464 69695704 
1344.182 69092328 68429192 67710840 66940368 66120440 65253384 64341100 
1347.557 63384788 62384980 61342704 60261928 59151520 58028532 56919200 
1350.932 55856896 54884664 54049340 53396964 52974072 52819280 52960332 
1354.308 53410004 54159076 55172872 56386308 57714732 59056456 60302660 
1357.683 61358736 62145244 62607288 62721432 62494092 61963832 61192916 
1361.058 60272812 59313028 58424648 57717988 57276160 57140500 57307616 
1364.433 57730588 58332700 59013828 59670748 60202968 60517232 60547056 
1367.809 60257512 59654476 58780876 57709624 56528492 55316612 54142412 
1371.184 53055720 52087156 51258936 50589592 50097128 49800416 49712580 
1374.559 49835308 50153952 50640820 51263448 51990672 52801128 53684408 
1377.934 54638696 55668528 56782744 57995620 59325376 60794264 62421744 
1381.310 64212048 66139264 68133184 70085328 71845400 73245416 74132400 
1384.685 74371528 73877048 72630112 70700920 68256192 65532444 62809408 
1388.060 60326148 58236340 56602052 55401788 54566220 54003560 53627944 
1391.435 53362044 53138240 52901456 52601776 52197032 51660944 50986804 
1394.811 50191664 49307584 48371184 47409376 46433764 45446476 44449344 
1398.186 43454568 42492252 41605384 40837884 40223112 39772392 39477896 
1401.561 39318804 39272088 39318152 39443896 39643180 39914140 40255536 
1404.936 40665124 41137860 41666908 42245680 42868700 43533128 44238044 
1408.312 44983068 45766548 46585268 47432588 48300264 49180064 50064408 
1411.687 50947940 51826712 52696856 53554624 54396132 55219184 56025440 
1415.062 56820432 57614080 58418276 59245156 60105428 61007096 61955044 
1418.437 62948384 63976480 65018056 66041508 67009912 67886376 68640720 
1421.813 69254544 69721576 70053544 70279584 70445632 70602088 70792208 
1425.188 71043832 71365032 71750800 72192032 72683072 73222432 73810840 
1428.563 74447360 75126400 75840096 76582464 77354808 78166968 79032632 
1431.938 79964592 80969056 82044528 83184496 84385336 85652208 87000192 
1435.313 88452848 90032296 91750376 93595288 95535960 97533416 99547400 
1438.689 101537264 103451024 105224264 106766312 107967464 108725096 
1441.582 108944672 108561904 107549184 105910216 103680648 100921760 
1444.475 97726536 94207704 90483080 86678792 82910184 79282552 75899240 
1447.850 72847032 70188248 67947672 66109864 64631380 63461096 62563276 
1451.225 61926652 61561884 61484156 61694732 62163712 62832804 63611940 
1454.601 64392516 65064556 65518812 65681896 65547668 65200748 64785020 
1457.976 64438820 64255612 64265252 64460612 64821564 65327132 65957956 
1461.351 66690840 67497520 68336928 69154208 69892120 70495752 70932200 
1464.726 71202880 71345352 71417360 71470400 71537864 71625664 71719136 
1468.102 71788792 71797896 71705112 71458536 70998256 70259904 69188792 
1471.477 67770480 66059136 64190304 62338204 60662756 59260012 58149732 
1474.852 57303908 56680724 56250812 56003880 55943648 56072224 56380272 
1478.227 56842112 57423172 58086284 58804812 59568044 60382156 61266696 
1481.603 62247064 63350400 64600356 66020212 67638664 69490696 71617104 
1484.978 74054232 76819784 79893016 83194848 86593080 89887304 92825424 
1488.353 95143016 96571352 96896888 96017720 93973888 90954720 87238984 
1491.728 83134584 78891552 74667184 70548448 66559620 62702328 58995572 
1495.104 55485284 52253608 49404064 47026132 45168988 43828812 42965040 
1498.479 42517936 42428272 42647720 43134472 43849228 44753476 45803512 
1501.854 46952956 48156716 49359776 50498952 51496616 52239892 52584160 
1505.229 52362220 51422984 49714472 47347000 44577904 41690432 38883632 
1508.604 36236736 33745124 31377412 29112880 26951394 24918924 23052600 
1511.980 21380920 19919266 18662286 17590522 16677380 15895668 15220976 
1515.355 14629601 14101319 13621680 13184545 12793574 12458156 12184910 
1518.730 11970858 11800455 11647680 11486487 11302365 11104655 10924500 
1522.105 10800770 10757190 10790579 10875506 10977781 11068319 11131102 
1525.481 11167715 11192909 11226772 11282743 11361645 11454780 11551305 
1528.856 11645468 11739788 11842402 11961287 12098193 12246559 12393680 
1532.231 12526869 12642530 12750442 12871453 13024590 13217608 13440717 
1535.606 13674506 13894771 14081605 14223768 14317144 14366047 14379473 
1538.982 14369301 14346081 14318821 14297282 14291050 14308069 14348684 
1542.357 14403825 14455137 14480281 14462502 14396838 14293995 14175634 
1545.732 14066614 13983388 13927376 13887655 13847117 13790919 13712361 
1549.107 13615766 13513209 13418572 13339296 13273426 13212109 13146122 
1552.483 13070446 12988264 12908964 12843671 12798897 12772997 12755731 
1555.858 12732154 12687527 12607839 12483287 12310058 12098056 11875364 
1559.233 11681444 11551134 11496864 11508432 11562942 11634577 11700607 
1562.608 11741694 11746733 11714087 11652649 11579378 11511902 11462162 
1565.984 11430116 11405046 11370827 11313247 11225889 11113154 10989097 
1569.359 10873604 10784397 10730291 10711035 10720374 10750500 10793569 
1572.734 10841602 10885699 10914103 10914986 10880705 10814527 10734197 
1576.109 10668924 10647973 10685734 10777468 10905541 11050136 11196376 
1579.485 11337462 11474410 11612251 11756502 11910507 12074617 12247172 
1582.860 12426753 12612511 12803197 12995400 13180583 13345719 13477081 
1586.235 13562570 13598432 13590260 13553101 13507980 13477184 13482413 
1589.610 13539598 13660863 13854233 14122678 14462604 14859471 15288205 
1592.986 15711214 16083263 16362896 16515445 16522983 16386431 16124697 
1596.361 15769312 15356166 14922666 14500767 14115729 13789174 13536214 
1599.736 13366904 13285622 13290985 13377258 13537581 13766429 14059838 
1603.111 14413998 14822613 15273447 15747357 16221371 16668737 17063144 
1606.487 17382482 17607086 17722934 17721554 17600736 17364722 17024618 
1609.862 16599124 16113143 15595146 15076701 14583614 14133016 13731580 
1613.237 13374968 13051769 12747747 12450960 12154991 11862935 11587749 
1616.612 11350148 11171353 11064070 11029132 11055947 11127396 11222148 
1619.988 11319607 11403243 11461822 11494211 11509691 11527758 11570020 
1623.363 11653398 11783670 11955088 12155161 12370634 12593444 12819747 
1626.738 13048218 13278141 13506236 13727510 13937777 14135548 14323342 
1630.113 14506043 14688205 14871128 15051522 15221216 15370000 15487898 
1633.489 15566880 15603629 15600847 15568597 15522270 15479073 15452635 
1636.864 15448756 15465236 15494284 15525670 15548507 15553246 15534770 
1640.239 15493117 15434919 15370035 15309417 15259377 15219465 15182509 
1643.614 15136154 15067439 14965534 14826453 14655371 14467400 14284441 
1646.990 14128634 14017642 13958648 13949136 13979179 14034547 14096459 
1650.365 14141505 14143215 14071782 13906198 13651152 13356415 13105072 
1653.740 12963650 12948493 13026400 13149605 13275784 13379513 13449945 
1657.115 13486241 13493488 13478381 13446151 13398512 13334000 13250025 
1660.490 13144961 13019742 12879030 12729629 12580483 12440050 12314898 
1663.866 12208798 12121974 12050736 11987956 11923380 11844547 11738426 
1667.241 11594418 11407903 11183049 10933607 10680063 10444486 10243230 
1670.616 10083338 9962289 9871641 9799280 9730759 9651951 9548734 9410903 
1674.474 9237338 9039450 8841009 8667469 8537115 8452271 8402441 8369134 
1678.331 8333938 8285370 8219824 8142672 8062768 7986758 7912989 7829853 
1682.188 7718300 7559604 7346201 7094541 6844305 6644408 6525726 6487181 
1686.046 6504536 6546143 6586880 6609857 6607367 6579243 6529762 6465926 
1689.903 6395777 6327724 6269329 6225900 6198876 6184088 6171921 6147489 
1693.761 6095503 6004484 5874624 5722375 5577898 5472022 5418305 5408140 
1697.618 5416024 5411897 5367480 5267356 5116460 4945776 4800653 4716134 
1701.476 4700526 4736032 4794756 4849937 4882071 4880932 4843906 4777202 
1705.333 4693526 4609497 4538944 4490298 4464788 4458561 4464788 4476136 
1709.190 4487385 4495721 4501044 4505162 4510117 4516680 4523911 4529369 
1713.048 4530440 4525284 4513633 4496056 4472789 4442125 4400819 4345461 
1716.905 4276959 4202378 4135906 4093726 4086669 4116404 4175146 4251060 
1720.763 4330033 4400819 4457256 4497663 4525049 4544904 4563186 4584014 
1724.620 4609598 4640005 4673965 4710005 4745712 4777771 4802194 4815126 
1728.478 4814691 4801993 4781557 4758810 4737606 4716737 4688401 4639101 
1732.335 4553275 4420936 4246175 4052955 3877606 3754597 3697316 3696213 
1736.192 3727058 3763721 3785881 3780901 3745908 3686923 3618492 3557019 
1740.050 3516633 3504641 3520341 3557487 3607700 3662630 3715662 3761616 
1743.907 3798315 3825390 3844644 3858685 3870486 3881953 3893754 3905021 
1747.765 3914082 3918896 3917559 3908464 3890478 3863097 3827295 3786416 
1751.622 3745908 3711953 3689663 3680908 3683214 3690465 3693640 3684517 
1755.479 3657852 3614182 3560560 3508516 3469369 3448395 3444053 3447827 
1759.337 3448996 3437206 3406649 3357862 3297328 3235667 3183094 3146747 
1763.194 3128858 3127123 3136968 3153589 3171445 3185564 3191872 3187233 
1767.052 3171078 3145712 3115776 3086109 3059213 3033854 3005294 2967927 
1770.909 2918489 2859817 2801120 2757135 2740530 2756268 2799486 2858750 
1774.767 2921324 2976468 3019507 3050304 3072227 3089146 3103528 3115275 
1778.624 3122551 3123686 3119047 3111338 3105431 3105731 3113607 3127357 
1782.481 3142575 3154423 3159163 3155458 3144678 3129826 3114374 3100959 
1786.339 3091715 3087878 3090514 3100258 3116243 3135900 3153656 3162934 
1790.196 3156626 3130894 3086810 3031318 2975967 2931598 2905646 2898375 
1794.054 2905113 2918422 2931632 2940338 2942807 2939338 2930898 2918755 
1797.911 2903978 2887567 2871157 2856348 2844942 2838038 2834903 2834203 
1801.769 2833669 2831735 2828166 2823997 2820662 2819562 2821096 2824564 
1805.626 2829033 2833402 2837905 2842307 2846943 2851245 2853947 2853313 
1809.483 2848610 2840740 2832769 2828300 2831034 2842307 2860351 2880930 
1813.341 2899309 2912017 2917688 2918355 2917655 2919990 2928663 2944875 
1817.198 2967794 2995518 3025479 3056277 3086776 3116544 3145379 3173014 
1821.056 3199316 3223516 3245515 3264377 3279032 3288380 3291585 3289282 
1824.913 3283973 3279500 3279600 3286544 3299264 3313988 3325106 3327543 
1828.771 3319263 3303304 3287178 3280034 3289782 3318662 3363238 3415733 
1832.628 3467967 3513860 3551006 3580638 3607032 3635064 3668411 3708511 
1836.485 3754965 3806404 3861392 3919498 3981188 4046902 4117207 4191840 
1840.343 4269597 4349008 4428266 4505497 4579694 4650186 4718312 4787219 
1844.200 4860861 4943296 5035970 5136711 5239655 5337356 5422063 5487759 
1848.058 5532088 5555882 5562426 5555412 5536887 5506920 5463802 5405724 
1851.915 5333096 5249045 5159142 5069760 4985055 4906164 4830572 4754556 
1855.772 4674669 4590008 4502350 4415513 4333178 4257652 4188896 4125637 
1859.630 4066467 4010850 3959554 3912978 3870619 3830371 3788989 3743501 
1863.487 3693506 3641813 3593267 3553445 3525652 3509351 3500399 3491982 
1867.345 3478087 3456177 3427889 3398534 3374591 3360733 3357995 3364874 
1871.202 3378131 3394861 3413395 3432297 3450165 3464994 3474146 3476183 
1875.060 3471173 3461754 3451234 3443719 3440580 3440145 3438142 3429926 
1878.917 3411925 3384642 3351150 3316859 3286711 3263375 3245882 3231361 
1882.774 3216373 3198481 3177486 3154724 3132196 3110937 3090647 3070392 
1886.632 3049103 3026981 3005527 2987144 2973332 2964991 2961689 2962256 
1890.489 2965859 2972631 2983307 2998020 3015637 3033120 3046300 3052039 
1894.347 3048702 3038158 3024211 3012100 3005861 3007562 3017171 3033621 
1898.204 3055843 3082805 3114208 3148115 3181358 3209330 3227789 3234065 
1902.062 3229692 3219010 3208128 3202720 3204523 3211733 3220045 3224451 
1905.919 3222214 3214437 3204423 3196245 3192507 3192540 3193608 3192607 
1909.776 3188067 3181091 3175317 3174182 3179456 3189769 3202020 3212434 
1913.634 3219477 3223616 3226921 3231027 3235200 3235433 3226454 3203588 
1917.491 3166105 3118579 3069057 3024945 2990580 2964991 2943307 2919523 
1921.349 2890269 2855648 2820429 2790382 2769106 2756669 2748966 2741297 
1925.206 2730393 2716523 2704253 2699319 2705320 2722324 2746165 2770874 
1929.063 2791315 2805388 2814559 2822363 2831835 2843774 2856081 2865053 
1932.921 2867888 2863619 2853747 2840606 2826132 2810591 2793116 2773541 
1936.778 2753201 2735895 2726726 2728926 2742130 2761570 2779877 2789648 
1940.636 2787180 2773942 2755735 2740597 2734261 2738329 2750233 2765605 
1944.493 2780844 2795617 2811124 2829467 2850745 2871957 2887801 2894439 
1948.351 2890703 2880096 2869289 2865120 2871024 2886367 2906280 2924226 
1952.208 2936936 2943608 2946510 2948078 2948578 2943441 2926161 2891337 
1956.065 2836804 2768006 2695585 2633076 2591509 2576409 2586409 2614642 
1959.923 2652111 2690650 2724859 2750967 2765338 2765105 2748199 2714789 
1963.780 2669413 2620009 2574576 2539813 2517117 2502854 2490823 2475761 
1967.638 2457200 2440973 2434708 2443805 2468030 2500154 2528282 2541646 
1971.495 2534347 2508986 2474994 2443905 2424779 2422813 2437674 2468663 
1975.353 2517017 2587075 2684116 2809857 2958486 3114908 3259035 3372087 
1979.210 3441682 3465996 3450866 3407016 3345741 3276295 3204656 3134932 
1983.067 3070826 3016704 2975267 2946877 2927695 2911217 2889435 2858183 
1986.925 2818061 2775442 2739529 2717957 2713556 2723091 2739729 2755368 
1990.782 2765838 2771741 2777410 2787781 2805322 2828233 2851912 2871724 
1994.640 2885666 2896006 2906247 2921024 2941273 2964057 2982673 2991514 
1998.497 2986443 2967460 2938270 2902344 2862552 2818061 2766305 2704887 
2002.354 2635343 2562077 2493956 2439640 2405754 2394293 2403188 2427145 
2006.212 2460766 2500354 2543080 2586176 2626642 2660445 2684049 2697185 
2010.069 2702720 2706654 2716323 2736995 2769540 2810691 2854047 2892704 
2013.927 2922592 2942240 2951547 2951647 2943608 2927162 2904579 2879963 
2017.784 2860817 2856448 2873959 2915487 2976935 3048035 3117178 3172814 
2021.642 3208796 3223583 3220278 3202654 3174382 3139104 3098790 3057712 
2025.499 3022109 2997119 2987511 2993550 3011533 3033821 3053407 3065587 
2029.356 3070692 3072895 3077600 3089279 3110003 3138770 3174049 3214804 
2033.214 3261606 3315090 3374992 3438108 3499363 3554480 3600784 3641312 
2037.071 3681543 3727526 3782906 3845748 3909434 3965539 4008208 4035631 
2040.929 4052453 4065363 4080515 4099613 4119916 4134902 4139853 4133029 
2044.786 4117742 4101520 4092121 4095766 4114932 4149186 4196289 4254740 
2048.644 4322235 4394627 4465357 4524447 4561512 4570151 4550529 4511423 
2052.501 4467332 4435765 4429371 4452736 4500475 4560072 4617668 4662377 
2056.358 4691181 4707560 4718747 4730705 4745846 4762562 4776063 4783299 
2060.216 4783533 4779949 4777537 4780384 4790032 4804975 4820855 4834156 
2064.073 4842566 4845816 4844543 4840020 4832615 4822296 4809330 4795125 
2067.931 4782696 4775259 4774656 4780753 4790468 4800284 4806918 4810234 
2071.788 4812044 4815729 4823937 4836770 4851009 4862268 4866892 4863809 
2075.646 4855768 4847860 4845079 4850742 4863977 4881602 4898926 4912766 
2079.503 4921445 4925936 4927913 4928148 4927009 4923221 4916486 4907807 
2083.360 4899563 4894771 4895977 4903249 4914341 4926170 4934917 4939140 
2087.218 4939207 4936828 4933811 4930192 4924361 4914241 4898222 4876442 
2091.075 4851747 4827724 4807956 4793818 4784840 4779011 4774756 4772043 
2094.933 4772244 4777537 4788525 4803668 4818979 4830169 4834324 4832112 
2098.790 4827724 4826718 4833754 4850406 4873861 4899395 4921579 4937665 
2102.647 4948792 4959181 4973995 4997021 5029601 5069089 5112102 5154749 
2106.505 5194517 5230432 5262259 5289928 5312736 5329910 5341583 5348963 
2110.362 5354330 5360200 5368252 5377980 5387474 5394049 5396062 5393680 
2114.220 5389319 5386132 5386601 5391332 5398846 5406462 5412400 5416628 
2118.077 5420989 5428538 5441724 5461151 5485008 5510745 5535914 5559775 
2121.935 5583470 5609113 5638080 5669936 5701896 5730231 5752223 5766963 
2125.792 5776129 5782408 5787915 5792885 5794396 5788251 5770455 5739363 
2129.649 5696087 5644592 5589477 5536250 5488464 5449642 5422331 5409750 
2133.507 5413575 5433336 5464506 5498665 5525276 5535478 5524672 5495477 
2137.364 5456889 5420520 5395727 5387105 5391701 5402671 5411528 5412904 
2141.222 5406429 5395727 5386132 5380463 5379121 5378450 5373921 5362850 
2145.079 5345172 5323168 5300862 5279397 5258838 5236804 5210513 5178757 
2148.937 5141673 5100636 5055680 5004327 4941955 4864379 4770133 4660904 
2152.794 4543531 4426158 4314103 4209103 4107707 4006135 3904419 3810816 
2156.651 3740995 3717233 3757939 3870051 4044494 4257384 4478145 4677415 
2160.509 4836301 4947619 5013679 5041635 5040495 5019612 4986865 4949295 
2164.366 4914107 4885992 4866222 4851747 4836234 4812111 4773718 4719451 
2168.224 4652129 4577651 4500910 4425857 4352422 4279100 4204118 4128714 
2172.081 4056467 3994030 3948419 3924011 3922574 3943069 3981188 4031016 
2175.938 4086434 4138883 4178290 4194918 4180231 4130721 4050112 3949322 
2179.796 3844177 3750753 3681243 3640610 3625475 3626811 3634897 3642949 
2183.653 3648362 3652038 3657217 3664936 3674626 3683749 3689463 3691200 
2187.511 3690098 3689296 3691769 3699555 3712855 3730968 3753895 3781970 
2191.368 3816532 3858250 3905455 3954572 3999514 4034929 4057370 4066534 
2195.226 4065163 4057169 4046166 4033624 4020348 4006469 3992658 3981556 
2199.083 3976474 3978948 3988980 4002557 4014295 4019445 4015733 4004697 
2202.940 3991756 3983496 3984867 3997808 4020883 4050547 4083190 4116705 
2206.798 4149989 4183409 4215895 4245673 4270300 4287466 4296702 4300115 
2210.655 4301219 4303395 4308314 4315241 4321331 4323540 4320863 4314036 
2214.513 4306406 4301052 4300550 4304064 4309552 4313567 4314203 4311426 
2218.370 4306172 4300416 4294527 4287231 4276289 4259826 4237475 4211479 
2222.228 4185584 4163437 4146978 4134869 4123830 4110049 4090984 4066768 
2226.085 4040447 4015465 3995033 3979784 3967780 3955976 3941899 3924145 
2229.942 3903550 3882721 3864234 3850495 3842672 3841402 3846550 3858117 
2233.800 3875600 3897966 3923108 3948152 3970354 3988345 4001587 4011820 
2237.657 4021251 4031484 4043156 4055764 4068273 4080849 4094696 4111755 
2241.515 4133865 4160660 4189665 4216999 4238278 4251328 4257785 4262169 
2245.372 4270434 4288001 4316512 4354229 4396066 4435497 4466930 4486983 
2249.229 4495219 4493110 4483435 4469441 4454578 4443096 4439313 4446611 
2253.087 4467332 4500140 4540384 4581000 4614085 4633408 4636556 4624500 
2256.944 4601494 4572629 4542092 4512361 4484840 4460034 4438844 4423547 
2260.802 4415446 4415781 4423714 4436400 4450226 4462143 4470780 4476136 
2264.659 4479886 4483033 4485711 4486782 4484473 4477810 4467767 4456988 
2268.517 4449021 4447180 4452234 4462879 4476304 4488858 4497864 4502484 
2272.374 4503388 4502116 4500007 4498065 4497060 4497663 4501446 4509615 
2276.231 4523509 4542795 4565899 4589907 4611808 4629825 4643790 4655645 
2280.089 4667736 4682305 4699923 4719953 4741157 4762797 4784706 4808526 
2283.946 4835429 4866322 4899998 4933912 4965147 4991155 5011266 5026249 
2287.804 5038450 5049144 5059703 5069827 5078208 5084376 5088432 5091886 
2291.661 5097183 5105966 5119511 5137650 5159678 5184759 5213128 5244953 
2295.519 5280738 5320015 5360670 5399719 5433470 5459440 5476955 5487961 
2299.376 5495779 5504302 5516786 5534538 5557358 5583906 5612436 5641503 
2303.233 5669902 5696625 5720495 5740270 5754842 5763974 5768507 5770119 
2307.091 5771361 5774450 5780729 5790501 5803261 5818405 5835264 5853969 
2310.948 5874489 5896690 5919798 5942169 5961753 5977373 5987989 5994372 
2314.806 5998067 6000721 6004316 6010229 6019199 6031932 6048429 6068790 
2318.663 6092647 6119462 6148027 6177332 6206674 6235143 6261564 6284389 
2322.521 6299752 6303048 6289297 6254640 6197969 6122319 6034183 5942035 
2326.378 5854977 5779655 5719320 5673595 5638751 5610455 5584913 5559540 
2330.235 5534504 5510544 5489135 5471116 5457393 5448602 5445918 5450716 
2334.093 5464137 5486048 5514806 5547257 5579644 5608844 5633683 5654864 
2337.950 5674736 5695886 5720159 5748294 5779521 5813469 5849939 5889536 
2341.808 5933402 5981472 6032906 6084213 6131627 6171720 6203313 6228421 
2345.665 6251547 6279481 6317941 6370558 6438315 6519335 6609722 6704199 
2349.522 6797217 6883656 6958631 7018835 7062546 7090432 7104409 7108181 
2353.380 7105824 7100805 7095585 7092116 7091880 7096259 7106262 7123069 
2357.237 7146613 7176087 7209438 7243970 7277831 7309707 7339394 7367129 
2361.095 7393248 7417313 7438783 7457053 7472626 7487930 7506471 7532531 
2364.952 7569314 7617599 7675669 7739616 7803944 7863828 7915587 7957161 
2368.810 7988378 8010281 8024491 8033773 8041131 8050514 8065265 8088388 
2372.667 8121167 8162963 8211956 8264871 8319042 8372343 8423555 8472780 
2376.524 8519982 8565399 8609029 8651008 8692212 8734030 8778894 8828904 
2380.382 8885614 8949232 9018678 9091789 9166199 9239707 9310994 9378906 
2384.239 9442495 9500844 9552969 9597850 9635554 9667060 9694064 9718392 
2388.097 9741263 9762815 9781929 9796704 9805719 9808091 9804397 9795823 
2391.954 9783826 9769356 9752514 9733233 9711683 9688846 9666756 9648088 
2395.812 9634809 9628168 9627761 9632031 9639145 9647952 9658591 9672550 
2399.669 9691760 9717917 9752209 9794671 9844797 9902013 9965984 10036576 
2403.526 10113895 10197197 10285231 10376236 10468414 10560747 10653134 
2406.902 10746186 10841738 10941116 11045479 11155578 11272065 11395148 
2410.277 11525206 11662247 11805357 11952806 12101906 12249388 12391874 
2413.652 12527244 12653719 12770301 12876948 12972560 13056549 13127885 
2417.027 13186184 13231887 13266696 13293002 13313330 13329969 13344182 
2420.403 13356380 13366323 13373363 13377121 13377121 13373431 13366153 
2423.778 13356585 13346335 13337724 13334103 13338715 13354159 13382349 
2427.153 13423596 13477355 13542948 13619697 13707813 13807986 13920910 
2430.528 14046490 14183439 14329609 14482234 14639402 14800432 14965603 
2433.904 15136532 15314531 15500500 15694449 15895842 16103687 16317654 
2437.279 16537784 16765015 16999912 17243108 17494958 17755482 18025142 
2440.654 18304542 18594738 18896654 19210658 19536638 19873200 20219152 
2444.029 20573022 20933962 21300908 21673006 22048562 22425662 22802288 
2447.405 23176236 23546832 23913928 24278112 24640286 25000236 25356620 
2450.780 25707532 26050354 26382920 26704148 27013518 27311394 27597966 
2454.155 27873066 28135366 28383500 28614716 28826192 29015028 29177510 
2457.530 29310028 29409612 29473470 29499714 29488152 29438756 29352248 
2460.906 29229534 29071072 28877606 28650286 28391388 28103870 27792166 
2464.281 27461380 27116456 26762358 26403940 26045606 25692734 25351280 
2467.656 25027366 24727580 24457234 24220162 24018234 23851264 23717778 
2471.031 23615644 23542250 23495378 23472680 23471456 23489154 23522836 
2474.406 23569848 23627748 23694298 23767296 23844334 23922504 23998940 
2477.782 24071080 24137138 24196548 24249274 24295842 24335756 24367820 
2481.157 24389376 24398066 24391722 24369852 24333546 24285994 24230180 
2484.532 24169120 24104878 24038406 23970192 23900624 23830578 23761592 
2487.907 23694576 23630232 23567644 23505242 23440364 23370636 23294244 
2491.283 23210696 23120144 23023496 22921872 22815838 22705884 22591700 
2494.658 22473046 22349296 22219616 22082796 21938070 21784720 21622786 
2498.033 21453290 21277872 21098666 20917656 20736130 20554368 20371986 
2501.408 20188224 20002354 19814516 19625166 19435794 19247716 19062940 
2504.784 18883226 18710436 18546324 18392264 18248938 18116332 17992884 
2508.159 17876722 17765666 17657916 17552778 17450704 17352548 17259346 
2511.534 17171266 17087854 17007734 16929522 16852220 16775830 16700964 
2514.909 16628833 16560638 16497169 16439319 16387841 16343422 16307127 
2518.285 16280053 16261993 16252499 16249577 16250780 16254047 16258072 
2521.660 16262922 16270008 16280878 16296668 16317826 16342975 16370224 
2525.035 16397441 16422732 16445100 16464440 16481131 16495654 16508767 
2528.410 16520815 16531760 16541569 16549418 16554270 16554890 16550174 
2531.786 16539712 16523670 16503571 16481234 16458590 16436841 16416023 
2535.161 16395513 16373940 16350612 16325772 16300693 16277507 16258450 
2538.536 16245071 16237296 16234476 16234854 16236849 16239531 16242525 
2541.911 16245827 16250299 16256386 16264608 16275374 16288824 16304890 
2545.287 16323054 16341770 16359076 16373010 16381785 16384743 16382610 
2548.662 16377106 16370637 16364891 16360866 16357906 16355017 16350785 
2552.037 16344385 16336299 16327390 16319064 16312391 16307676 16304133 
2555.412 16301209 16297942 16293848 16289100 16283974 16278230 16272003 
2558.788 16264332 16254151 16240701 16223125 16200734 16173186 16140001 
2562.163 16101073 16056787 16007693 15955305 15901580 15848139 15796285 
2565.538 15746841 15699912 15655357 15613211 15573921 15538410 15508260 
2568.913 15484327 15467193 15457133 15453631 15456034 15463622 15475502 
2572.289 15490335 15506680 15522889 15537552 15550190 15561488 15573577 
2575.664 15589169 15610533 15639110 15674181 15713826 15755259 15795700 
2579.039 15833672 15869137 15903264 15937567 15973797 16012507 16054140 
2582.414 16098289 16144780 16193135 16243212 16294708 16346863 16399126 
2585.790 16451329 16503571 16557163 16613513 16673867 16738739 16807342 
2589.165 16877848 16948126 17016762 17083064 17147928 17212460 17277756 
2592.540 17343960 17410106 17474158 17534184 17589040 17638866 17685074 
2595.915 17729976 17775846 17824554 17876964 17933246 17993126 18055952 
2599.291 18121480 18189092 18258786 18330324 18403430 18478242 18554936 
2602.666 18633890 18715384 18799798 18887206 18977470 19070834 19167508 
2606.041 19268118 19372942 19482436 19595978 19712774 19831442 19951006 
2609.416 20070744 20190862 20311568 20433316 20555548 20677050 20796224 
2612.792 20910910 21019506 21121692 21217712 21308494 21394774 21477030 
2616.167 21555022 21627976 21695056 21755770 21810362 21859594 21904440 
2619.542 21945948 21985332 22023394 22060972 22099006 22137778 22177702 
2622.917 22218502 22259444 22299974 22339528 22378284 22417184 22457588 
2626.292 22500682 22547622 22598298 22652332 22708816 22767544 22828340 
2629.668 22891938 22959388 23031180 23107318 23187244 23269598 23352910 
2633.043 23436064 23518218 23599514 23679916 23759492 23838420 23916450 
2636.418 23993756 24070588 24147576 24225556 24305338 24387482 24472096 
2639.793 24559182 24648280 24739120 24831486 24925100 25019682 25114526 
2643.169 25209116 25302670 25394874 25485764 25575864 25666122 25757630 
2646.544 25850916 25946544 26044444 26144302 26245730 26348452 26452324 
2649.919 26557770 26665180 26774870 26887726 27003786 27123296 27245910 
2653.294 27371312 27498584 27627624 27757938 27889742 28023598 28159936 
2656.670 28299040 28441052 28585308 28731274 28878104 29025336 29172796 
2660.045 29320554 29468718 29616934 29764560 29910604 30054068 30194276 
2663.420 30330870 30464558 30596154 30726650 30856940 30987302 31117986 
2666.795 31248962 31380654 31512920 31646260 31780958 31916768 32053370 
2670.171 32190230 32327168 32464042 32601352 32739814 32880106 33023018 
2673.546 33168268 33315566 33463988 33612752 33760560 33906772 34050380 
2676.921 34190880 34328128 34462300 34594464 34726028 34858920 34995340 
2680.296 35136832 35284760 35439324 35600704 35768872 35943976 36126752 
2683.672 36318288 36520032 36733156 36958112 37194952 37442756 37700240 
2687.047 37966196 38239260 38518620 38804020 39095272 39392956 39697124 
2690.422 40008044 40325772 40649804 40979872 41315620 41656804 42003624 
2693.797 42356672 42716520 43083648 43458232 43839920 44227848 44621228 
2697.173 45019672 45423152 45831644 46245976 46666312 47092780 47524956 
2700.548 47962036 48403372 48848308 49296560 49748024 50202340 50658804 
2703.923 51116160 51572656 52025860 52473548 52913132 53341852 53757376 
2707.298 54157160 54538756 54900044 55239240 55555096 55847024 56114452 
2710.674 56357184 56574988 56767376 56934388 57075576 57190916 57280092 
2714.049 57343192 57379496 57389024 57371100 57325540 57252308 57152100 
2717.424 57025584 56874176 56699484 56503468 56288340 56057260 55813264 
2720.799 55560292 55302124 55043016 54786624 54537028 54297940 54072416 
2724.175 53863964 53675224 53508260 53364668 53244980 53149552 53078292 
2727.550 53030936 53007016 53006416 53028276 53071628 53135024 53216888 
2730.925 53315328 53429112 53557248 53698996 53853724 54020520 54197624 
2734.300 54382880 54573468 54766888 54961256 55154848 55346948 55537284 
2737.676 55725596 55911500 56095260 56276156 56454260 56629604 56802492 
2741.051 56972956 57141180 57307160 57470936 57633112 57794512 57956696 
2744.426 58121436 58290332 58464412 58644096 58828716 59016712 59206428 
2747.801 59395536 59582108 59764084 59939364 60106912 60265392 60414408 
2751.177 60553880 60684476 60806608 60921348 61029176 61131040 61227860 
2754.552 61320192 61408768 61494116 61576352 61654400 61727384 61793200 
2757.927 61850236 61896732 61931392 61953324 61961616 61955388 61933456 
2761.302 61894824 61838508 61763976 61671548 61561424 61434528 61291380 
2764.677 61132876 60959704 60773148 60575364 60368868 60156916 59942900 
2768.053 59729824 59520164 59315992 59118676 58929800 58750904 58583424 
2771.428 58428968 58288324 58161776 58049284 57949768 57862272 57786072 
2774.803 57720108 57663232 57613700 57569700 57528356 57486480 57440684 
2778.178 57387624 57324176 57247204 57154028 57042512 56911156 56759520 
2781.554 56588876 56401400 56201140 55992308 55779432 55566768 55357332 
2784.929 55153572 54956744 54767564 54585080 54408152 54234564 54061344 
2788.304 53886136 53706420 53521188 53330724 53135736 52938212 52739696 
2791.679 52541380 52343752 52147188 51952092 51759364 51570416 51387068 
2795.055 51211512 51045496 50889900 50745080 50611036 50487376 50373428 
2798.430 50269108 50174072 50087868 50010048 49939864 49876376 49819032 
2801.805 49766860 49719340 49675392 49633712 49592888 49551404 49508176 
2805.180 49462468 49414460 49364824 49314452 49264308 49214500 49164852 
2808.556 49114060 49060784 49003548 48941236 48873116 48799220 48719812 
2811.931 48635604 48546928 48454488 48358668 48259492 48156936 48051112 
2815.306 47942428 47831840 47721548 47613904 47512312 47420388 47342088 
2818.681 47281124 47240964 47224748 47235240 47274476 47343636 47443156 
2822.057 47571976 47727868 47907572 48107220 48322076 48548152 48781276 
2825.432 49017420 49253136 49484524 49707972 49919532 50115756 50293364 
2828.807 50449604 50582408 50690604 50773608 50831972 50867172 50881220 
2832.182 50876896 50856816 50823668 50779568 50726464 50665916 50599604 
2835.558 50529248 50456896 50384516 50313564 50244740 50178276 50113972 
2838.933 50051876 49993060 49939156 49893140 49858612 49838616 49836128 
2842.308 49853412 49892172 49954844 50043956 50162916 50315872 50506248 
2845.683 50736032 51004316 51306180 51632432 51968712 52297556 52598824 
2849.059 52851232 53035688 53137268 53146480 53061220 52887048 52635812 
2852.434 52323604 51969348 51592392 51209612 50835700 50481908 50155884 
2855.809 49862292 49603516 49379076 49187416 49024912 48887352 48769636 
2859.184 48666848 48574308 48487792 48404260 48321152 48236720 48149828 
2862.560 48059956 47966884 47870944 47773212 47675468 47580516 47491984 
2865.935 47414700 47353948 47315076 47303108 47322428 47375196 47462264 
2869.310 47582404 47732236 47906980 48100744 48305780 48514284 48718220 
2872.685 48909936 49083228 49234244 49361968 49467964 49556604 49633824 
2876.061 49705668 49777936 49855084 49939936 50033920 50137400 50250360 
2879.436 50372536 50503828 50644284 50794168 50953608 51122716 51300848 
2882.811 51486848 51678260 51871324 52060968 52241948 52407636 52552860 
2886.186 52673520 52767752 52836488 52883340 52914368 52937164 52960368 
2889.562 52993460 53045572 53126296 53245652 53414012 53644104 53950620 
2892.937 54349868 54861844 55508480 56311388 57292152 58466228 59839144 
2896.312 61400372 63118784 64939172 66777312 68534248 70095600 71346088 
2899.687 72193360 72571728 72457592 71870304 70869944 69545920 67996216 
2903.063 66325480 64625880 62968612 61409456 59984020 58711648 57601408 
2906.438 56654032 55864884 55226108 54729416 54365644 54127024 54007464 
2909.813 54001872 54105404 54312320 54614124 54998300 55450012 55949904 
2913.188 56477012 57010624 57529644 58014744 58450196 58821960 59120196 
2916.563 59338972 59476124 59533424 59516056 59432352 59292180 59105960 
2919.939 58885136 58639432 58377800 58107988 57836376 57568984 57311472 
2923.314 57069640 56849512 56657428 56498904 56378612 56299656 56263296 
2926.689 56268804 56313652 56393928 56504076 56637612 56787312 56944736 
2930.064 57101272 57248564 57378020 57482360 57554988 57589944 57582528 
2933.440 57528356 57424004 57267580 57059176 56800948 56498300 56159020 
2936.815 55793292 55412064 55027708 54652336 54297148 53973056 53689096 
2940.190 53452908 53269700 53142288 53070244 53049952 53074328 53133076 
2943.565 53211832 53294160 53361484 53393892 53373696 53286444 53122740 
2946.941 52880352 52563852 52184888 51758920 51304428 50840428 50382804 
2950.316 49945476 49538036 49165744 48830476 48531364 48265048 48027352 
2953.691 47813976 47621300 47446520 47288436 47146184 47019300 46907140 
2957.066 46808448 46721436 46644140 46574792 46512240 46456224 46406480 
2960.442 46363348 46326956 46297544 46275536 46261680 46257184 46263412 
2963.817 46281656 46312508 46355712 46410056 46474220 46546872 46627984 
2967.192 46718520 46820108 46935272 47066044 47214036 47379964 47564324 
2970.567 47767516 47989864 48232204 48495020 48778012 49079592 49396232 
2973.943 49721680 50047044 50361260 50650200 50898244 51089956 51210024 
2977.318 51247456 51195820 51055336 50833016 50541984 50200516 49828176 
2980.693 49445312 49070204 48716920 48395892 48112700 47868724 47660936 
2984.068 47483368 47327492 47182860 47039092 46887652 46722280 46540564 
2987.444 46343768 46136452 45923892 45710996 45499524 45287720 45069620 
2990.819 44836020 44577756 44287504 43962468 43605328 43224324 42832096 
2994.194 42441500 42065092 41711512 41384352 41083080 40803672 40540736 
2997.569 40288508 40042672 39800500 39560816 39323484 39089252 38859024 
3000.945 38633916 38414644 38202064 37996172 37797212 37604772 37418268 
3004.320 37237368 37062100 36892960 36730776 36576440 36430948 36294584 
3007.695 36167264 36048620 35938004 35834896 35739152 35650300 35568300 
3011.070 35492248 35421316 35354056 35289364 35226044 35163520 35101660 
3014.446 35041060 34982372 34926964 34875940 34830668 34791752 34759840 
3017.821 34734428 34714936 34699756 34687660 34677036 34667060 34657336 
3021.196 34647896 34639068 34631140 34624320 34618796 34615028 34613876 
3024.571 34616712 34625324 34641544 34666952 34702340 34747564 34801588 
3027.947 34862548 34927572 34993724 35057116 35114160 35161116 35194996 
3031.322 35214076 35217960 35207752 35185836 35154828 35117608 35076548 
3034.697 35033300 34989412 34946064 34904628 34866568 34833036 34805212 
3038.072 34783568 34768168 34758836 34755496 34758224 34767056 34781916 
3041.448 34802232 34827076 34855040 34884556 34914648 34944920 34975692 
3044.823 35007584 35041096 35076228 35112756 35149836 35187092 35224928 
3048.198 35263988 35305964 35352260 35403628 35459568 35518820 35579520 
3051.573 35639296 35696452 35749912 35799308 35845152 35888408 35930264 
3054.948 35972376 36016076 36063200 36114764 36171440 36233420 36299984 
3058.324 36370344 36443416 36518300 36594352 36671212 36748952 36827460 
3061.699 36906848 36987448 37069572 37154056 37241412 37332608 37428092 
3065.074 37528040 37632196 37740140 37851112 37964280 38078528 38192732 
3068.449 38305484 38415224 38520572 38620588 38715048 38804276 38889244 
3071.825 38971224 39051296 39130440 39209452 39289280 39370608 39454452 
3075.200 39541148 39631052 39723264 39816552 39909236 39999836 40087836 
3078.575 40173348 40257500 40341736 40427076 40514328 40603272 40693652 
3081.950 40784924 40876836 40969312 41062576 41156436 41250392 41343972 
3085.326 41436984 41529468 41622636 41718404 41818360 41923916 42035668 
3088.701 42152856 42274016 42397552 42521996 42646548 42770956 42895032 
3092.076 43018780 43142380 43265428 43388180 43511516 43636284 43764056 
3095.451 43895820 44032136 44172528 44315940 44460832 44605624 44749584 
3098.827 44892228 45034004 45175568 45317876 45461704 45607748 45756164 
3102.202 45906728 46058932 46211664 46363528 46513568 46660780 46804868 
3105.577 46946272 47085876 47224676 47363852 47504140 47646328 47790560 
3108.952 47937280 48086756 48238684 48393036 48548968 48705508 48861880 
3112.328 49017568 49172532 49327516 49483480 49640884 49799824 49959344 
3115.703 50118136 50274984 50429172 50580956 50731600 50882744 51035808 
3119.078 51191904 51351040 51512436 51675388 51838660 52001768 52164672 
3122.453 52327608 52490936 52655188 52820288 52986236 53152584 53318808 
3125.829 53483900 53647440 53808792 53967952 54125936 54283632 54442856 
3129.204 54604728 54770008 54938356 55108728 55279432 55449068 55616892 
3132.579 55782860 55947796 56112984 56279780 56448640 56619984 56793316 
3135.954 56968272 57144128 57320244 57496468 57672536 57848720 58025120 
3139.330 58202124 58380072 58559040 58738652 58918228 59096544 59272656 
3142.705 59446520 59618252 59789636 59962300 60138040 60317736 60501316 
3146.080 60687332 60873888 61059456 61242736 61423616 61602468 61780364 
3149.455 61958408 62137252 62317660 62500060 62684372 62870636 63057980 
3152.831 63245596 63432068 63616544 63798756 63979512 64160616 64343944 
3156.206 64531496 64723596 64919664 65117440 65314420 65508328 65697820 
3159.581 65882952 66064464 66243960 66422224 66600100 66777812 66955404 
3162.956 67133192 67311696 67491408 67672504 67854728 68037800 68220912 
3166.332 68403712 68585888 68767368 68948032 69126976 69302968 69474760 
3169.707 69641360 69802728 69959696 70114296 70268088 70422688 70577840 
3173.082 70732696 70885824 71035672 71181408 71322936 71460608 71594992 
3176.457 71726328 71854936 71980648 72104480 72227560 72351656 72477824 
3179.833 72607208 72738896 72871328 73001992 73129056 73251296 73368664 
3183.208 73482056 73593208 73703088 73813232 73924000 74035296 74147608 
3186.583 74261008 74375504 74490504 74605416 74719488 74831824 74942168 
3189.958 75050896 75158432 75265088 75370896 75475000 75576288 75673816 
3193.333 75767144 75856704 75943360 76028336 76112504 76196168 76279224 
3196.709 76360984 76441744 76521872 76602184 76683144 76764584 76845808 
3200.084 76924864 77000232 77071216 77138008 77201728 77264072 77326496 
3203.459 77389648 77453328 77517136 77580672 77644096 77708016 77773040 
3206.834 77839192 77905632 77970856 78033104 78091208 78144904 78195096 
3210.210 78242896 78289480 78335544 78380672 78424408 78466168 78506104 
3213.585 78545088 78584632 78625888 78669376 78714488 78760168 78804856 
3216.960 78847888 78888656 78927872 78966616 79005800 79046264 79088360 
3220.335 79132488 79178808 79227280 79277944 79330520 79384536 79439240 
3223.711 79494544 79550136 79606680 79664632 79724472 79786096 79849128 
3227.086 79912216 79974072 80033784 80090880 80145152 80197120 80247056 
3230.461 80295288 80342848 80390688 80440776 80495248 80556432 80625120 
3233.836 80701400 80783760 80869816 80956760 81042520 81126072 81207272 
3237.212 81286296 81363376 81438584 81511776 81582696 81652352 81722048 
3240.587 81793888 81869376 81949360 82033240 82119216 82205048 82289064 
3243.962 82370520 82450312 82530208 82612432 82698848 82790568 82887840 
3247.337 82990240 83096992 83207048 83319352 83432608 83545368 83655912 
3250.713 83762664 83864864 83962176 84054928 84144120 84230760 84316088 
3254.088 84401072 84486504 84573096 84660944 84749544 84837584 84923192 
3257.463 85003984 85078584 85146416 85208376 85266928 85324784 85384640 
3260.838 85447800 85514088 85582112 85649872 85715816 85778584 85838016 
3264.214 85894016 85946560 85995512 86040224 86080008 86114912 86145296 
3267.589 86172088 86196248 86218680 86239768 86259656 86278040 86294856 
3270.964 86309936 86323152 86334512 86343848 86350880 86355896 86359568 
3274.339 86363416 86368952 86377032 86388064 86401208 86414472 86425992 
3277.715 86434400 86439984 86443456 86446488 86451096 86458216 86468040 
3281.090 86480656 86495616 86513328 86534480 86559832 86589640 86623336 
3284.465 86659368 86695824 86731264 86765368 86799640 86836264 86877784 
3287.840 86926312 86982216 87044720 87112304 87183216 87256240 87331144 
3291.216 87408536 87489384 87575024 87666928 87766240 87874208 87991376 
3294.591 88118192 88254016 88397528 88547136 88700888 88857680 89017040 
3297.966 89179752 89346648 89518968 89697320 89881360 90070656 90264808 
3301.341 90463776 90668184 90879232 91097984 91325264 91561088 91804896 
3304.717 92055768 92312440 92574064 92839576 93108544 93380584 93656048 
3308.092 93935632 94221408 94515112 94818504 95131872 95454144 95782888 
3311.467 96114984 96448040 96781096 97114992 97451760 97793896 98142528 
3314.842 98497880 98858184 99220952 99584528 99947408 100309792 100672064 
3318.218 101034808 101397144 101758600 102117392 102472704 102824352 
3321.111 103172800 103518592 103860904 104198648 104529408 104851264 
3324.004 105163816 105468064 105766352 106062008 106357104 106651816 
3326.897 106944768 107233168 107513704 107784008 108042544 108288392 
3329.790 108520640 108737560 108937520 109118352 109279192 109420400 
3332.683 109543008 109648432 109737152 109808056 109859128 109888104 
3335.576 109893944 109877344 109840952 109788296 109722096 109643224 
3338.469 109550640 109441024 109310600 109156224 108976392 108770760 
3341.362 108540424 108286520 108010120 107711904 107392336 107051848 
3344.255 106690656 106308808 105905904 105480944 105032856 104561312 
3347.148 104067560 103553960 103024464 102483528 101935008 101381872 
3350.041 100825752 100267464 99707272 99145424 98582392 98018104 97452504 
3353.417 96885248 96315912 95745256 95175312 94609488 94052304 93507672 
3356.792 92978944 92467176 91972144 91492936 91028552 90578424 90143104 
3360.167 89723232 89318848 88929480 88553344 88188336 87832672 87485816 
3363.542 87148104 86821008 86506208 86205344 85919416 85648704 85393272 
3366.917 85153192 84927744 84715992 84515776 84324176 84138248 83955136 
3370.293 83772832 83590352 83407192 83223304 83037048 82846296 82648104 
3373.668 82439624 82218704 81984776 81737688 81478272 81206312 80920512 
3377.043 80618856 80298680 79958024 79595616 79211656 78806368 78379672 
3380.418 77931320 77460296 76964984 76445256 75901328 75335544 74750344 
3383.794 74149416 73535584 72911336 72278824 71639808 70995680 70347952 
3387.169 69698112 69047264 68396104 67745304 67095564 66448016 65803596 
3390.544 65163864 64529964 63902580 63282124 62669136 62064200 61468540 
3393.919 60883076 60308712 59745184 59191236 58644360 58102156 57562552 
3397.295 57024828 56489732 55958876 55433524 54914668 54401504 53892660 
3400.670 53386284 52881064 52377024 51874908 51376100 50881480 50391624 
3404.045 49905664 49422700 48941756 48462640 47986048 47512716 47044076 
3407.420 46580364 46121420 45666860 45216232 44769896 44328636 43893620 
3410.796 43465408 43044388 42629664 42220148 41814744 41413544 41017672 
3414.171 40629140 40250556 39883880 39530152 39188532 38856888 38532376 
3417.546 38212196 37893804 37575832 37257872 36940652 36625540 36314216 
3420.921 36008480 35710160 35419804 35137332 34861828 34591380 34324400 
3424.297 34059196 33795120 33532422 33271670 33014402 32761682 32513820 
3427.672 32270774 32031502 31795040 31560234 31326518 31093854 30862132 
3431.047 30632134 30404250 30178932 29956538 29737486 29521806 29309708 
3434.422 29101470 28897120 28696902 28500986 28309050 28120202 27933590 
3437.798 27747344 27560082 27370218 27176980 26980832 26782482 26583800 
3441.173 26387286 26194626 26007644 25826898 25652308 25482390 25315630 
3444.548 25149460 24981810 24810926 24636428 24459090 24281230 24105718 
3447.923 23935600 23773002 23618406 23470408 23326828 23184658 23041698 
3451.299 22896724 22750086 22602764 22456334 22311622 22168774 22027228 
3454.674 21886390 21745458 21604990 21465960 21329514 21196730 21068126 
3458.049 20943176 20820974 20700370 20580040 20459468 20338096 20215818 
3461.424 20092572 19968422 19843476 19718808 19595008 19473634 19355760 
3464.800 19241760 19131842 19025552 18921988 18820524 18720642 18621784 
3468.175 18523848 18426522 18328632 18229862 18129320 18027248 17924336 
3471.550 17821726 17720898 17623028 17528628 17437698 17349858 17264518 
3474.925 17181262 17100054 17020896 16943888 16868962 16795942 16724793 
3478.301 16655345 16587730 16522123 16458383 16396478 16335990 16276544 
3481.676 16218448 16162079 16108844 16059607 16015153 15975483 15939252 
3485.051 15905259 15871715 15837898 15803570 15769655 15737221 15706886 
3488.426 15679471 15654808 15632927 15614448 15600056 15590887 15587658 
3491.802 15590406 15598031 15608678 15620219 15631003 15640827 15650686 
3495.177 15662674 15679369 15703142 15735434 15777558 15829995 15893057 
3498.552 15966682 16050633 16143611 16243659 16348204 16454563 16561361 
3501.927 16668599 16777964 16892594 17015832 17150412 17297652 17457188 
3505.302 17627514 17806432 17991468 18180626 18372700 18566934 18763332 
3508.678 18963522 19169864 19384826 19611404 19850654 20101942 20363096 
3512.053 20629516 20897176 21162604 21424396 21682552 21938906 22194580 
3515.428 22450296 22704942 22956560 23202728 23441414 23671238 23891696 
3518.803 24101832 24300118 24483350 24647510 24788334 24901974 24985672 
3522.179 25038178 25058992 25048076 25005816 24932854 24829590 24697136 
3525.554 24536846 24350158 24138642 23904090 23647866 23371860 23078210 
3528.929 22769396 22447748 22116300 21777056 21432576 21084544 20735122 
3532.304 20385736 20037502 19690170 19342904 18994086 18641948 18285602 
3535.680 17926028 17565648 17208632 16858904 16519438 16191656 15875082 
3539.055 15568219 15269398 14977538 14692866 14416841 14151054 13896995 
3542.430 13655221 13425441 13205824 12993488 12785213 12577379 12367020 
3545.805 12152231 11933018 11711397 11490876 11275942 11070087 10875609 
3549.181 10692322 10517702 10348173 10180441 10012162 9843204 9675361 
3552.556 9511410 9354056 9205050 9064587 8931711 8805234 8683593 8566177 
3556.413 8452271 8341368 8232486 8124442 8016019 7906982 7797433 7688485 
3560.271 7581790 7478525 7379835 7286153 7197580 7114615 7037255 6964893 
3564.128 6896717 6829125 6757941 6677415 6583482 6474434 6353243 6226942 
3567.986 6104576 5994036 5900183 5822939 5758804 5702231 5647579 5590417 
3571.843 5528732 5462358 5392674 5321725 5251426 5183317 5118204 5056351 
3575.700 4997993 4942826 4890013 4838814 4788425 4737941 4686525 4634178 
3579.558 4580531 4525217 4468638 4410860 4353459 4298408 4248918 4208334 
3583.415 4179194 4162166 4155174 4153635 4150692 4139284 4113427 4070380 
3587.273 4010950 3939893 3864067 3790059 3723282 3666439 3620797 3585382 
3591.130 3558556 3537978 3520207 3501067 3476517 3442817 3398300 3343237 
3594.988 3280968 3216339 3154757 3100525 3055676 3020641 2993116 2970496 
3598.845 2950179 2930364 2910083 2890169 2871324 2854480 2840272 2828433 
3602.702 2818328 2809357 2801220 2793950 2788447 2785213 2784412 2785146 
3606.560 2785146 2781111 2769340 2747199 2713822 2670880 2621776 2570843 
3610.417 2521416 2475294 2432409 2391694 2352015 2313339 2276665 2244158 
3614.275 2218014 2199131 2187109 2179916 2174188 2166762 2154841 2137060 
3618.132 2113220 2084986 2054490 2024529 1997100 1973400 1953596 1937487 
3621.990 1924008 1912726 1903674 1897417 1895421 1899115 1909731 1926704 
3625.847 1947073 1966044 1976263 1970571 1943744 1895820 1833560 1769079 
3629.704 1715452 1680592 1665524 1664726 1670979 1676234 1675103 1665191 
3633.562 1647596 1625845 1604261 1587001 1576725 1574065 1578421 1587965 
3637.419 1600603 1613473 1623417 1627741 1623484 1609150 1584806 1553049 
3641.277 1518002 1485218 1460217 1446753 1446487 1458023 1478004 1501410 
3645.134 1522457 1536655 1539980 1530437 1508027 1473881 1430463 1380534 
3648.991 1326557 1271556 1218987 1173967 1141674 1126526 1131044 1154265 
3652.849 1192373 1238326 1283685 1320408 1341347 1343474 1329182 1305420 
3656.706 1281625 1265840 1262384 1270127 1284450 1299072 1308942 1310970 
3660.564 1304755 1292193 1276308 1260423 1246002 1234172 1225134 1218987 
3664.421 1216661 1218954 1227394 1242213 1262517 1285413 1306284 1319411 
3668.279 1319478 1303259 1271489 1230517 1191210 1164730 1159780 1178618 
3672.136 1217791 1269130 1322602 1369000 1400612 1413742 1410085 1395858 
3675.993 1379471 1366441 1357766 1349988 1338256 1318780 1290897 1256834 
3679.851 1221911 1190778 1167123 1151242 1141741 1135163 1129150 1122606 
3683.708 1116460 1112241 1111012 1111942 1112075 1107524 1093772 1068394 
3687.566 1031992 989448 947838 914799 895375 890793 898895 915994 938673 
3691.905 964874 993666 1024585 1057367 1090716 1122506 1149548 1168551 
3695.763 1177189 1175229 1164365 1147787 1130280 1115331 1104933 1098522 
3699.620 1093573 1086497 1074506 1056935 1035612 1015020 1000540 995525 
3703.478 1001204 1016083 1035977 1056769 1075038 1089121 1099020 1106195 
3707.335 1111942 1117025 1120613 1120712 1115264 1102076 1081415 1055208 
3711.192 1027541 1003629 988319 984666 993898 1014256 1042719 1074274 
3715.050 1104236 1128286 1142903 1146824 1140578 1126891 1109418 1092144 
3718.907 1077828 1067630 1061054 1056769 1054344 1053248 1054710 1059858 
3722.765 1068959 1081648 1095400 1107624 1115497 1118021 1115696 1110746 
3726.622 1106428 1104900 1107757 1113836 1120446 1124234 1121842 1111344 
3730.479 1093074 1070288 1049296 1036741 1038402 1056105 1085600 1117423 
3734.337 1139947 1142206 1118088 1069856 1007714 946875 901252 879372 883091 
3738.677 908158 947705 994263 1042088 1087228 1126227 1155960 1171275 
3742.534 1165428 1132040 1069590 985695 898596 831731 802086 812477 853111 
3746.874 907660 959328 993433 1002068 984301 947739 904772 869146 850289 
3751.213 850621 866822 892885 923565 955708 987954 1019404 1049096 1075469 
3755.553 1097127 1112773 1122506 1127157 1128452 1127722 1125330 1121211 
3759.410 1115663 1109783 1106229 1108122 1117523 1134332 1156259 1178684 
3763.268 1196759 1206726 1208055 1202872 1195430 1190546 1190778 1195596 
3767.125 1201709 1204401 1200447 1188486 1170445 1150644 1134565 1125629 
3770.982 1125695 1133535 1145927 1160245 1173933 1185894 1196294 1205397 
3774.840 1213804 1221712 1228025 1231680 1230949 1224204 1210880 1191808 
3778.697 1169714 1148219 1132007 1124400 1126725 1137588 1153701 1171143 
3782.555 1186326 1196759 1202208 1203337 1201344 1197722 1192506 1185462 
3786.412 1176093 1164764 1152870 1142804 1136758 1136126 1140711 1148319 
3790.270 1156325 1161907 1163667 1162006 1158451 1155096 1153169 1152604 
3794.127 1152206 1150279 1145727 1139116 1132705 1130246 1134499 1146591 
3797.984 1163966 1181542 1192041 1187788 1163568 1118819 1060423 1001138 
3801.842 957634 942791 960689 1005787 1065006 1123337 1165528 1180645 
3805.699 1164897 1123303 1069756 1022858 1000108 1010105 1051687 1115397 
3809.557 1189582 1262949 1327388 1379172 1417299 1442165 1454432 1453003 
3813.414 1435782 1400911 1348792 1284250 1217326 1161641 1129383 1125961 
3817.271 1148618 1187057 1228490 1259327 1269927 1254940 1215864 1160511 
3821.129 1102874 1058098 1036973 1042719 1071118 1113836 1161574 1206427 
3824.986 1243775 1271788 1291993 1307646 1322136 1337757 1354409 1369765 
3828.844 1380701 1384789 1380967 1370297 1355905 1341513 1330478 1324297 
3832.701 1323134 1324961 1327886 1329216 1327255 1320441 1306749 1285247 
3836.559 1255007 1216827 1173900 1131376 1096230 1074108 1068727 1080585 
3840.416 1107225 1144299 1186293 1228390 1266538 1297876 1321505 1337491 
3844.273 1347396 1353312 1357600 1362552 1369565 1379770 1392601 1407692 
3848.131 1423083 1437245 1448049 1453302 1450110 1435350 1404767 1354342 
3851.988 1281857 1189549 1086663 989182 914866 875919 875189 906631 960623 
3856.328 1027010 1098190 1168485 1233940 1292791 1343673 1385720 1418994 
3860.185 1443495 1460383 1470623 1475610 1476541 1473748 1467298 1456460 
3864.043 1441533 1424047 1406695 1392601 1384191 1381066 1380601 1377676 
3867.900 1366906 1344438 1309840 1268332 1230118 1207092 1206494 1230251 
3871.758 1272420 1323333 1371593 1407792 1427039 1429432 1420623 1409055 
3875.615 1403670 1409587 1428203 1456261 1487911 1516638 1536456 1544137 
3879.472 1539914 1527910 1514045 1504935 1504968 1514909 1531834 1549923 
3883.330 1562426 1562659 1546431 1513613 1469426 1424247 1388811 1372989 
3887.187 1380302 1408423 1450310 1496523 1537653 1565585 1576659 1570972 
3891.045 1554478 1535159 1521792 1520761 1533895 1559433 1593153 1630169 
3894.902 1665690 1695793 1718745 1733482 1740169 1740036 1734680 1726596 
3898.760 1718013 1710961 1706105 1702978 1699119 1691469 1677332 1654880 
3902.617 1624781 1589861 1554645 1524286 1502773 1492533 1493131 1502408 
3906.474 1517303 1534993 1553547 1572402 1591823 1612775 1636521 1663628 
3910.332 1693797 1726031 1758566 1789041 1815359 1835822 1849432 1855854 
3914.189 1855654 1849199 1837220 1820483 1799688 1775899 1750448 1725398 
3918.047 1702579 1684317 1672575 1668784 1673141 1684982 1703011 1724800 
3921.904 1747654 1769079 1787278 1800985 1809836 1814560 1816091 1816324 
3925.761 1816656 1818320 1822080 1828036 1836255 1846071 1856819 1867401 
3929.619 1876419 1882608 1884605 1881777 1874522 1863640 1851428 1840314 
3933.476 1832461 1828968 1830032 1834524 1840414 1846237 1850530 1853358 
3937.334 1855621 1858882 1864872 1875054 1889564 1907301 1926538 1944577 
3941.191 1958689 1967376 1970205 1968008 1963015 1957956 1954928 1955194 
3945.049 1958655 1964646 1971203 1976862 1980357 1981955 1982254 1982520 
3948.906 1983719 1986015 1988612 1990276 1989943 1986615 1980756 1973267 
3952.763 1965612 1959487 1955793 1955160 1957490 1962716 1971004 1982654 
3956.621 1997799 2016573 2038178 2061248 2083787 2103364 2118447 2128170 
3960.478 2132498 2132332 2129102 2124407 2119513 2115117 2111821 2110023 
3964.336 2109790 2111422 2115018 2120578 2127870 2136527 2146017 2156040 
3968.193 2166196 2176286 2185877 2194968 2203760 2211853 2219812 2227705 
3972.051 2235832 2244358 2253284 2262010 2270470 2278131 2284959 2290988 
3975.908 2296418 2301747 2307443 2314205 2321967 2330661 2340089 2349350 
3979.765 2357745 2364408 2368539 2369572 2367773 2363275 2356912 2349683 
3983.623 2341954 2334159 2326497 2319302 2312840 2308110 2306178 2308143 
3987.480 2314905 2326264 2341222 2357912 2374336 2388462 2399423 2406654 
3991.338 2410718 2412318 2412151 2410252 2406553 2400690 2392527 2382532 
3995.195 2371637 2361443 2353114 2347918 2345985 2346951 2349617 2352315 
3999.052 2353781 2353148 2349916 2344653 
##END=
