
##TITLE=Z295_3_a
##JCAMP-DX=5.01  $$ Nicolet v. 1
##DATATYPE=INFRARED SPECTRUM
##ORIGIN=UniL
##OWNER=Nicolet
##LONGDATE=2011/09/09
##TIME=15:22:41
##SPECTROMETER/DATA SYSTEM=Nicolet iS5
##DATA PROCESSING=
Ratio against background
%Transmittance->Absorbance
Truncated
ElementMultiply or ElementDivide
##COMMENTS=
Number of sample scans: 32
Collection length: 51.19 sec
Sample gain: 2.0
Background collected on: Ven Sep 09 15:21:08 2011 (GMT+02:00);
Number of background scans: 32
Background gain: 2.0
Sample spacing:  1.000
Number of scan points: 12415
Resolution points: 8192
Number of FFT points: 65536
Apodization: N-B fort;
Phase correction: Mertz;
Laser frequency: 15798.0 cm-1
Number of rejected sample scans: 0
Number of rejected background scans: 0
Bench serial number: ASB1000141;
##RESOLUTION=4.000
##XUNITS=1/CM
##YUNITS=ABSORBANCE
##FIRSTX=649.893372
##LASTX=4000.122314
##FIRSTY=0.101499
##MAXX=4000.122314
##MINX=649.893372
##MAXY=0.280179
##MINY=-0.001491
##XFACTOR=1.000000
##YFACTOR=1.000000E-009
##NPOINTS=6950
##DELTAX=0.482117
##ZPD=6100
##XYDATA=(X++(Y..Y))
649.893 101499176 100503016 99567400 98712472 97933696 97217152 96551192 
653.268 95939032 95400528 94963448 94648056 94459472 94381968 94389464 
656.643 94455312 94564752 94716336 94917480 95169864 95464464 95777520 
660.018 96081000 96355904 96602680 96842304 97107040 97429120 97825680 
663.393 98292040 98805184 99333640 99845984 100310456 100698968 100982088 
666.767 101133704 101150728 101075160 100996416 101006416 101157040 
669.660 101437776 101794336 102152600 102441072 102613264 102650488 
672.553 102569200 102411248 102226976 102051376 101891216 101728448 
675.446 101532992 101282448 100972464 100616496 100236536 99848648 99452072 
678.820 99032208 98567472 98042856 97457696 96825816 96165424 95492128 
682.195 94812776 94124808 93425896 92720032 92018544 91339248 90696072 
685.570 90091896 89516984 88954736 88389968 87818640 87251296 86707512 
688.945 86209224 85769224 85386496 85049120 84742088 84454872 84187160 
692.320 83949032 83754952 83618112 83544968 83535848 83588584 83703520 
695.694 83885800 84144600 84489200 84924608 85448336 86053312 86729448 
699.069 87469600 88271360 89133984 90054464 91023280 92020552 93021552 
702.444 94001904 94944568 95844696 96707696 97542712 98354568 99139888 
705.819 99886976 100581752 101215808 101789592 102312936 102799288 103259664 
709.194 103697560 104112824 104506904 104889056 105280976 105711104 
712.086 106204752 106773864 107407864 108073432 108719352 109294616 
714.979 109757072 110083640 110272768 110340216 110313984 110227576 
717.872 110123176 110051144 110067032 110234840 110614424 111246272 
720.765 112142736 113271504 114558352 115882592 117102104 118076528 
723.657 118682800 118852008 118580304 117936440 117042752 116054576 
726.550 115128416 114376272 113859000 113578432 113493744 113542496 
729.443 113666624 113829416 114016872 114231376 114478600 114757640 
732.335 115057368 115361456 115656280 115938584 116215616 116500976 
735.228 116805464 117130256 117466888 117802952 118128240 118442008 
738.121 118752832 119072808 119410168 119763104 120119256 120461888 
741.013 120779240 121069400 121342280 121612880 121894648 122191048 
743.906 122496432 122798528 123087272 123360624 123624904 123889520 
746.799 124161792 124440112 124715736 124976512 125215160 125433640 
749.692 125643656 125860216 126093240 126342968 126598928 126845688 
752.584 127070632 127270280 127450528 127622736 127796816 127975168 
755.477 128153432 128323616 128481256 128628136 128772560 128923688 
758.370 129086896 129259136 129431952 129595624 129746720 129890888 
761.262 130041552 130211712 130408840 130629808 130865096 131104768 
764.155 131349056 131612096 131924408 132324608 132847488 133517904 
767.048 134339360 135292448 136328608 137373920 138336912 139110864 
769.940 139601680 139750896 139557856 139092736 138489088 137919536 
772.833 137531296 137410336 137541984 137813456 138035808 137997888 
775.726 137540896 136584240 135148624 133326504 131246432 129021200 
778.619 126713216 124334832 121856872 119237376 116441872 113462840 
781.511 110320560 107060744 103741192 100424896 97176784 94053256 91102552 
784.886 88362880 85857000 83594848 81574976 79788648 78223656 76868944 
788.261 75716104 74759040 73992552 73411976 73012032 72788808 72742296 
791.636 72877712 73205296 73737992 74487392 75458640 76645544 78027360 
795.010 79569392 81223248 82924984 84606584 86194472 87618240 88827312 
798.385 89798720 90551112 91143992 91677656 92272656 93035632 94042064 
801.760 95299544 96736136 98188048 99424744 100192552 100241376 99402416 
805.135 97623600 94989920 91705968 88052728 84334720 80786720 77547472 
808.510 74638304 71983384 69450256 66903144 64256912 61491368 58655552 
811.885 55837268 53141464 50655304 48429560 46483328 44805928 43372036 
815.259 42150156 41110796 40228380 39478732 38840076 38293212 37822228 
818.634 37417292 37074008 36791828 36570888 36410156 36306256 36254852 
822.009 36253016 36301320 36403600 36566348 36796444 37097396 37470132 
825.384 37911452 38415188 38971332 39566516 40182616 40795372 41378704 
828.759 41908444 42368836 42761012 43105532 43446108 43840616 44356892 
832.133 45064916 46018300 47248244 48746652 50459388 52273040 54017368 
835.508 55495488 56487204 56803060 56328664 55042004 53031084 50467020 
838.883 47584732 44621156 41776876 39206480 36992316 35158924 33687184 
842.258 32534282 31647400 30973424 30467864 30092418 29814986 29612784 
845.633 29469002 29374724 29326476 29323780 29365222 29447302 29563126 
849.008 29704914 29866092 30042884 30234700 30442772 30668546 30912188 
852.382 31173128 31451572 31750016 32073882 32430802 32827680 33269492 
855.757 33758268 34294316 34879280 35518496 36221932 37004800 37885060 
859.132 38879644 40006992 41285664 42736004 44381956 46244612 48334556 
862.507 50639628 53112852 55669132 58178140 60490460 62453460 63931368 
865.882 64840912 65159828 64936556 64278392 63345068 62327416 61407164 
869.256 60756304 60512092 60761908 61553252 62888712 64733596 67014396 
872.631 69624704 72430224 75255072 77901984 80166272 81840936 82764232 
876.006 82837880 82043128 80445360 78179944 75435184 72405320 69279808 
879.381 66219800 63333184 60684740 58293856 56146992 54210540 52447192 
882.756 50828732 49340508 47984832 46775712 45732752 44872280 44202136 
886.131 43720116 43416524 43278968 43296064 43462408 43778308 44247368 
889.505 44873088 45656368 46594196 47681864 48915316 50294924 51826520 
892.880 53522240 55398288 57471240 59756248 62261444 64982080 67890640 
896.255 70926824 73993056 76937920 79575880 81705616 83126192 83689616 
899.630 83321600 82037800 79939264 77197208 74031720 70660296 67292088 
903.005 64104116 61218280 58716312 56637648 54987880 53751752 52901008 
906.379 52405208 52233504 52361136 52770636 53450436 54394860 55602280 
909.754 57073420 58809252 60808936 63064456 65556608 68248552 71078296 
913.129 73965280 76810216 79505728 81961968 84112712 85932424 87438520 
916.504 88690000 89775776 90790976 91828520 92952432 94181112 95477712 
919.879 96747976 97854536 98624432 98896128 98552000 97548392 95943160 
923.254 93897336 91673888 89579160 87941512 87064520 87155952 88313952 
926.628 90490384 93502864 97031464 100661496 103970720 106541400 108047512 
930.003 108302000 107244704 104942264 101543256 97254616 92297528 86888552 
933.378 81247944 75575816 70054840 64854608 60106380 55909012 52327496 
936.753 49388768 47095148 45431352 44373076 43888668 43934864 44453604 
940.128 45355356 46516112 47790228 49005436 49994808 50625628 50805192 
943.502 50504796 49755788 48644424 47287992 45813416 44345664 42980256 
946.877 41782168 40786200 39998748 39407324 38988076 38714468 38558880 
950.252 38495412 38501816 38555948 38637392 38729176 38817972 38896420 
953.627 38963504 39024180 39086316 39158576 39249056 39362844 39503080 
957.002 39671712 39869428 40096704 40352972 40636524 40944296 41272256 
960.377 41617092 41976832 42351520 42742508 43151820 43580272 44027148 
963.751 44490492 44968588 45460456 45967244 46491660 47036284 47602996 
967.126 48192256 48803040 49434804 50087944 50764708 51468940 52204468 
970.501 52974072 53779056 54619908 55497672 56415096 57376884 58389168 
973.876 59457692 60586256 61776008 63026756 64338908 65714352 67158288 
977.251 68677280 70278960 71970208 73757384 75648968 77656776 79798760 
980.625 82099720 84587272 87289016 90228672 93420392 96867608 100558144 
984.000 104463280 108528512 112663720 116747928 120614480 124063384 
986.893 126894728 128912984 129969536 129987952 128969656 127000096 
989.786 124229456 120871312 117163888 113344456 109646600 106258488 
992.678 103319768 100924016 99111208 97883464 97215120 97067632 97398600 
996.053 98167280 99341560 100892000 102791312 105015000 107535344 110323296 
999.428 113347592 116566312 119921432 123336992 126704264 129893664 
1002.321 132767368 135184224 137032144 138241472 138794608 138730720 
1005.213 138141728 137169744 135977984 134746992 133658704 132863504 
1008.106 132485512 132610368 133281320 134511808 136291856 138600576 
1010.999 141411744 144699360 148439072 152602544 157159024 162075808 
1013.891 167316480 172845136 178621760 184586528 190650704 196677328 
1016.784 202462560 207761760 212299792 215807744 218091776 219059088 
1019.677 218756784 217363200 215189392 212640576 210134256 208099664 
1022.570 206903168 206800832 207950848 210389712 214054096 218792208 
1025.462 224400688 230656016 237308912 244121200 250862208 257294272 
1028.355 263201680 268390560 272702528 276042240 278376832 279733568 
1031.249 280178720 279805088 278714048 276998720 274749920 272046464 
1034.142 268946560 265486384 261671120 257480448 252878128 247833216 
1037.035 242340512 236432064 230178384 223677920 217049712 210409408 
1039.928 203864880 197516176 191442400 185703840 180335088 175333904 
1042.821 170660304 166237024 161970672 157761696 153533088 149251376 
1045.714 144932496 140642576 136479840 132568224 129031864 125976192 
1048.607 123490240 121630016 120420656 119859024 119916712 120546376 
1051.500 121685176 123267536 125227544 127499760 130025104 132739800 
1054.393 135566928 138417392 141177056 143711744 145887696 147570704 
1057.286 148649120 149050560 148743792 147749888 146139536 144039904 
1060.179 141620176 139072528 136614192 134447136 132744656 131651432 
1063.072 131261096 131623760 132747528 134602736 137122816 140201984 
1065.965 143709168 147476656 151310880 155022768 158424160 161355568 
1068.858 163705792 165402480 166415424 166745680 166415856 165462768 
1071.751 163930800 161874032 159349712 156418224 153147648 149611888 
1074.645 145897216 142112544 138379200 134834944 131627616 128888768 
1077.538 126735184 125255656 124498760 124475200 125150624 126448824 
1080.431 128241656 130353224 132581040 134687680 136443632 137666112 
1083.324 138233536 138123280 137410976 136267376 134918704 133614168 
1086.217 132610368 132117536 132296648 133248312 135000128 137510064 
1089.110 140663808 144296832 148190064 152092224 155765296 158981072 
1092.003 161555296 163366448 164343344 164469664 163772400 162315856 
1094.896 160189920 157497712 154356576 150879616 147171520 143333184 
1097.789 139450752 135600544 131849440 128244240 124810376 121545752 
1100.682 118421424 115386912 112382032 109357696 106286168 103175280 
1103.575 100067040 97037096 94181112 91594840 89374040 87597120 86319232 
1106.950 85578320 85390128 85753112 86649584 88048712 89908376 92171408 
1110.326 94774280 97641064 100681048 103796440 106871952 109777040 112384224 
1113.701 114565904 116213840 117257024 117660648 117432192 116612424 
1116.594 115271920 113497912 111381992 109020688 106501136 103894072 
1119.487 101256512 98625016 96020608 93455688 90939816 88485864 86115200 
1122.862 83854368 81734376 79787016 78037832 76507616 75212168 74162424 
1126.238 73369680 72845816 72602696 72652328 73002072 73652368 74592664 
1129.613 75800360 77240592 78861832 80599352 82378016 84108616 85704192 
1132.988 87088088 88203112 89028184 89580832 89918288 90122392 90291360 
1136.363 90523232 90892840 91448680 92200656 93121024 94143984 95174280 
1139.739 96105512 96820856 97214576 97206576 96739696 95788008 94351832 
1143.114 92453032 90129000 87429560 84419256 81168968 77756672 74266200 
1146.489 70772984 67347136 64048856 60922456 58001868 55310136 52859428 
1149.864 50654896 48695204 46973552 45479292 44199160 43119328 42225736 
1153.240 41506648 40953256 40558668 40318644 40229872 40289380 40494760 
1156.615 40844656 41339600 41982416 42778160 43733268 44853432 46142752 
1159.990 47602184 49229680 51018740 52957492 55027936 57201124 59435428 
1163.365 61680448 63871608 65939368 67816728 69437352 70745488 71697920 
1166.740 72262896 72425400 72186712 71565920 70596744 69324728 67804216 
1170.116 66088220 64229564 62277772 60274984 58261232 56272992 54340820 
1173.491 52492952 50752644 49136504 47656980 46321760 45134280 44096752 
1176.866 43209828 42473944 41889396 41456084 41173232 41039632 41053976 
1180.241 41215820 41525568 41984972 42596108 43361452 44282220 45359144 
1183.617 46590840 47974284 49501084 51154928 52909916 54724416 56542188 
1186.992 58299272 59921600 61337400 62486440 63319348 63807392 63943580 
1190.367 63743456 63242108 62491452 61558176 60510568 59417112 58343156 
1193.742 57341112 56454940 55718776 55154172 54774408 54582748 54572756 
1197.118 54727388 55018684 55410032 55853092 56291848 56667624 56915648 
1200.493 56974804 56793088 56329492 55565076 54504908 53181572 51648592 
1203.868 49974880 48238868 46511868 44856520 43322132 41939828 40727168 
1207.243 39689464 38823408 38119548 37564016 37142400 36838172 36636028 
1210.619 36524140 36493544 36539748 36661624 36859852 37135216 37487576 
1213.994 37914740 38412868 38977060 39600088 40273420 40984860 41718368 
1217.369 42455860 43177696 43865176 44503596 45082376 45594940 46037892 
1220.744 46409544 46710476 46943168 47115164 47238896 47331812 47417212 
1224.120 47519556 47662264 47867096 48149460 48518620 48976544 49517572 
1227.495 50128180 50786308 51465956 52137512 52772204 53348480 53852560 
1230.870 54281344 54641816 54950428 55231864 55516464 55842352 56252996 
1234.245 56793280 57511488 58451788 59649876 61134284 62921612 65018600 
1237.621 67423064 70125432 73108000 76341912 79788648 83396592 87100440 
1240.996 90832544 94520096 98091024 101481640 104628808 107473384 109964152 
1244.371 112054456 113709456 114908280 115642352 115914616 115735384 
1247.264 115121760 114097176 112691032 110941808 108890640 106577824 
1250.157 104037872 101293784 98358568 95241160 91953024 88517640 84976264 
1253.532 81384232 77812720 74340904 71041608 67983400 65219304 62780464 
1256.908 60678152 58899592 57412620 56163772 55086800 54109720 53155584 
1260.283 52157576 51064392 49842520 48481124 46989984 45395928 43735140 
1263.658 42050744 40387112 38781992 37267800 35868112 34595904 33456116 
1267.033 32445692 31556424 30776158 30091744 29491450 28965190 28505338 
1270.409 28106484 27763802 27473240 27231236 27035064 26883638 26777760 
1273.784 26719510 26711546 26755558 26850892 26994160 27178214 27391710 
1277.159 27619998 27843848 28039716 28184684 28255932 28236768 28119776 
1280.534 27907974 27613536 27254130 26849870 26418024 25971060 25518476 
1283.910 25066610 24622752 24197074 23801912 23451520 23160648 22940874 
1287.285 22801836 22751238 22794886 22939372 23192104 23559214 24046286 
1290.660 24655050 25382510 26219262 27148270 28144452 29170742 30180672 
1294.035 31122188 31938556 32581958 33020158 33241372 33258614 33105076 
1297.411 32831110 32490574 32137278 31819426 31572848 31423860 31387206 
1300.786 31465642 31649180 31914412 32228414 32548028 32827788 33028166 
1304.161 33115766 33070750 32886934 32570280 32137528 31612404 31025342 
1307.536 30408228 29792238 29206532 28672866 28205794 27812126 27492902 
1310.912 27246018 27069268 26962358 26926574 26963698 27073924 27255120 
1314.287 27502962 27812724 28181290 28608028 29094666 29644070 30258180 
1317.662 30937414 31680472 32485754 33352058 34278648 35263344 36300204 
1321.037 37375292 38466952 39543652 40565112 41489696 42275296 42886256 
1324.413 43302728 43524044 43574412 43499396 43367016 43253748 43229556 
1327.788 43352956 43654896 44136804 44772684 45518328 46323788 47141160 
1331.163 47936464 48691716 49404136 50083072 50746536 51418100 52121600 
1334.538 52879452 53709304 54619456 55607176 56657092 57744288 58834520 
1337.914 59889268 60871484 61743696 62473816 63037292 63418068 63611904 
1341.289 63626132 63477740 63190176 62788808 62300144 61746596 61147100 
1344.664 60517196 59867400 59205096 58534548 57857616 57173116 56477204 
1348.039 55764020 55025904 54256040 53451484 52615916 51762688 50914560 
1351.415 50106312 49380600 48783464 48364776 48168632 48229576 48567640 
1354.790 49180848 50041872 51094320 52261716 53452048 54565316 55514804 
1358.165 56226520 56648856 56758956 56561212 56089416 55400812 54579520 
1361.540 53727192 52947156 52341324 51984960 51912624 52115472 52542692 
1364.916 53115364 53732816 54293096 54699500 54865756 54735652 54287276 
1368.291 53541056 52552600 51404560 50189508 48986524 47859588 46850448 
1371.666 45980320 45260872 44700476 44308968 44099100 44080984 44255184 
1375.041 44608488 45114208 45740888 46456628 47239192 48076984 48967608 
1378.417 49915700 50931328 52029404 53228724 54551568 56018320 57636212 
1381.792 59386948 61212636 63019476 64672872 66017164 66905884 67203928 
1385.167 66818736 65720060 63962504 61695800 59141004 56565740 54202320 
1388.542 52203124 50633524 49477244 48670852 48128652 47768700 47516344 
1391.917 47305064 47080448 46793096 46402904 45887432 45245100 44497540 
1395.293 43679664 42827632 41964864 41098520 40225544 39343908 38463152 
1398.668 37611852 36832220 36167120 35648252 35285084 35067392 34972496 
1402.043 34976196 35058948 35208540 35420196 35693828 36029324 36424676 
1405.418 36874712 37372148 37910040 38483496 39090520 39731108 40405984 
1408.794 41114768 41854952 42621436 43407992 44208152 45015888 45826932 
1412.169 46636876 47441124 48234980 49014192 49776856 50525268 51265576 
1415.544 52007256 52760796 53535884 54340632 55181940 56065704 56994792 
1418.919 57963888 58956404 59941456 60879072 61725628 62443624 63009328 
1422.295 63414008 63670792 63814148 63898632 63982932 64116368 64328344 
1425.670 64622840 64988004 65406048 65863744 66354468 66877088 67431848 
1429.045 68018544 68637032 69290496 69990208 70755232 71605264 72555512 
1432.420 73608088 74752312 75966328 77227328 78520592 79840416 81194368 
1435.796 82597568 84067552 85609792 87215656 88864144 90523888 92155392 
1439.171 93707064 95119624 96316080 97209696 97722016 97781896 97338936 
1442.546 96367984 94864872 92851232 90372864 87508104 84357888 81032264 
1445.921 77651152 74324584 71150616 68221064 65607092 63352584 61463960 
1449.297 59912468 58647664 57617596 56791544 56167844 55770164 55627476 
1452.672 55753960 56128328 56693636 57354424 57990240 58477792 58697044 
1456.047 58575040 58122080 57453880 56746456 56158156 55785724 55651992 
1459.422 55739836 56020656 56467508 57055320 57753600 58524880 59316940 
1462.798 60063956 60700708 61169760 61442548 61530496 61485108 61377204 
1466.173 61268720 61201876 61190164 61225608 61284896 61334880 61335036 
1469.548 61231332 60960544 60456068 59661320 58559460 57198892 55703292 
1472.923 54230548 52924736 51871140 51085824 50543244 50205796 50046968 
1476.299 50055704 50230792 50567812 51050232 51646428 52318116 53025356 
1479.674 53738140 54442332 55139012 55843180 56576876 57365844 58233912 
1483.049 59204944 60306964 61572496 63036948 64731100 66668280 68828552 
1486.424 71143664 73501448 75736096 77642512 79010888 79634504 79359360 
1489.800 78127856 76000232 73153128 69825264 66267348 62673652 59157744 
1493.175 55775700 52535508 49431536 46476248 43707984 41195744 39024832 
1496.550 37266252 35954848 35080252 34603724 34472416 34636880 35058340 
1499.925 35703788 36541476 37539092 38657856 39854464 41084900 42293300 
1503.301 43413004 44361404 45020224 45241568 44862324 43750604 41888596 
1506.676 39429272 36664256 33887140 31285354 28915678 26751506 24743014 
1510.051 22855232 21076788 19421554 17914288 16573204 15404913 14400297 
1513.426 13540213 12801968 12164907 11611536 11125391 10691575 10299380 
1516.802 9943371 9626441 9356054 9138044 8970001 8839420 8724159 8601898 
1520.659 8460346 8307121 8168568 8077654 8053417 8091898 8170459 8259164 
1524.516 8334512 8385314 8416798 8445852 8492309 8568001 8671322 8791405 
1528.374 8915816 9038164 9160378 9290886 9437349 9601339 9776303 9948625 
1532.231 10104873 10240042 10363137 10495637 10658635 10862868 11102378 
1535.606 11359910 11612694 11840836 12031693 12178503 12280710 12341521 
1538.982 12366134 12359555 12328533 12284187 12240902 12211661 12202187 
1542.357 12206413 12208798 12188284 12129231 12026924 11892152 11745575 
1545.732 11610583 11500879 11415931 11342632 11262679 11162208 11037832 
1549.107 10899391 10765444 10655070 10577756 10529922 10498148 10467328 
1552.483 10428126 10380479 10333582 10300635 10291950 10308439 10341624 
1555.858 10375184 10390931 10369517 10292865 10149235 9940964 9695012 
1559.233 9458512 9279546 9182510 9162916 9198111 9259508 9320946 9359168 
1563.091 9359507 9317290 9239572 9142647 9046453 8966618 8907530 8862279 
1566.948 8816595 8756208 8671931 8563540 8440109 8317252 8211146 8132004 
1570.805 8083865 8065197 8072185 8099596 8140815 8186868 8224652 8239848 
1574.663 8221039 8166035 8087578 8010721 7964349 7965867 8014838 8097637 
1578.520 8196997 8298609 8395313 8487172 8577801 8671694 8770780 8873777 
1582.378 8977442 9079406 9178754 9276297 9372542 9465150 9547549 9611671 
1586.235 9649545 9657574 9639178 9604421 9567262 9542570 9543823 9580608 
1590.093 9660047 9787419 9965848 10194958 10467260 10767041 11068489 
1593.468 11339741 11550725 11676950 11706564 11641690 11497579 11297706 
1596.843 11066892 10830357 10608653 10418488 10274307 10187360 10165651 
1600.218 10212597 10327644 10506397 10743978 11036812 11382494 11778086 
1603.594 12217556 12687766 13167911 13633271 14055525 14407764 14669321 
1606.969 14824876 14866842 14795667 14617949 14345705 13994576 13584825 
1610.344 13138881 12681216 12237084 11826092 11460427 11142864 10866878 
1613.719 10620435 10388657 10158562 9921708 9677835 9436130 9215271 9036270 
1617.577 8915409 8859202 8863091 8914800 8997502 9093245 9186910 9267090 
1621.434 9330730 9383376 9439109 9514391 9622274 9767356 9945167 10145979 
1625.292 10360016 10581831 10809262 11042250 11280329 11520409 11757694 
1628.667 11987650 12208185 12421399 12631341 12842068 13054227 13264407 
1632.042 13464162 13642228 13787361 13889126 13940719 13941745 13900279 
1635.417 13832135 13758529 13698750 13663052 13651802 13656829 13666061 
1638.792 13666266 13646366 13600312 13528660 13439214 13343328 13253236 
1642.168 13176314 13112380 13054330 12989698 12905209 12789547 12637823 
1645.543 12453928 12252421 12055131 11886090 11765456 11703569 11699893 
1648.918 11745404 11825752 11921065 12005635 12050021 12018885 11882515 
1652.293 11635326 11318961 11017066 10807801 10721936 10737491 10810723 
1655.669 10899459 10976218 11028656 11054146 11057341 11044731 11021858 
1659.044 10989879 10946655 10887397 10807190 10703020 10575515 10428466 
1662.419 10270338 10112369 9965780 9840289 9741060 9667399 9613297 9567499 
1666.277 9516694 9445780 9342275 9198857 9016716 8806417 8585237 8373356 
1670.134 8186463 8032929 7912718 7819968 7744204 7672297 7590287 7483817 
1673.991 7342528 7165173 6963782 6762552 6587249 6455803 6369583 6317134 
1677.849 6279414 6239143 6186508 6120974 6051083 5988123 5939650 5903139 
1681.706 5864750 5801582 5689977 5516752 5291639 5050585 4842398 4702335 
1685.564 4635350 4622658 4636355 4653267 4657923 4643924 4611707 4565463 
1689.421 4511657 4456452 4406777 4368754 4346465 4341378 4349543 4361258 
1693.279 4361124 4332576 4262035 4147714 4004965 3865003 3761382 3711385 
1697.136 3709213 3729531 3741061 3712254 3623336 3475047 3295759 3132396 
1700.993 3024578 2986410 3003492 3049470 3097522 3128258 3131795 3105798 
1704.851 3056310 2994884 2935235 2886967 2854447 2836237 2827199 2821463 
1708.708 2814293 2803721 2790615 2777710 2768106 2764338 2766405 2772274 
1712.566 2778477 2781378 2778577 2769573 2754968 2735128 2708688 2672947 
1716.423 2624675 2564577 2498688 2439140 2400057 2390428 2411218 2455767 
1720.281 2513751 2573676 2627309 2670847 2704620 2732594 2759369 2788981 
1724.138 2823097 2861084 2901310 2942040 2982273 3020441 3054709 3081737 
1727.995 3098089 3101593 3092983 3076432 3057712 3041328 3026714 3006862 
1731.853 2968228 2894372 2773208 2606042 2414117 2233300 2099602 2030654 
1735.710 2020601 2048531 2090213 2126372 2143753 2137659 2110822 2071735 
1739.568 2031020 1997499 1976230 1967642 1969706 1979625 1995569 2016107 
1743.425 2039942 2065443 2090712 2113719 2133098 2147982 2158005 2162900 
1747.282 2162300 2155074 2140223 2116416 2082655 2038677 1986115 1928468 
1751.140 1871460 1822479 1787544 1770210 1769744 1781455 1797026 1806941 
1754.997 1802649 1778993 1737341 1684517 1631964 1590626 1565984 1556740 
1758.855 1556208 1554578 1543173 1516904 1475776 1425510 1374418 1330379 
1762.712 1299072 1281957 1277006 1280229 1287241 1293456 1294585 1287706 
1766.570 1271655 1248394 1223140 1202673 1192606 1194400 1204035 1212641 
1770.427 1210049 1187655 1143767 1085401 1027109 984400 966766 974670 
1774.284 1000075 1032955 1063977 1088557 1106959 1122008 1136525 1151674 
1778.142 1165428 1174531 1175794 1169448 1157953 1146691 1140046 1139980 
1781.999 1143967 1147256 1144930 1134000 1115098 1092144 1070719 1055839 
1785.857 1049761 1052053 1061187 1074938 1091480 1109617 1127356 1141043 
1789.714 1146126 1137854 1112673 1071749 1020832 969655 928181 902779 894014 
1794.054 898031 907992 917887 924229 925757 922702 915762 905768 891922 
1798.393 874292 853144 829307 805672 785224 769756 760561 757142 758304 
1802.733 762951 770087 779249 789506 800228 809821 817357 822203 824992 
1807.073 826386 827349 827980 827349 824029 816294 804543 790535 777257 
1811.412 768029 765042 767797 774037 780411 784261 784394 781871 779315 
1815.752 779747 785921 798369 816759 839566 865129 891922 919415 946709 
1820.091 973209 998282 1020766 1039830 1054577 1064309 1068129 1066036 
1823.949 1059127 1049761 1042288 1041291 1050027 1069158 1095333 1122373 
1827.806 1142305 1148883 1139515 1117623 1092045 1073510 1071616 1089885 
1831.664 1125629 1171807 1220582 1265906 1304888 1338256 1368435 1398185 
1835.521 1429067 1461414 1494494 1528708 1565319 1607786 1659603 1723269 
1839.378 1798823 1884073 1974066 2062813 2145218 2216382 2273801 2317836 
1843.236 2352681 2385863 2426678 2484058 2561977 2659112 2768039 2877961 
1847.093 2977969 3058546 3114541 3145546 3154957 3147415 3127223 3096354 
1850.951 3053641 2997286 2926294 2841573 2747199 2648611 2550179 2454801 
1854.808 2362709 2272269 2182547 2093809 2007985 1928069 1856054 1791337 
1858.666 1731187 1672043 1610646 1546165 1480597 1417099 1359062 1308211 
1862.523 1264145 1225134 1190147 1158385 1130678 1107624 1088191 1069059 
1866.380 1046107 1014588 973740 926753 881762 848529 835117 843948 871703 
1870.720 910615 952122 989680 1020101 1042421 1056802 1063279 1061253 
1874.577 1049960 1029866 1003197 973740 946211 924196 908324 897035 886942 
1878.917 875322 861112 845541 830801 818651 808825 798767 784493 763582 
1883.257 735402 702844 670222 642181 620878 605416 592210 576848 556411 
1887.596 530302 500446 470791 445516 427407 417623 415533 419646 427938 
1891.936 438418 448402 455865 459314 458154 454439 451520 453145 462233 
1896.275 478951 500347 521843 538596 548316 551169 550174 548449 549079 
1900.615 552596 557506 561786 564175 564772 565203 567625 572502 578740 
1904.955 584280 586371 583550 576815 568023 559065 550937 542776 532658 
1909.294 519388 503033 485751 470658 460110 454505 451851 448899 442896 
1913.634 433410 422332 411918 403594 396530 387111 371160 346289 313693 
1917.973 279078 249504 229944 219866 214098 204717 184794 152045 110118 
1922.313 67664 34394 16633 14512 22896 34162 41419 42546 38901 34527 32340 
1927.617 32505 31876 26971 14910 -3843 -25744 -46650 -63712 -76731 -88326 
1932.439 -101676 -118073 -136126 -152555 -163353 -167824 -168785 -170540 
1936.296 -177793 -192433 -211244 -228630 -239989 -243566 -243102 -246314 
1940.154 -260388 -288799 -329260 -373326 -409840 -431522 -436255 -429138 
1944.011 -418579 -411429 -410767 -415236 -419340 -418049 -410038 -395705 
1947.868 -377497 -357402 -334789 -307408 -273799 -235817 -199123 -172925 
1951.726 -166002 -181669 -218000 -266912 -318500 -365049 -404974 -441187 
1955.583 -481270 -531674 -594249 -666245 -741635 -813341 -876702 -931194 
1959.441 -978174 -1019727 -1056352 -1086728 -1109334 -1124371 -1135773 
1962.816 -1148760 -1168455 -1195684 -1227239 -1256247 -1275805 -1281851 
1966.191 -1276103 -1264639 -1255322 -1254067 -1262756 -1279208 -1300483 
1969.566 -1324070 -1349670 -1378670 -1411533 -1444822 -1473321 -1490228 
1972.942 -1491218 -1477118 -1453871 -1426626 -1398916 -1366086 -1317397 
1976.317 -1240554 -1128403 -983794 -822766 -668064 -539749 -451382 -404775 
1980.174 -391434 -398816 -415533 -433739 -450091 -464721 -475577 -479416 
1984.032 -473028 -453500 -421591 -383555 -346510 -317871 -301348 -296514 
1987.889 -298567 -304097 -310619 -318268 -329624 -344755 -360613 -372333 
1991.747 -372598 -357402 -328664 -292739 -258997 -235088 -223530 -221543 
1995.604 -223232 -222305 -216046 -206111 -197500 -193989 -197367 -204852 
1999.461 -212271 -216973 -220484 -227902 -248069 -288369 -350184 -429039 
2003.319 -515690 -597591 -665649 -714477 -742594 -752054 -744678 -720630 
2007.176 -680735 -627899 -567877 -509699 -461808 -428344 -407655 -393387 
2011.034 -376802 -351476 -317341 -279627 -246679 -225882 -219523 -224855 
2014.891 -235916 -246679 -254328 -261150 -270985 -285852 -303997 -319062 
2018.749 -321479 -305123 -268700 -216079 -156795 -100285 -52746 -16467 8681 
2023.088 24652 31478 27502 12624 -11894 -41216 -66726 -81071 -80442 -65434 
2027.910 -41780 -17328 4638 25016 49239 84665 136169 202695 279244 358260 
2032.732 434571 507877 582854 664282 755416 855501 956804 1052318 1135562 
2037.071 1203969 1259593 1307347 1349024 1385853 1416135 1437078 1448282 
2040.929 1453036 1455263 1460516 1472052 1488975 1508492 1528343 1547961 
2044.786 1570972 1603429 1650756 1716117 1799056 1894589 1996234 2099003 
2048.644 2197732 2288323 2366873 2426978 2463265 2472895 2457867 2425845 
2052.501 2389928 2364208 2359677 2379800 2419781 2468929 2515784 2551178 
2056.358 2572843 2584976 2593742 2604775 2620909 2640543 2660179 2677581 
2060.216 2692917 2708854 2729593 2757302 2791115 2826832 2859483 2885033 
2064.073 2902811 2914953 2924860 2935702 2948912 2962623 2975133 2984675 
2067.931 2991614 2997486 3003725 3010131 3014335 3013234 3003926 2985843 
2071.788 2962056 2937903 2918355 2907347 2904612 2907614 2912951 2918222 
2075.646 2923259 2930598 2942974 2961589 2985876 3012734 3038592 3061382 
2079.503 3081537 3100392 3120849 3144244 3169509 3194643 3217341 3235967 
2083.360 3251891 3267381 3284140 3302569 3320332 3332719 3335524 3326442 
2087.218 3306275 3279366 3251657 3227989 3211065 3200985 3194843 3189302 
2091.075 3181558 3170043 3154757 3137002 3117879 3099457 3084140 3074263 
2094.933 3071760 3078334 3092616 3112139 3133064 3151954 3167373 3180924 
2098.790 3196045 3216573 3244447 3278331 3313821 3345774 3370384 3387247 
2102.647 3399402 3412460 3431028 3457613 3491180 3528157 3564502 3597543 
2106.505 3626811 3653942 3680307 3705837 3728696 3745840 3755199 3757104 
2110.362 3754764 3753093 3756636 3767665 3784477 3802794 3817401 3824655 
2114.220 3823485 3816432 3807239 3800086 3798047 3801992 3811752 3827162 
2118.077 3847753 3873026 3902447 3933440 3962028 3984800 3999079 4004363 
2121.935 4003727 4001687 4002690 4009747 4023057 4040547 4058942 4075965 
2125.792 4089779 4100148 4107306 4109581 4105634 4093157 4070280 4038206 
2129.649 4000182 3960290 3923643 3893219 3869148 3849893 3833680 3818705 
2133.507 3805802 3796878 3793134 3793970 3798014 3800788 3799652 3793268 
2137.364 3782873 3771175 3761081 3752525 3743835 3731771 3712989 3685954 
2141.222 3652238 3613714 3572754 3529927 3483598 3431763 3374524 3314856 
2145.079 3259169 3214437 3185664 3173114 3170978 3169109 3157193 3127323 
2148.937 3076532 3005761 2919556 2821896 2715556 2602075 2482859 2358978 
2152.794 2233467 2107526 1979991 1845904 1698554 1532898 1352448 1171741 
2156.651 1016481 919913 913039 1010636 1206959 1474313 1771474 2054124 
2160.509 2289689 2459166 2558878 2597242 2588442 2549845 2498555 2449536 
2164.366 2414117 2399390 2405687 2425679 2450303 2467297 2467430 2448470 
2168.224 2413617 2369372 2324332 2284126 2250053 2219746 2189973 2157105 
2172.081 2121144 2084686 2050628 2023098 2004789 1995103 1994270 2001094 
2175.938 2012379 2025195 2033484 2029656 2006687 1960686 1891993 1809104 
2179.796 1725398 1654415 1608717 1594550 1609249 1644636 1690205 1735711 
2183.653 1774236 1803680 1822812 1832561 1833992 1827836 1815725 1802017 
2187.511 1790771 1787377 1795529 1815858 1846171 1883707 1924674 1967342 
2191.368 2011347 2056055 2100368 2141755 2176253 2201695 2217414 2227139 
2195.226 2236131 2251385 2276932 2312340 2353714 2393826 2425679 2445238 
2199.083 2452268 2449303 2441639 2434142 2430543 2432576 2441072 2455501 
2202.940 2474528 2496555 2518917 2538447 2552645 2560677 2563577 2565010 
2206.798 2568543 2577176 2592675 2612609 2633309 2651644 2665579 2675948 
2210.655 2685616 2697685 2713189 2732261 2752100 2769407 2782512 2790948 
2214.513 2795617 2797985 2798352 2796084 2789881 2779944 2767606 2757436 
2218.370 2754934 2763571 2784813 2815393 2848510 2877061 2895306 2899842 
2222.228 2891737 2874159 2850511 2824031 2796918 2770040 2745365 2725225 
2226.085 2711955 2707321 2711888 2723325 2738296 2753634 2767406 2780044 
2229.942 2794217 2811658 2833902 2860084 2887501 2912651 2933266 2948378 
2233.800 2958920 2966593 2972398 2976535 2979137 2979637 2979203 2980171 
2237.657 2985009 2995518 3012434 3033754 3056477 3078734 3099491 3120515 
2241.515 3145011 3176051 3214437 3258902 3305741 3350249 3389251 3421343 
2245.372 3447627 3470238 3491714 3512724 3533134 3551541 3566841 3578433 
2249.229 3587120 3593868 3599915 3606297 3613413 3621866 3632825 3647560 
2253.087 3667108 3692170 3721177 3751255 3778828 3801089 3815997 3824153 
2256.944 3826928 3826393 3824354 3821345 3817267 3812354 3807106 3802092 
2260.802 3798950 3798014 3798616 3799217 3798382 3794705 3789090 3783541 
2264.659 3780667 3783207 3792298 3806671 3825189 3845480 3865672 3885530 
2268.517 3904653 3922640 3938455 3950459 3956846 3957414 3953368 3947216 
2272.374 3941899 3940629 3943337 3949723 3957749 3965807 3973431 3982058 
2276.231 3993127 4008175 4027738 4050012 4072454 4092823 4109681 4123930 
2280.089 4137779 4153568 4172837 4196122 4222152 4248918 4275118 4299579 
2283.946 4322302 4343687 4363734 4381908 4397104 4408484 4415379 4418392 
2287.804 4418894 4418158 4417522 4417622 4418559 4420434 4423246 4427831 
2291.661 4434895 4445271 4459130 4476069 4495152 4515307 4535529 4555117 
2295.519 4573700 4590979 4606249 4618739 4627782 4633307 4635819 4636522 
2299.376 4636924 4637929 4639670 4641379 4641579 4638297 4630795 4618773 
2303.233 4602900 4584918 4566769 4550395 4537438 4529067 4525652 4526891 
2307.091 4531344 4537371 4542661 4545708 4545407 4542460 4538275 4534525 
2310.948 4533185 4535094 4539748 4546445 4554012 4561579 4568811 4575643 
2314.806 4581368 4584985 4584918 4579192 4567271 4549692 4528766 4508175 
2318.663 4491938 4482932 4483200 4493143 4511523 4536333 4565095 4594160 
2322.521 4618539 4632738 4630862 4607890 4562048 4494851 4411697 4320495 
2326.378 4229646 4146778 4076367 4019445 3974635 3939057 3909769 3885095 
2330.235 3864903 3849358 3838962 3833379 3831942 3833680 3838159 3845781 
2334.093 3857047 3872759 3892751 3916021 3941197 3966308 3990284 4012589 
2337.950 4033190 4052286 4069811 4085498 4099613 4112792 4126807 4143132 
2341.808 4163169 4186955 4212583 4237274 4259191 4278230 4297773 4324076 
2345.665 4363700 4422810 4503254 4602666 4714527 4830806 4942491 5041367 
2349.522 5121690 5179797 5214202 5226039 5218796 5197233 5166686 5132117 
2353.380 5096982 5062821 5029936 4997356 4964811 4932672 4902612 4877212 
2357.237 4859152 4850038 4850976 4861497 4880094 4905997 4938235 4975704 
2361.095 5017299 5061714 5106235 5148881 5187878 5222719 5254478 5285233 
2364.952 5316728 5350640 5386904 5424612 5461889 5497792 5531216 5562829 
2368.810 5593606 5624989 5657750 5693033 5731104 5772536 5817700 5866429 
2372.667 5918589 5973443 6029916 6087438 6146145 6206674 6270640 6339222 
2376.524 6413229 6492461 6575375 6660155 6744783 6828485 6911059 6992772 
2380.382 7074401 7156011 7236928 7316412 7393552 7467637 7538970 7607888 
2384.239 7674961 7740122 7802898 7862208 7916869 7966239 8010147 8049097 
2388.097 8083730 8114415 8141390 8164550 8183761 8199496 8212563 8223640 
2391.954 8233128 8241435 8247615 8250654 8250316 8246601 8240929 8235120 
2395.812 8231574 8231980 8236808 8246061 8258657 8273855 8290909 8309991 
2399.669 8331505 8356129 8384300 8416123 8451663 8490518 8532789 8578748 
2403.526 8628497 8682409 8741096 8804591 8873574 8948454 9029098 9115203 
2407.384 9205760 9298807 9392551 9485401 9576848 9667569 9759393 9853948 
2411.241 9952728 10055803 10161988 10268845 10373590 10473913 10568080 
2414.616 10655206 10735012 10807156 10871770 10928407 10977067 11017984 
2417.992 11051733 11079094 11101019 11118082 11131170 11141199 11148949 
2421.367 11155850 11163398 11172781 11184715 11199810 11217898 11238707 
2424.742 11262747 11290531 11322940 11360930 11405217 11455800 11512787 
2428.117 11576043 11645978 11723516 11809443 11904105 12007644 12118805 
2431.493 12236130 12358055 12483764 12613364 12747644 12887392 13032785 
2434.868 13183760 13338817 13496701 13656487 13818042 13982087 14149480 
2438.243 14321253 14497547 14678299 14863516 15053065 15247502 15447382 
2441.618 15652986 15863776 16078655 16295671 16512830 16729236 16944338 
2444.994 17158926 17373998 17590352 17807916 18026386 18244964 18462858 
2448.369 18680272 18897346 19114010 19330088 19544576 19755390 19960756 
2451.744 20158998 20349068 20530710 20704330 20870024 21028758 21180830 
2455.119 21326696 21466622 21600882 21728494 21847992 21956368 22050200 
2458.495 22125854 22181084 22214700 22227464 22221292 22198242 22160268 
2461.870 22108386 22042844 21964140 21873148 21771794 21662976 21550390 
2465.245 21437310 21327078 21222374 21125276 21038250 20964180 20905730 
2468.620 20866200 20847810 20852052 20878888 20927252 20995476 21081308 
2471.996 21182954 21298298 21425370 21562648 21708292 21860256 22016876 
2475.371 22176098 22335412 22492796 22645316 22790554 22926516 23051272 
2478.746 23164038 23264074 23350218 23421620 23476702 23514268 23533364 
2482.121 23534798 23520632 23493664 23457572 23415606 23369902 23321514 
2485.497 23270786 23217584 23161416 23102356 23040264 22974514 22904686 
2488.872 22829562 22747886 22659068 22562698 22459090 22348598 22231962 
2492.247 22108838 21979058 21842032 21696970 21544018 21383184 21214510 
2495.622 21038076 20853650 20660824 20459780 20251368 20037120 19819058 
2498.998 19599168 19378590 19157396 18934862 18709916 18482010 18252256 
2502.373 18022724 17796766 17577550 17367100 17166610 16975518 16792430 
2505.748 16616475 16446820 16284009 16128618 15981566 15843052 15712658 
2509.123 15589684 15472927 15361694 15255807 15155231 15060544 14972359 
2512.499 14891188 14817573 14752096 14695060 14646255 14604893 14569291 
2515.874 14537666 14508544 14481480 14457089 14437461 14424821 14421054 
2519.249 14426946 14441606 14463049 14488743 14516629 14545341 14574431 
2522.624 14604379 14635495 14667950 14701469 14735951 14771361 14807872 
2526.000 14845413 14883609 14921706 14956857 14986901 15009504 15022675 
2529.375 15026310 15021268 15008715 14990571 14968107 14942111 14912860 
2532.750 14881038 14847059 14811642 14775611 14739721 14703868 14668497 
2536.125 14633850 14600678 14570079 14543456 14521392 14504124 14490455 
2539.500 14478637 14467160 14455033 14442360 14430233 14420471 14413826 
2542.876 14410812 14410743 14411703 14412011 14409614 14403140 14391975 
2546.251 14375946 14355293 14330876 14303891 14276017 14249242 14225617 
2549.626 14206273 14191895 14182310 14176147 14172279 14169643 14167555 
2553.001 14165706 14164371 14163344 14162351 14160948 14158723 14155402 
2556.377 14151192 14146400 14141333 14135891 14129421 14120590 14108439 
2559.752 14091873 14070448 14044232 14013637 13978802 13940445 13898809 
2563.127 13854746 13809354 13764206 13720671 13680388 13644177 13612243 
2566.502 13584756 13561100 13540931 13524216 13511159 13501828 13496632 
2569.878 13495469 13498580 13506271 13519021 13537137 13560588 13588380 
2573.253 13618911 13649717 13678507 13703573 13724604 13743002 13760239 
2576.628 13778845 13800666 13826388 13855498 13887176 13919849 13952387 
2580.003 13984140 14014938 14045053 14075239 14106282 14139417 14175976 
2583.379 14217195 14263554 14315329 14371425 14430096 14489839 14549178 
2586.754 14607155 14664453 14721794 14780308 14840921 14904046 14969547 
2590.129 15037012 15106066 15176127 15246987 15317963 15388298 15456755 
2593.504 15521824 15582403 15637908 15688471 15734680 15777901 15819650 
2596.880 15861129 15903711 15948704 15996693 16048364 16103722 16162388 
2600.255 16223297 16285488 16347930 16410070 16472390 16535684 16601086 
2603.630 16669804 16742114 16817916 16896450 16977206 17059390 17143138 
2607.005 17228454 17315548 17404864 17495960 17588660 17682658 17777816 
2610.381 17873856 17971404 18070216 18170260 18271020 18371628 18471018 
2613.756 18568282 18662632 18753576 18840938 18924514 19004506 19081152 
2617.131 19154870 19225930 19294652 19360920 19424358 19484272 19540242 
2620.506 19591958 19639796 19685038 19728932 19773386 19819786 19868760 
2623.882 19920686 19975360 20032018 20090282 20149870 20210544 20272162 
2627.257 20334658 20397648 20460476 20523276 20585702 20648244 20711280 
2630.632 20775160 20839954 20905694 20971862 21037382 21101586 21163680 
2634.007 21222826 21279264 21332960 21384890 21435918 21487196 21539838 
2637.383 21594438 21651482 21710520 21771308 21833044 21895416 21958110 
2640.758 22021094 22084538 22148656 22213270 22278348 22343818 22410034 
2644.133 22477338 22546608 22618612 22693630 22771664 22852332 22934692 
2647.508 23017764 23100924 23183890 23266836 23350394 23435048 23521296 
2650.884 23609240 23698916 23790012 23882420 23976004 24070588 24166352 
2654.259 24263256 24361162 24459722 24558586 24657154 24755220 24852396 
2657.634 24948716 25044390 25139804 25235276 25331154 25427510 25524134 
2661.009 25620534 25716250 25810618 25904056 25996458 26088354 26180162 
2664.385 26272094 26363626 26454190 26542904 26629066 26712604 26793760 
2667.760 26873202 26952170 27031570 27112224 27194652 27278898 27364748 
2671.135 27451674 27539392 27627060 27714532 27801140 27886774 27971896 
2674.510 28056894 28142544 28229836 28319304 28411020 28504772 28599782 
2677.885 28695380 28790962 28886212 28981164 29076350 29172726 29271322 
2681.261 29373412 29480102 29592600 29711230 29836564 29968146 30105024 
2684.636 30246920 30392840 30542972 30697526 30857116 31022532 31193920 
2688.011 31371038 31553288 31739782 31929712 32122724 32318674 32517604 
2691.386 32719876 32925356 33133686 33344798 33558552 33775352 33995660 
2694.762 34220420 34450428 34685940 34926964 35173152 35424048 35679080 
2698.137 35937860 36199892 36464352 36730600 36997368 37264152 37530276 
2701.512 37795768 38061128 38326980 38593788 38861232 39128552 39394440 
2704.887 39657084 39915192 40167424 40413040 40650972 40880840 41101944 
2708.263 41313540 41515180 41706480 41887172 42057500 42217412 42367156 
2711.638 42507012 42637412 42758888 42872140 42977332 43074612 43163568 
2715.013 43243356 43312652 43370860 43417400 43452264 43476176 43489652 
2718.388 43493756 43489068 43476212 43456364 43430512 43400524 43368920 
2721.764 43338496 43311772 43291564 43279924 43278936 43289952 43314040 
2725.139 43351824 43403156 43467972 43545512 43634968 43736056 43848352 
2728.514 43971636 44105920 44250668 44404788 44567072 44735588 44908616 
2731.889 45084836 45263264 45443276 45624424 45805980 45986620 46165268 
2735.265 46340412 46510800 46675576 46834208 46986476 47132480 47272440 
2738.640 47406864 47536416 47662376 47785900 47907868 48029384 48150496 
2742.015 48271492 48392296 48513616 48636976 48764556 48898664 49041644 
2745.390 49194688 49357844 49529828 49708420 49890648 50073592 50254188 
2748.766 50429952 50597856 50756104 50902340 51035248 51154028 51258640 
2752.141 51349176 51426152 51489568 51539260 51575004 51596832 51604856 
2755.516 51599520 51581944 51552468 51511356 51458008 51390760 51307784 
2758.891 51207224 51086904 50946080 50784112 50601392 50398804 50178052 
2762.267 49941276 49690808 49429756 49161144 48887836 48612960 48338780 
2765.642 48067768 47802252 47544328 47296084 47059660 46836460 46628020 
2769.017 46435316 46259096 46099972 45958844 45836100 45732200 45647060 
2772.392 45579968 45529588 45494192 45471196 45458284 45453092 45453132 
2775.768 45456224 45460012 45461928 45459312 45449748 45430876 45400344 
2779.143 45357012 45299596 45227744 45141744 45042308 44931176 44810228 
2782.518 44682336 44550036 44416308 44283872 44155144 44031768 43915356 
2785.893 43806200 43704068 43607600 43514448 43421760 43326416 43225568 
2789.269 43117020 42999904 42874040 42740280 42600276 42455420 42307652 
2792.644 42158880 42010996 41866080 41726176 41593136 41468660 41353992 
2796.019 41250140 41157420 41076596 41007984 40952092 40909820 40881640 
2799.394 40868244 40869664 40885684 40915572 40957916 41011080 41072700 
2802.770 41140808 41213448 41289200 41367404 41447992 41531692 41618952 
2806.145 41710128 41804568 41900856 41996544 42089000 42175312 42253528 
2809.520 42322080 42379868 42426116 42460024 42480268 42485604 42474932 
2812.895 42447492 42403248 42343196 42268832 42182468 42086628 41983876 
2816.271 41876952 41768600 41662056 41560572 41468224 41389492 41328444 
2819.646 41289092 41274588 41286760 41326260 41392260 41483136 41595976 
2823.021 41727928 41876076 42036908 42207296 42383704 42562484 42739624 
2826.396 42911456 43074172 43224944 43361344 43481192 43582872 43665156 
2829.771 43727004 43768344 43789488 43792932 43781096 43757640 43726160 
2833.147 43689044 43647932 43603864 43557084 43508368 43458928 43410184 
2836.522 43363612 43320740 43281864 43246760 43215024 43186260 43161116 
2839.897 43141612 43130376 43130996 43146732 43180404 43234424 43310640 
2843.272 43411432 43539648 43698792 43892812 44125216 44397556 44709216 
2846.648 45055580 45428372 45814152 46196040 46554468 46867832 47116268 
2850.023 47283896 47359932 47341572 47233208 47046548 46796452 46501436 
2853.398 46179972 45847808 45519028 45204764 44912696 44648400 44414660 
2856.773 44211744 44038076 43890356 43763868 43653504 43554412 43462444 
2860.149 43373788 43286256 43197896 43107140 43013332 42915552 42813556 
2863.524 42707672 42598776 42488852 42380708 42278396 42186668 42110944 
2866.899 42056548 42028332 42029796 42063160 42128724 42225484 42350828 
2870.274 42500764 42670528 42853596 43042672 43230180 43407736 43568732 
2873.650 43708204 43823756 43916092 43988428 44045776 44093048 44135336 
2877.025 44176048 44217136 44259876 44304640 44352012 44402948 44458960 
2880.400 44521768 44593176 44674624 44766588 44868568 44978952 45094836 
2883.775 45212152 45326376 45432788 45526496 45603888 45662368 45701056 
2887.151 45720972 45725020 45718212 45706908 45698700 45701828 45724248 
2890.526 45774244 45859924 45989564 46173520 46424216 46756232 47187884 
2893.901 47739260 48430488 49280636 50302252 51497776 52854676 54341984 
2897.276 55907808 57476344 58960164 60260900 61281844 61947328 62206572 
2900.652 62045244 61485336 60582144 59414456 58065604 56622888 55161848 
2904.027 53739940 52401880 51176468 50079876 49120476 48300412 47617304 
2907.402 47066156 46641152 46336104 46145556 46065672 46092532 46221724 
2910.777 46446820 46757892 47140348 47577264 48047928 48530032 49003064 
2914.153 49446500 49842632 50177976 50442496 50630952 50743368 50784036 
2917.528 50760648 50683232 50562712 50409112 50231316 50036780 49831260 
2920.903 49619596 49406180 49194612 48989116 48793884 48613480 48453268 
2924.278 48319112 48216396 48150236 48124400 48140312 48197512 48293188 
2927.654 48422672 48579792 48757436 48947912 49142552 49332604 49509364 
2931.029 49664060 49789492 49879460 49928860 49934136 49892064 49799896 
2934.404 49656188 49460316 49214208 48922248 48592172 48233984 47859068 
2937.779 47479564 47106924 46750988 46420788 46123776 45865816 45652172 
2941.155 45486020 45368376 45297428 45267972 45271540 45295812 45326520 
2944.530 45347592 45341896 45294228 45191928 45026140 44794140 44498748 
2947.905 44149240 43758300 43342524 42919172 42503324 42108348 41743648 
2951.280 41414460 41122924 40868536 40648932 40460572 40299924 40163464 
2954.656 40047904 39950828 39869828 39802968 39748756 39705620 39672112 
2958.031 39647824 39632432 39626116 39629708 39643252 39666808 39699520 
2961.406 39740040 39786444 39837684 39893148 39952900 40017856 40089144 
2964.781 40167752 40254044 40347984 40448752 40556196 40670548 40792312 
2968.156 40923036 41065048 41220484 41392116 41582520 41793696 42027056 
2971.532 42283004 42560804 42857912 43170812 43494088 43821044 44143332 
2974.907 44451176 44732760 44975460 45166784 45294892 45351864 45334392 
2978.282 45245136 45092336 44889108 44651856 44397080 44140508 43895932 
2981.657 43673144 43479032 43316752 43185892 43082624 42999976 42928828 
2985.033 42858168 42777212 42677184 42552144 42400000 42222196 42023664 
2988.408 41810004 41587152 41359568 41128608 40893908 40652680 40401512 
2991.783 40137588 39860276 39571492 39275788 38979996 38690672 38413884 
2995.158 38152864 37907944 37676284 37453448 37234300 37014288 36790928 
2998.534 36563248 36332084 36099316 35866708 35636200 35409164 35186696 
3001.909 34969624 34758908 34555464 34360188 34173784 33996664 33829184 
3005.284 33671576 33523832 33385728 33257182 33137116 33024128 32916744 
3008.659 32813170 32711554 32610998 32511000 32411594 32313496 32217636 
3012.035 32125040 32036460 31952608 31873514 31799104 31729020 31662724 
3015.410 31599964 31540636 31485058 31434152 31388488 31348776 31314910 
3018.785 31286314 31261780 31240060 31220230 31201644 31184556 31169390 
3022.160 31156502 31146430 31139238 31135072 31134220 31137708 31147106 
3025.536 31164584 31192210 31231408 31282720 31345360 31417020 31494536 
3028.911 31573598 31649750 31718076 31774468 31815324 31838500 31843740 
3032.286 31832188 31806446 31769872 31726238 31678296 31628762 31578976 
3035.661 31530056 31482600 31437180 31394436 31355008 31319432 31288132 
3039.037 31261426 31239954 31223718 31213250 31208624 31209406 31214996 
3042.412 31224394 31236358 31250100 31264950 31280796 31297780 31316298 
3045.787 31336456 31358500 31382754 31409610 31439674 31473800 31512384 
3049.162 31555426 31602140 31651388 31701572 31751510 31800206 31847414 
3052.538 31893626 31939234 31984564 32030184 32076202 32123006 32171246 
3055.913 32221704 32274880 32331344 32390888 32453154 32517746 32584280 
3059.288 32653074 32724772 32799844 32878820 32961316 33046364 33132396 
3062.663 33218232 33302974 33386980 33471040 33556764 33645580 33738604 
3066.039 33836596 33939192 34045756 34155140 34265776 34375608 34482672 
3069.414 34584920 34680736 34769172 34850376 34924952 34994444 35059988 
3072.789 35122960 35184292 35244728 35304924 35365668 35428036 35492608 
3076.164 35559668 35629260 35700372 35772468 35844972 35917704 35990772 
3079.540 36065148 36140652 36217464 36294908 36372256 36448928 36524864 
3082.915 36600304 36676008 36752956 36831392 36911432 36993144 37076464 
3086.290 37161816 37250076 37342472 37439396 37541404 37647516 37756584 
3089.665 37867088 37977588 38087316 38195988 38303236 38409140 38513948 
3093.041 38617472 38720048 38822936 38926972 39033640 39144108 39258812 
3096.416 39377500 39499488 39623540 39748756 39874620 40000816 40127084 
3099.791 40253716 40380168 40506036 40631032 40754972 40878000 41000700 
3103.166 41123328 41246276 41369880 41494324 41619936 41747112 41876188 
3106.542 42007604 42141428 42276976 42413552 42550208 42686064 42820868 
3109.917 42954504 43087272 43219160 43349736 43478704 43605364 43729788 
3113.292 43852380 43974272 44096716 44220844 44347020 44475000 44604008 
3116.667 44733276 44862324 44991188 45120348 45250432 45381840 45514500 
3120.042 45648236 45782600 45917372 46052480 46187892 46323644 46459100 
3123.418 46593676 46726344 46856908 46985476 47113352 47241852 47372792 
3126.793 47507248 47645332 47786344 47928920 48071280 48212212 48351040 
3130.168 48487648 48622224 48755916 48889432 49023836 49160104 49299008 
3133.543 49440560 49584460 49729596 49874852 50019080 50161500 50302140 
3136.919 50441860 50581628 50722736 50865760 51010428 51156080 51301596 
3140.294 51446112 51588924 51730400 51870544 52009644 52148196 52285596 
3143.669 52421844 52556900 52691432 52826576 52963852 53104692 53250000 
3147.044 53400072 53554212 53710920 53868728 54025996 54181488 54334924 
3150.420 54486164 54635540 54783916 54931664 55079124 55226752 55374760 
3153.795 55522900 55671352 55819368 55966828 56112908 56257300 56399212 
3157.170 56538568 56675624 56810688 56944808 57078860 57213636 57349660 
3160.545 57487200 57626340 57767148 57909328 58052996 58197768 58343652 
3163.921 58490112 58636512 58781864 58925740 59067656 59207568 59345620 
3167.296 59481972 59616656 59749520 59879840 60007720 60133056 60256180 
3170.671 60377740 60498456 60618600 60738164 60856660 60973772 61089276 
3174.046 61203328 61316492 61429492 61543020 61656808 61770396 61883284 
3177.422 61994180 62102808 62208864 62312768 62414820 62516204 62617004 
3180.797 62718056 62820204 62923492 63027912 63133344 63238084 63341008 
3184.172 63440428 63535532 63626440 63714608 63801752 63889988 63980548 
3187.547 64073048 64166644 64259872 64350784 64438820 64524344 64608192 
3190.923 64691596 64775592 64860456 64945944 65031452 65116516 65200904 
3194.298 65284148 65365956 65445684 65522700 65596380 65666752 65734864 
3197.673 65802172 65870188 65939948 66011572 66084056 66156208 66226012 
3201.048 66292940 66356824 66418328 66478020 66536836 66595040 66652864 
3204.424 66710852 66770048 66831372 66895836 66963560 67033536 67103564 
3207.799 67170856 67233480 67290384 67342464 67391488 67439776 67488968 
3211.174 67539256 67589608 67638664 67685440 67729704 67772648 67816184 
3214.549 67862240 67912408 67966696 68023968 68083024 68142216 68199976 
3217.925 68255840 68309392 68360584 68409720 68457240 68503792 68550656 
3221.300 68599000 68649800 68703672 68760808 68820392 68881864 68944456 
3224.675 69008032 69072432 69137976 69204760 69272424 69340672 69408776 
3228.050 69475728 69540896 69603632 69663136 69719192 69771952 69822192 
3231.426 69872120 69923648 69979576 70041752 70110784 70185280 70263104 
3234.801 70341216 70416992 70489872 70559912 70628552 70697568 70767912 
3238.176 70839552 70911960 70984048 71055656 71127152 71199368 71273352 
3241.551 71348984 71425528 71501032 71574120 71643632 71710232 71776008 
3244.927 71843680 71915384 71992648 72075144 72161592 72250408 72340344 
3248.302 72430488 72521248 72612880 72705480 72798280 72890248 72980080 
3251.677 73066560 73149560 73229408 73307584 73385216 73463264 73542224 
3255.052 73622104 73702416 73782328 73861264 73938368 74013256 74085320 
3258.427 74154488 74220840 74284912 74347080 74408024 74468000 74527280 
3261.803 74585464 74642088 74696264 74746912 74793480 74835200 74871936 
3265.178 74903864 74931896 74957136 74981392 75005688 75031720 75059248 
3268.553 75088472 75118328 75147992 75176632 75204016 75229464 75253344 
3271.928 75275096 75294480 75311384 75325888 75338696 75351152 75364392 
3275.304 75379336 75396512 75415552 75435616 75456232 75477128 75498536 
3278.679 75521400 75546640 75574160 75604128 75635560 75667824 75700952 
3282.054 75735624 75773024 75814840 75861872 75914000 75970192 76028976 
3285.429 76088736 76148512 76207984 76267768 76328672 76391328 76456552 
3288.805 76524880 76597128 76674368 76758224 76850040 76950904 77061232 
3292.180 77180784 77308720 77444144 77586056 77733688 77886088 78042464 
3295.555 78201792 78363056 78526192 78691776 78861032 79036088 79218688 
3298.930 79409120 79607088 79811064 80018528 80228080 80438856 80651448 
3302.306 80867464 81088568 81316704 81552552 81796648 82048688 82308200 
3305.681 82574728 82847792 83126880 83411848 83702392 83998800 84301848 
3309.056 84612064 84930320 85256400 85588816 85925800 86264744 86603392 
3312.431 86941368 87279368 87619256 87962728 88311840 88666680 89026680 
3315.807 89390440 89756792 90125048 90495080 90866856 91240176 91614512 
3319.182 91988560 92361008 92731392 93099384 93465344 93829392 94191112 
3322.557 94549344 94902600 95249656 95590552 95926216 96258344 96588192 
3325.932 96916264 97240904 97559176 97867984 98164872 98448416 98718744 
3329.308 98976688 99223160 99458104 99680552 99888808 100081680 100258200 
3332.683 100417584 100559568 100683096 100786136 100867456 100925360 
3335.576 100959800 100972336 100965824 100943040 100905920 100854592 
3338.469 100787592 100702480 100596624 100467896 100315760 100139768 
3341.362 99939856 99715824 99467072 99192936 98893424 98569016 98220488 
3344.737 97848680 97453792 97035072 96591712 96123464 95630936 95116736 
3348.113 94584768 94038976 93483296 92920088 92350520 91774848 91193008 
3351.488 90605400 90013128 89417800 88820800 88223448 87626552 87030800 
3354.863 86436984 85846816 85262008 84684544 84116416 83559024 83013344 
3358.238 82480360 81960720 81455288 80964864 80489504 80028488 79580728 
3361.614 79144416 78717984 78300384 77891680 77491624 77101048 76720464 
3364.989 76349608 75989144 75639544 75301656 74976944 74666672 74370904 
3368.364 74088464 73817200 73553752 73295264 73039232 72784488 72530136 
3371.739 72276048 72020776 71762720 71500208 71231264 70954912 70671480 
3375.115 70381344 70084928 69781792 69470128 69147296 68810648 68458328 
3378.490 68089848 67706312 67309264 66900356 66480488 66048756 65603620 
3381.865 65143540 64666756 64172252 63660620 63132772 62590524 62036336 
3385.240 61473044 60903164 60329576 59754504 59179692 58606328 58034512 
3388.615 57464468 56895892 56328888 55764208 55203004 54646812 54097260 
3391.991 53556348 53025916 52506716 51999152 51502292 51013784 50530592 
3395.366 50049276 49567264 49083192 48597620 48112740 47631096 47155568 
3398.741 46686752 46224308 45766252 45310852 44856296 44402912 43951616 
3402.116 43504268 43062428 42626520 42195868 41768852 41343676 40919140 
3405.492 40494872 40071668 39650036 39230956 38814676 38401140 37990496 
3408.867 37583312 37180260 36782704 36392032 36008880 35633324 35264888 
3412.242 34902616 34545996 34195040 33849276 33509300 33175170 32846406 
3415.617 32522854 32204110 31889882 31580084 31275488 30975808 30681346 
3418.993 30392202 30108186 29829182 29555888 29288760 29028632 28775490 
3422.368 28528868 28287298 28049116 27812338 27575580 27338458 27101254 
3425.743 26864674 26629736 26397426 26168338 25943272 25722474 25506214 
3429.118 25294804 25087392 24883236 24681108 24479738 24278216 24077034 
3432.494 23877204 23680302 23488452 23302668 23123220 22949048 22779032 
3435.869 22611456 22445062 22279290 22113756 21948388 21783012 21616412 
3439.244 21447894 21276132 21100822 20922558 20743080 20564754 20390702 
3442.619 20223354 20063942 19912294 19766590 19624092 19481328 19335838 
3445.995 19186174 19033514 18880354 18730362 18586854 18452070 18325210 
3449.370 18203636 18083792 17961146 17833150 17698844 17559574 17417866 
3452.745 17277170 17139656 17006596 16877540 16751826 16627628 16504845 
3456.120 16383573 16264195 16147360 16033065 15920622 15808517 15695481 
3459.496 15580377 15462833 15343431 15223068 15102979 14984911 14869586 
3462.871 14758061 14650950 14547945 14448834 14353444 14260678 14170122 
3466.246 14081126 13993071 13905377 13818110 13730691 13642913 13554981 
3469.621 13466964 13379684 13294641 13212416 13133554 13058154 12984543 
3472.997 12910978 12835856 12757881 12677155 12595047 12513569 12435106 
3476.372 12361259 12292811 12228939 12168655 12109845 12051179 11991907 
3479.747 11931452 11870324 11809546 11750613 11695025 11644413 11599864 
3483.122 11561682 11528915 11499756 11471961 11443384 11412598 11379161 
3486.498 11343992 11308452 11273697 11240781 11210044 11181621 11155646 
3489.873 11133278 11115771 11105063 11102242 11107340 11119001 11135012 
3493.248 11152723 11170537 11188013 11206066 11226671 11251731 11282539 
3496.623 11319777 11362835 11411407 11464884 11523130 11586286 11654248 
3499.999 11726273 11801374 11878054 11956076 12035850 12119692 12210809 
3503.374 12312853 12428184 12558416 12702675 12858483 13022474 13191069 
3506.749 13360925 13529822 13696972 13862340 14028044 14196825 14371425 
3510.124 14554935 14749079 14954114 15168441 15389671 15614310 15839411 
3513.500 16062805 16283184 16499681 16712224 16920324 17123526 17321478 
3516.875 17514002 17700984 17882626 18058058 18225060 18380892 18520840 
3520.250 18640114 18735032 18802740 18842912 18856614 18845888 18813154 
3523.625 18760460 18688816 18598334 18488718 18358494 18206990 18033154 
3527.000 17837502 17620750 17385896 17136658 16876782 16609831 16338915 
3530.376 16064970 15788965 15510801 15230309 14947495 14662363 14374370 
3533.751 14082461 13785138 13481593 13171873 12858177 12544126 12234903 
3537.126 11934755 11646931 11371780 11108735 10854579 10607431 10365479 
3540.501 10128275 9896250 9670245 9450317 9236120 9026458 8820010 8615146 
3544.359 8411224 8208005 8006029 7806710 7611867 7423784 7244812 7077095 
3548.216 6921158 6775643 6637276 6501105 6362186 6217194 6064624 5906900 
3552.074 5749134 5596794 5455614 5328434 5214839 5112370 5017232 4925333 
3555.931 4834056 4742162 4649081 4555050 4460034 4363902 4266285 4167552 
3559.789 4068373 3969987 3874531 3783575 3698285 3619026 3544926 3474012 
3563.646 3403844 3330582 3250456 3160565 3059380 2947644 2829500 2711888 
3567.503 2602708 2509152 2434742 2379067 2338523 2307177 2279064 2249520 
3571.361 2215250 2175287 2129635 2079892 2027159 1973301 1919682 1867401 
3575.218 1817588 1770709 1726330 1683352 1640013 1594217 1544602 1490970 
3579.076 1433787 1375116 1317484 1262749 1212807 1168784 1130612 1098356 
3582.933 1071616 1049163 1029036 1008477 983670 950628 905901 848430 779747 
3587.273 705333 632359 569085 521345 491589 477956 476397 480411 483263 
3591.612 479581 465418 438253 398686 349174 293865 237171 183634 136169 
3595.952 96994 66405 43474 27170 15639 7388 960 -4671 -10238 -16036 -21801 
3601.256 -27500 -32602 -37274 -41514 -46484 -52911 -62188 -75737 -94620 
3605.595 -119994 -152489 -191770 -237108 -285124 -331843 -372498 -402756 
3609.453 -420598 -427516 -428311 -428708 -435130 -451945 -479284 -514399 
3613.310 -550669 -581312 -601231 -609338 -607981 -602985 -600900 -607055 
3617.168 -624789 -654004 -692016 -733398 -772726 -805139 -827495 -839864 
3621.025 -843700 -841517 -836755 -831530 -826900 -822502 -816383 -806230 
3624.883 -790653 -770345 -749209 -734325 -734953 -759827 -813242 -891053 
3628.740 -980058 -1061310 -1117200 -1138945 -1129527 -1098956 -1059724 
3632.115 -1022537 -994703 -978471 -972388 -971661 -972025 -969843 -964255 
3635.973 -956056 -947229 -939327 -933310 -929177 -927127 -926466 -928119 
3639.830 -932648 -940881 -952750 -967363 -982604 -995662 -1004984 -1008753 
3643.688 -1007364 -1002075 -995430 -989943 -988918 -994439 -1008389 -1032156 
3647.545 -1065442 -1106921 -1154477 -1204209 -1250267 -1287071 -1308313 
3650.920 -1309667 -1290209 -1252250 -1201764 -1146216 -1094726 -1055063 
3654.295 -1033214 -1032156 -1049642 -1079555 -1112044 -1137491 -1150049 
3657.671 -1148231 -1134748 -1115448 -1096015 -1080745 -1071953 -1070830 
3661.046 -1076548 -1087719 -1102327 -1118026 -1131972 -1141093 -1142614 
3664.421 -1134087 -1115018 -1086265 -1051295 -1014934 -983166 -962669 
3667.796 -959462 -976752 -1014372 -1066599 -1121265 -1162276 -1175758 
3671.172 -1153354 -1096643 -1014901 -923258 -838772 -777125 -750036 -762539 
3675.029 -809372 -875247 -940749 -992323 -1024917 -1043296 -1056055 -1070763 
3678.886 -1090760 -1114787 -1138218 -1156295 -1165481 -1165944 -1159698 
3682.262 -1149818 -1138053 -1124074 -1105665 -1081836 -1052320 -1021512 
3685.637 -995992 -984058 -993083 -1027066 -1084447 -1156790 -1232195 
3689.012 -1298006 -1345111 -1370677 -1376292 -1366581 -1346565 -1320601 
3692.387 -1292125 -1264408 -1239463 -1219474 -1205134 -1196510 -1191388 
3695.763 -1187985 -1183028 -1174866 -1163301 -1149619 -1136929 -1128403 
3699.138 -1127577 -1135905 -1154015 -1179922 -1209727 -1238208 -1259749 
3702.513 -1269495 -1265432 -1247525 -1217789 -1180715 -1140598 -1101501 
3705.888 -1066334 -1037049 -1014108 -997480 -987100 -983496 -988025 -1002439 
3709.746 -1027793 -1064417 -1110325 -1160921 -1209760 -1249772 -1275376 
3713.121 -1283239 -1273625 -1249276 -1215311 -1177212 -1139771 -1107648 
3716.496 -1082794 -1066268 -1057179 -1054204 -1055526 -1060286 -1068285 
3719.872 -1079588 -1094230 -1111581 -1129428 -1145191 -1156592 -1162639 
3723.247 -1163862 -1162904 -1162904 -1166109 -1173082 -1181574 -1187786 
3726.622 -1186630 -1174470 -1149785 -1114523 -1073606 -1032388 -997116 
3729.997 -972653 -961280 -962569 -973578 -989678 -1006273 -1021182 -1035032 
3733.855 -1051361 -1074399 -1106029 -1144729 -1184317 -1215773 -1230675 
3737.230 -1225256 -1199979 -1159071 -1108574 -1052915 -994835 -935789 
3740.605 -876603 -820319 -772892 -743950 -745240 -786485 -869262 -980785 
3744.463 -1095354 -1180649 -1215575 -1197699 -1140796 -1065045 -991166 
3747.838 -935393 -906098 -905371 -927292 -961577 -997678 -1027231 -1046337 
3751.695 -1053741 -1049246 -1031528 -1000687 -957412 -904742 -848958 -796871 
3755.553 -754535 -726419 -714444 -717157 -731579 -754072 -780962 -809074 
3759.410 -835300 -855936 -866319 -862946 -844659 -814068 -777125 -741569 
3763.268 -715205 -703065 -705711 -718778 -735317 -747258 -749838 -742759 
3767.125 -730355 -718513 -713386 -718248 -732638 -753443 -775207 -793034 
3770.982 -804345 -808744 -807520 -802592 -795945 -787974 -778713 -767401 
3774.840 -753443 -736871 -718811 -701344 -687880 -681496 -685168 -699856 
3778.697 -724004 -753145 -781425 -802956 -814168 -814598 -807520 -797267 
3782.555 -788701 -785030 -786982 -793001 -800575 -806627 -809471 -808909 
3786.412 -806164 -802460 -799153 -796507 -794589 -793596 -793861 -796308 
3790.270 -801402 -808810 -817078 -824056 -827495 -826206 -821146 -814796 
3794.127 -810397 -810563 -815920 -823990 -830472 -829281 -816648 -792174 
3797.984 -759959 -727246 -704189 -700782 -723905 -775472 -849057 -930367 
3801.842 -1000158 -1041742 -1047494 -1019992 -970735 -914067 -865757 -838210 
3805.699 -837119 -860730 -898923 -936384 -958437 -957180 -933177 -893533 
3809.557 -847569 -802824 -763598 -730256 -699922 -670380 -641200 -615657 
3813.414 -599775 -600867 -624194 -669156 -728635 -788073 -831067 -847040 
3817.271 -833415 -797697 -752782 -714378 -695258 -704355 -742561 -802195 
3821.129 -867509 -919489 -944286 -937079 -902791 -852199 -798094 -751492 
3824.986 -718579 -701510 -697441 -700154 -702899 -700981 -693537 -683050 
3828.844 -674052 -670744 -675111 -686723 -701609 -714345 -719869 -714808 
3832.701 -698367 -673192 -643053 -612746 -587433 -570987 -567050 -577539 
3836.559 -602224 -638354 -681297 -724136 -760125 -785394 -798160 -800112 
3840.416 -794787 -786287 -777688 -771734 -769055 -769287 -770940 -771635 
3844.273 -769220 -761481 -746894 -724963 -696812 -664293 -629752 -595606 
3848.131 -563211 -532766 -504272 -478456 -457373 -446715 -454990 -491662 
3851.988 -565031 -675938 -813209 -952552 -1066169 -1132964 -1147405 -1117728 
3855.846 -1058732 -985348 -908512 -834573 -766674 -705645 -651489 -604209 
3859.703 -564502 -532733 -509071 -493416 -485407 -484844 -492523 -508872 
3863.561 -533858 -565097 -597294 -623036 -635774 -631671 -612646 -585712 
3867.418 -561788 -550769 -560531 -592066 -638751 -686888 -721821 -733663 
3871.275 -721655 -692876 -657742 -626774 -606657 -598419 -598220 -599014 
3875.133 -594150 -579194 -554938 -525022 -495965 -473955 -464721 -470645 
3878.990 -491662 -523301 -557586 -585448 -598584 -592396 -567579 -530086 
3882.848 -489213 -455552 -438704 -443934 -471142 -512512 -555004 -585448 
3886.705 -593885 -578565 -544812 -502352 -461874 -431820 -418115 -421161 
3890.563 -437877 -461576 -484613 -501988 -510725 -511520 -506092 -496461 
3894.420 -483553 -467600 -448469 -426589 -403285 -381271 -363560 -353131 
3898.277 -352204 -360448 -375643 -394745 -414342 -432448 -449098 -466012 
3902.135 -485341 -508607 -535347 -562847 -586904 -603150 -607981 -600966 
3905.992 -583065 -557056 -526412 -494144 -462437 -433011 -406596 -383886 
3909.850 -365248 -350681 -339756 -331147 -323499 -314824 -304328 -292475 
3913.707 -280091 -270057 -265157 -267210 -277144 -294064 -315222 -337206 
3917.564 -356707 -371671 -380675 -384383 -382993 -377762 -369353 -358693 
3921.422 -346741 -335418 -325784 -319526 -316977 -318036 -320817 -323301 
3925.279 -323301 -319427 -311745 -301348 -290124 -280289 -273336 -270124 
3929.137 -271084 -275587 -282740 -291779 -301481 -310421 -317308 -320751 
3932.994 -319824 -314659 -305653 -294494 -282673 -271912 -262805 -255454 
3936.852 -249328 -242837 -235750 -227736 -219556 -212767 -209058 -209323 
3940.709 -214324 -223431 -235088 -247242 -257739 -264726 -267375 -265819 
3944.566 -260852 -253964 -247440 -242738 -241347 -243831 -249692 -257077 
3948.424 -264362 -268667 -268004 -261282 -248798 -231611 -211939 -191671 
3952.281 -172792 -156993 -144837 -136225 -131422 -129733 -130031 -131754 
3956.139 -133642 -134702 -134006 -130925 -125327 -117510 -108798 -99755 
3959.996 -91407 -84549 -78884 -74644 -71530 -68681 -66263 -64242 -62486 
3964.336 -61359 -61227 -61757 -63115 -65434 -68283 -71132 -73816 -75174 
3968.675 -74379 -70602 -63314 -52448 -38930 -23822 -8681 4937 16368 25083 
3973.497 31246 36217 40491 44700 49306 54177 58750 62561 65875 68460 70879 
3978.801 73464 75949 78004 79065 78501 75817 71343 65444 58883 53117 48444 
3984.105 45396 43871 43407 43805 44898 46655 49074 52388 56994 62859 70183 
3989.409 78634 88012 98154 108461 118271 126855 133583 137461 138058 135473 
3994.231 129540 121188 111278 100838 91095 83141 77341 74127 73066 73364 
3999.052 73862 73729 72205 69255 
##END=
