
##TITLE=Z295_3_c
##JCAMP-DX=5.01  $$ Nicolet v. 1
##DATATYPE=INFRARED SPECTRUM
##ORIGIN=UniL
##OWNER=Nicolet
##LONGDATE=2011/09/09
##TIME=15:28:15
##SPECTROMETER/DATA SYSTEM=Nicolet iS5
##DATA PROCESSING=
Ratio against background
%Transmittance->Absorbance
Truncated
ElementMultiply or ElementDivide
##COMMENTS=
Number of sample scans: 32
Collection length: 51.19 sec
Sample gain: 2.0
Background collected on: Ven Sep 09 15:21:08 2011 (GMT+02:00);
Number of background scans: 32
Background gain: 2.0
Sample spacing:  1.000
Number of scan points: 12415
Resolution points: 8192
Number of FFT points: 65536
Apodization: N-B fort;
Phase correction: Mertz;
Laser frequency: 15798.0 cm-1
Number of rejected sample scans: 0
Number of rejected background scans: 0
Bench serial number: ASB1000141;
##RESOLUTION=4.000
##XUNITS=1/CM
##YUNITS=ABSORBANCE
##FIRSTX=649.893372
##LASTX=4000.122314
##FIRSTY=0.108276
##MAXX=4000.122314
##MINX=649.893372
##MAXY=0.294570
##MINY=-0.001531
##XFACTOR=1.000000
##YFACTOR=1.000000E-009
##NPOINTS=6950
##DELTAX=0.482117
##ZPD=6100
##XYDATA=(X++(Y..Y))
649.893 108275640 107240592 106246640 105316736 104453336 103651456 
652.786 102908336 102234736 101652944 101188112 100853456 100645120 
655.679 100539144 100504064 100514512 100559824 100645576 100784544 
658.571 100982968 101231952 101508256 101783696 102042024 102288240 
661.464 102549096 102860336 103254368 103741952 104309568 104923864 
664.357 105546808 106145976 106695272 107174136 107560688 107829232 
667.250 107965424 107986968 107957904 107959392 108051848 108245960 
670.142 108508896 108782720 109005904 109133648 109144720 109048536 
673.035 108878296 108676280 108472016 108270704 108056016 107801296 
675.928 107487984 107114632 106696376 106255616 105809640 105359520 
678.820 104894456 104397832 103859312 103280136 102672640 102050288 
681.713 101421032 100783128 100128496 99450152 98750736 98042064 97341840 
685.088 96663240 96008000 95365440 94720536 94063040 93396976 92741688 
688.463 92124008 91568936 91086904 90671000 90301680 89958464 89628808 
691.838 89314696 89029776 88792544 88617224 88508296 88462104 88472136 
695.212 88537424 88665008 88869752 89166936 89566904 90069312 90665616 
698.587 91341736 92086160 92893456 93763272 94695440 95684952 96716600 
701.962 97768288 98816160 99840432 100832104 101790808 102720160 103619912 
705.337 104483216 105295792 106044408 106722256 107333320 107890704 
708.229 108411032 108905112 109374784 109815728 110224464 110606640 
711.122 110982528 111381480 111832448 112352464 112935880 113553728 
714.015 114158760 114702496 115144736 115463152 115656280 115737976 
716.908 115734000 115674656 115599072 115555272 115597128 115787072 
719.800 116182888 116822240 117713528 118821432 120070760 121343944 
722.693 122506760 123429824 124002976 124167264 123923456 123338224 
725.586 122525384 121628304 120791048 120116592 119661440 119427968 
728.478 119379456 119458408 119610992 119802920 120020304 120265040 
731.371 120542008 120850440 121180808 121518496 121851568 122177040 
734.264 122500784 122833432 123181864 123544000 123909096 124264120 
737.156 124600816 124921856 125239480 125569808 125924112 126302552 
740.049 126694368 127083016 127457272 127814416 128162680 128514216 
742.942 128877624 129251016 129624072 129980848 130310904 130614416 
745.835 130902368 131189424 131486448 131793336 132099256 132388872 
748.727 132650424 132883520 133098824 133313120 133539680 133782176 
751.620 134033024 134279008 134508480 134717856 134912864 135104272 
754.513 135300304 135501648 135701328 135889264 136059424 136213776 
757.405 136362384 136517360 136687312 136871904 137063392 137251600 
760.298 137431712 137607536 137790496 137992608 138219792 138467392 
763.191 138723200 138974176 139216720 139462736 139741056 140091072 
766.083 140549744 141145280 141885376 142753152 143702832 144662432 
768.976 145541424 146234176 146647648 146724992 146466736 145944464 
771.869 145292128 144682016 144261312 144116112 144233200 144503968 
774.762 144744720 144751280 144369968 143522016 142224320 140559872 
777.654 138641616 136563360 134369120 132054072 129577888 126893672 
780.547 123968504 120801816 117424080 113893632 110280456 106659480 
783.440 103106712 99686512 96453376 93448704 90695664 88203440 85968168 
786.815 83979536 82223512 80687480 79361784 78238056 77307936 76563528 
790.189 75996168 75599240 75371768 75319112 75452768 75787816 76338280 
793.564 77112120 78106720 79305864 80680536 82187912 83770096 85362944 
796.939 86894424 88292752 89503544 90498224 91290016 91935128 92534128 
800.314 93211856 94082016 95229064 96666960 98325648 100034544 101547064 
803.689 102586784 102874152 102213224 100531664 97906048 94546344 90751928 
807.063 86854840 83118048 79705800 76657920 73906712 71319264 68752112 
810.438 66108868 63357264 60536316 57727824 55033952 52541904 50303856 
813.813 48340556 46642704 45185240 43936364 42866068 41948696 41160444 
817.188 40480868 39892964 39383268 38943680 38570396 38262060 38016500 
820.563 37829132 37693156 37602208 37552748 37546644 37590284 37693412 
823.938 37865248 38110356 38429124 38816812 39265304 39763352 40297484 
827.312 40851096 41402976 41930120 42411796 42834176 43198412 43523532 
830.687 43849120 44227956 44722988 45399788 46310924 47490208 48936340 
834.062 50604968 52395000 54148004 55674856 56757936 57203276 56885696 
837.437 55768052 53921996 51505572 48744356 45871120 43087748 40552484 
840.812 38353076 36519816 35039228 33872776 32971610 32285300 31770974 
844.186 31390588 31111296 30908488 30763354 30665238 30609948 30597256 
847.561 30626696 30695642 30798246 30926634 31073852 31235254 31409648 
850.936 31598184 31802598 32023798 32261852 32517354 32792982 33094350 
854.311 33429456 33805972 34229884 34703700 35227300 35800640 36426156 
857.686 37110708 37866656 38710340 39659148 40733356 41954240 43344684 
861.060 44930776 46735124 48769672 51024256 53455792 55983940 58484580 
864.435 60813508 62821008 64371072 65377200 65810652 65712236 65182500 
867.810 64375452 63478232 62670940 62125516 61980424 62325312 63211104 
871.185 64645028 66597276 68999800 71749512 74712992 77711264 80539800 
874.560 82983136 84820832 85877424 86043536 85291568 83683064 81353944 
877.935 78496696 75313240 72003568 68740624 65644512 62791108 60209132 
881.309 57890588 55804256 53912168 52183468 50599644 49159656 47874680 
884.684 46762872 45839672 45112740 44580032 44231920 44055752 44040092 
888.059 44179280 44473056 44924232 45535548 46307348 47236200 48317668 
891.434 49548804 50931624 52473660 54188992 56095072 58209324 60547592 
894.809 63118824 65919356 68923056 72071344 75266936 78357496 81152704 
898.183 83444168 85019616 85718320 85453496 84229552 82140432 79355504 
901.558 76097304 72590440 69054760 65679588 62598444 59904216 57644464 
904.933 55829692 54446988 53467784 52859280 52587340 52623580 52947792 
908.308 53546304 54412924 55546512 56949116 58623544 60569684 62780000 
911.683 65234596 67894984 70697096 73558856 76379832 79052344 81486672 
915.058 83617264 85419208 86910848 88152904 89237168 90263544 91332296 
918.432 92515264 93838240 95269744 96715808 98034128 99040320 99556192 
921.807 99446240 98647968 97205048 95270368 93105504 91022376 89361256 
925.182 88442856 88494440 89635776 91840224 94942304 98633128 102499384 
928.557 106109296 109023792 110887224 111480280 110711976 108626368 
931.450 105360184 101118856 96131528 90627568 84844032 78997024 73283496 
934.824 67885368 62942760 58560864 54808988 51715916 49284568 47498228 
938.199 46330240 45745896 45699180 46130152 46948928 48032864 49239328 
941.574 50399848 51351188 51963188 52143492 51861396 51144264 50072476 
944.949 48757400 47320804 45883348 44538472 43350948 42356600 41563852 
948.324 40962832 40532044 40246700 40080716 40008628 40007828 40055896 
951.698 40131700 40217800 40300576 40372748 40433584 40488144 40544560 
955.073 40611276 40696164 40804360 40938872 41101912 41294664 41517768 
958.448 41770680 42051256 42355648 42678788 43016696 43366576 43728580 
961.823 44104384 44496768 44907664 45337444 45785472 46250692 46732872 
965.198 47233284 47754312 48297892 48864884 49454744 50065744 50696708 
968.573 51348728 52024324 52728024 53464076 54235356 55042868 55886892 
971.947 56768320 57690364 58658736 59680592 60762860 61909916 63123116 
975.322 64401700 65745228 67154888 68635288 70192608 71834768 73569144 
978.697 75402584 77344360 79408168 81613648 83988904 86564848 89373104 
982.072 92441512 95788344 99420536 103329096 107487344 111840976 116297720 
985.447 120730888 124963128 128778848 131959560 134287680 135593104 
988.339 135782672 134846144 132865400 129994704 126459104 122513264 
991.232 118412896 114411544 110714800 107476432 104801280 102736192 
994.125 101287096 100430408 100127752 100336216 101014776 102130424 
997.017 103653936 105558000 107818704 110409472 113302384 116467528 
999.910 119863128 123429960 127088128 130721720 134190008 137341600 
1002.803 140018656 142092864 143480368 144151632 144139440 143534608 
1005.695 142483456 141158432 139753264 138465616 137461488 136880032 
1008.588 136819776 137333552 138441680 140139056 142408080 145225200 
1011.481 148566832 152411648 156734960 161509920 166708896 172301152 
1014.374 178257680 184545168 191109184 197861136 204656256 211268672 
1017.266 217418432 222780064 227023248 229895360 231253664 231116112 
1020.159 229659072 227219008 224249856 221227984 218648320 216937440 
1023.052 216398000 217224192 219473856 223092448 227927792 233768384 
1025.945 240377360 247485344 254830960 262155952 269190112 275685056 
1028.838 281414624 286192512 289905088 292511008 294040288 294569856 
1031.731 294209184 293078528 291288128 288944800 286140320 282941120 
1034.624 279388128 275486240 271211136 266518112 261366160 255739808 
1037.517 249662208 243198000 236443680 229519536 222545232 215635328 
1040.410 208898336 202421552 196273952 190496944 185092624 180023136 
1043.303 175211168 170562496 165977696 161381552 156745088 152090752 
1046.196 147492752 143056400 138912128 135187248 131988616 129403696 
1049.089 127486200 126257656 125711616 125816968 126524864 127771512 
1051.982 129492072 131621600 134096328 136858688 139845248 142977744 
1054.875 146163184 149280160 152183552 154726624 156759248 158153152 
1057.768 158821264 158718864 157857856 156305184 154190160 151690192 
1060.661 149010864 146386800 144038704 142157920 140906192 140390720 
1063.554 140672352 141767328 143650704 146257872 149481968 153188400 
1066.448 157203056 161323664 165352192 169090400 172369152 175068480 
1069.341 177106864 178444112 179070560 178996544 178245632 176850832 
1072.234 174855632 172310368 169271888 165808464 161998336 157935776 
1075.127 153743664 149560400 145544944 141868560 138685344 136133488 
1078.020 134320592 133308936 133119224 133721816 135040176 136938976 
1080.913 139227936 141684816 144043920 146044256 147472464 148179248 
1083.806 148123792 147375552 146111280 144573344 143034256 141777568 
1086.699 141039488 141003680 141789936 143437904 145912608 149100480 
1089.592 152832704 156880304 160977504 164869248 168306704 171084688 
1092.485 173062288 174151472 174323184 173598080 172039952 169744240 
1095.378 166823424 163406800 159618832 155573440 151378192 147123712 
1098.271 142889104 138745040 134742928 130914856 127267272 123780504 
1101.164 120413008 117112512 113834928 110554840 107278984 104046168 
1104.057 100926560 98009760 95386208 93147336 91369384 90107720 89401840 
1107.433 89270864 89717112 90726944 92273552 94317736 96805032 99673176 
1110.808 102846440 106231912 109726784 113206528 116526320 119541344 
1113.701 122102816 124080304 125383880 125963032 125816256 124982432 
1116.594 123536960 121578464 119212784 116554832 113709376 110762560 
1119.487 107784432 104819920 101894320 99021632 96210704 93473560 90830384 
1122.862 88307576 85936784 83751008 81777568 80039408 78554856 77338136 
1126.238 76403696 75767184 75443544 75447368 75787616 76465128 77469048 
1129.613 78775656 80348864 82135112 84067112 86065472 88034432 89878752 
1132.988 91511544 92865056 93909264 94655888 95161000 95509336 95806936 
1136.363 96162280 96661408 97363560 98287048 99408040 100659616 101939488 
1139.739 103129912 104097032 104716600 104890752 104545976 103645224 
1142.632 102183000 100180320 97678568 94735168 91425200 87831416 84044592 
1146.007 80161608 76269864 72450072 68771832 65285884 62031176 59033452 
1149.382 56305768 53853012 51672436 49755976 48091488 46663952 45458100 
1152.757 44458044 43649912 43022948 42568408 42280624 42155700 42190720 
1156.133 42384144 42735052 43244416 43914880 44750868 45757636 46940108 
1159.508 48301896 49844232 51566124 53462124 55521844 57727940 60051132 
1162.883 62448908 64868264 67241024 69492560 71550136 73339824 74798048 
1166.258 75873712 76527288 76737976 76503736 75843288 74792776 73402520 
1169.634 71733208 69844568 67795696 65642580 63432568 61210192 59015612 
1173.009 56881956 54839176 52911412 51115636 49464844 47967216 46627320 
1176.384 45448164 44431100 43576168 42882380 42347284 41967528 41739672 
1179.759 41661472 41733104 41957056 42338080 42881536 43591996 44471916 
1183.135 45521532 46738552 48117996 49650388 51318076 53094620 54937532 
1186.510 56789840 58586264 60250848 61710576 62903724 63780068 64311088 
1189.885 64489864 64332336 63874060 63167112 62278040 61274900 60226184 
1193.260 59197044 58240200 57400292 56711944 56197748 55872044 55739004 
1196.635 55793068 56017524 56384084 56855140 57379796 57898728 58349184 
1200.011 58661164 58768432 58614404 58153936 57366068 56255792 54858048 
1203.386 53230372 51447416 49594116 47747396 45974832 44329408 42844016 
1206.761 41537344 40414784 39472960 38701864 38087968 37616260 37270112 
1210.136 37033736 36894188 36841596 36870200 36978100 37165064 37431416 
1213.512 37776392 38197580 38690852 39251084 39871024 40542300 41252764 
1216.887 41986468 42725216 43448708 44137168 44774852 45349728 45853776 
1220.262 46282688 46634292 46908548 47108292 47241296 47320692 47364888 
1223.637 47398404 47447480 47537336 47691704 47928324 48258084 48684824 
1227.013 49204560 49804948 50465456 51160664 51861244 52537416 53165732 
1230.388 53728880 54219736 54640576 55003264 55328544 55643596 55985300 
1233.763 56396724 56923696 57616540 58521996 59679300 61121164 62869028 
1237.138 64935172 67324120 70033144 73051816 76358696 79921728 83694352 
1240.514 87614952 91616808 95625448 99564192 103362064 106946000 110244880 
1243.889 113194832 115736120 117821944 119421896 120520136 121114632 
1246.782 121212912 120830912 119992000 118726520 117074848 115080296 
1249.675 112785320 110226128 107426240 104398640 101152024 97698824 94065264 
1253.050 90298048 86459832 82631112 78900968 75350912 72057464 69079392 
1256.426 66451340 64186156 62270964 60671940 59332668 58183068 57147036 
1259.801 56142808 55098872 53959776 52687956 51270348 49714660 48047296 
1263.176 46305172 44532816 42777024 41078236 39471728 37983412 36628276 
1266.551 35412504 34333832 33383902 32550496 31820030 31180426 30621254 
1269.927 30134608 29714742 29356396 29054846 28805514 28604242 28448306 
1273.302 28336812 28270324 28250346 28278034 28353188 28473282 28632624 
1276.677 28821448 29026364 29229144 29406952 29537020 29596572 29568906 
1280.052 29446450 29231872 28936890 28578266 28175244 27744130 27296680 
1283.427 26842010 26386688 25938594 25508604 25109928 24757394 24466102 
1286.803 24247944 24112828 24068558 24121270 24278112 24546594 24933626 
1290.178 25445078 26083216 26845746 27723820 28700654 29751040 30836556 
1293.553 31908814 32912880 33788496 34484252 34964848 35216128 35249724 
1296.928 35098644 34813976 34451108 34066328 33710712 33423014 33232394 
1300.304 33156108 33198308 33349984 33587440 33877396 34175644 34436044 
1303.679 34618616 34690064 34630672 34434968 34109264 33670536 33142232 
1307.054 32554172 31937238 31321500 30735222 30199498 29728828 29331014 
1310.429 29007872 28758428 28581344 28476608 28445122 28487718 28603888 
1313.805 28790820 29044182 29360152 29736918 30175096 30677506 31247538 
1317.180 31887028 32595926 33372562 34215008 35122064 36093480 37127780 
1320.555 38219072 39353704 40509056 41651952 42739332 43725940 44565384 
1323.930 45217668 45659940 45889824 45932364 45836136 45674148 45528668 
1327.306 45474840 45575292 45863456 46341556 46983152 47742772 48569200 
1330.681 49412936 50238828 51027756 51775528 52490860 53191344 53901140 
1334.056 54645120 55447528 56327608 57294988 58347136 59468144 60631780 
1337.431 61801716 62937052 63997596 64942560 65735280 66347368 66758992 
1340.807 66963716 66968544 66792264 66461072 66004248 65451892 64829992 
1344.182 64160116 63459864 62740916 62011340 61275396 60534144 59785640 
1347.557 59025140 58246376 57442080 56606768 55739836 54847708 53946904 
1350.932 53062756 52232196 51499192 50910500 50516220 50360628 50477776 
1354.308 50886916 51584780 52541680 53697344 54971412 56266464 57477180 
1357.683 58512176 59293128 59765108 59903532 59712452 59226968 58506376 
1361.058 57638524 56728636 55883348 55208236 54781660 54640952 54779820 
1364.433 55149624 55672900 56249568 56777232 57157808 57302852 57153384 
1367.809 56685252 55917304 54904664 53731016 52491312 51266656 50123904 
1371.184 49107084 48238720 47531204 46992084 46629348 46452608 46468244 
1374.559 46673912 47054008 47581772 48226500 48958224 49756424 50610108 
1377.934 51516576 52479384 53506872 54612660 55814244 57133280 58589640 
1381.310 60190068 61915456 63708120 65475696 67087168 68392616 69251712 
1384.685 69535688 69156696 68085784 66375204 64168796 61680296 59169404 
1388.060 56863376 54912452 53382164 52258092 51478752 50960576 50623096 
1391.435 50392852 50204088 50001944 49735724 49361704 48852648 48201956 
1394.811 47428116 46565832 45654528 44722732 43782564 42834472 41878048 
1398.186 40922636 39995768 39138996 38395712 37799744 37363520 37079820 
1401.561 36928856 36888380 36939932 37071372 37277620 37556940 37907040 
1404.936 38323576 38798912 39323992 39891148 40495596 41135928 41813176 
1408.312 42528612 43281532 44068660 44883116 45716772 46561512 47410708 
1411.687 48259824 49105076 49942464 50767164 51574596 52362144 53131804 
1415.062 53890560 54649932 55423392 56224072 57063180 57948060 58882328 
1418.437 59862800 60876252 61898952 62897064 63832528 64668372 65374696 
1421.813 65933936 66340960 66608556 66767148 66864028 66950456 67070120 
1425.188 67250656 67498336 67806120 68161440 68555232 68982712 69442832 
1428.563 69935056 70457832 71010432 71596240 72226968 72921920 73700264 
1431.938 74577328 75556304 76629736 77781640 78997144 80269816 81601208 
1435.313 83001744 84482160 86047376 87686480 89377504 91095368 92814304 
1438.689 94506872 96134464 97646712 98970408 100015520 100695584 100927488 
1442.064 100648208 99822048 98436608 96508160 94080368 91231512 88065640 
1445.439 84697472 81253928 77851520 74593728 71575880 68871256 66524744 
1448.814 64544648 62904880 61558444 60456832 59571160 58899364 58462744 
1452.190 58286920 58383448 58730724 59274516 59924184 60565648 61079896 
1455.565 61346596 61285164 60891920 60265808 59572644 58971168 58566776 
1458.940 58392808 58440568 58686460 59105316 59673520 60361936 61135540 
1462.315 61944920 62726400 63414508 63947456 64288536 64439744 64444244 
1465.691 64368956 64276204 64211512 64192644 64214468 64255768 64284688 
1469.066 64262064 64135916 63845008 63323140 62511808 61389112 59996044 
1472.441 58448944 56903256 55506068 54350544 53461752 52821784 52397320 
1475.816 52162696 52105120 52220124 52500324 52926908 53467900 54085628 
1479.192 54741256 55405628 56064684 56719004 57382972 58078556 58832776 
1482.567 59672916 60627856 61733228 63029596 64561404 66367984 68469880 
1485.942 70851800 73446192 76138328 78754136 81074352 82869920 83906736 
1489.317 83998280 83054816 81109816 78327928 74953120 71255896 67457424 
1492.693 63697068 60053872 56551512 53194376 50001684 47015276 44306660 
1496.068 41962452 40054696 38617980 37641156 37083716 36890836 37010392 
1499.443 37401184 38027672 38855184 39849200 40968876 42169980 43408760 
1502.818 44630704 45772068 46753792 47460528 47745216 47439756 46398076 
1506.194 44581240 42120980 39298492 36413148 33669856 31144862 28826830 
1509.569 26675360 24659888 22769500 21016862 19424152 18007354 16771628 
1512.944 15707573 14796558 14017162 13348829 12773816 12273655 11830859 
1516.319 11431886 11069645 10746798 10472488 10255037 10094360 9978427 
1519.695 9883369 9783047 9658862 9512257 9366549 9255920 9205083 9216185 
1523.552 9271896 9345016 9412122 9459969 9490718 9518184 9560013 9627761 
1527.409 9721170 9831612 9948829 10067976 10192075 10329748 10488984 
1530.785 10671641 10871226 11074199 11265604 11437668 11594895 11754324 
1534.160 11934858 12148211 12392691 12656824 12923812 13178875 13413139 
1537.535 13621544 13802377 13954132 14071953 14148796 14179879 14169917 
1540.910 14133940 14090914 14055320 14028763 14001147 13954029 13872501 
1544.286 13750115 13595423 13427457 13269395 13136183 13029985 12940402 
1547.661 12851145 12748736 12628101 12496416 12368486 12260942 12182660 
1551.036 12131548 12096762 12065555 12029615 11988433 11949196 11923108 
1554.411 11919158 11939115 11977534 12022427 12059763 12072981 12043854 
1557.787 11954816 11796335 11579582 11340830 11128587 10977985 10897692 
1561.162 10875201 10887601 10910059 10918995 10898032 10840447 10750772 
1564.537 10643355 10536813 10446793 10378782 10327644 10280753 10224640 
1567.912 10149540 10052852 9939743 9821410 9710835 9617396 9547074 9501860 
1571.770 9481744 9484791 9506737 9539657 9570886 9585621 9570920 9521910 
1575.627 9447947 9370984 9317866 9306255 9337738 9401388 9481947 9566720 
1579.485 9648597 9727337 9805719 9887369 9973985 10064620 10157037 10249846 
1583.342 10343049 10438071 10534539 10628992 10713717 10779472 10817653 
1586.717 10825024 10805322 10769214 10731106 10705703 10706144 10741261 
1590.093 10817517 10939791 11111080 11331375 11593432 11882072 12172233 
1593.468 12432242 12632467 12748463 12768595 12694862 12542387 12334363 
1596.843 12095399 11850404 11619806 11420252 11266386 11169721 11138513 
1600.218 11176521 11283185 11454168 11683962 11968474 12305013 12690256 
1603.594 13118459 13577236 14047277 14505016 14923421 15276262 15542841 
1606.969 15706576 15758626 15697267 15527937 15261367 14912893 14502857 
1610.344 14054157 13591218 13139565 12719563 12344282 12018169 11737132 
1613.719 11491489 11268733 11057035 10847105 10635035 10424325 10226099 
1617.094 10056243 9929607 9855304 9834087 9859337 9919573 10000532 10089274 
1620.952 10175182 10253951 10328323 10407526 10502901 10622914 10770199 
1624.327 10941218 11129607 11330014 11541062 11763005 11996267 12239164 
1627.702 12485606 12727752 12958734 13176040 13382965 13586055 13792252 
1631.078 14004946 14222947 14439413 14644988 14829608 14983643 15099205 
1634.453 15171735 15200524 15190023 15150907 15097799 15043599 14996401 
1637.828 14957269 14921192 14879563 14822853 14744520 14643754 14526839 
1641.203 14404784 14290674 14193367 14114942 14049947 13986775 13912220 
1644.579 13813972 13684901 13525789 13346847 13164974 13000316 12870975 
1647.954 12788318 12755662 12769687 12821830 12898690 12980309 13041901 
1651.329 13050949 12974847 12797396 12540613 12268372 12051009 11926786 
1654.704 11888133 11904071 11940273 11972357 11987956 11983630 11962343 
1658.080 11929545 11889870 11844343 11790785 11724708 11641043 11536401 
1661.455 11410046 11264346 11105675 10943392 10787896 10649331 10534607 
1664.830 10445097 10377085 10321129 10265011 10193771 10094326 9958085 
1668.205 9784131 9580845 9363129 9149516 8954982 8787855 8649487 8535897 
1672.063 8439366 8349205 8253592 8138993 7993980 7814705 7608832 7396922 
1675.920 7203205 7047022 6933649 6855750 6797452 6742831 6681890 6612312 
1679.778 6540896 6477798 6431119 6400182 6373887 6331389 6248488 6107466 
1683.635 5909117 5679369 5461251 5292209 5185027 5130474 5107776 5097283 
1687.492 5084108 5060105 5022729 4972721 4912934 4847659 4782830 4725145 
1691.350 4680765 4653904 4643589 4643053 4639402 4617300 4562717 4470512 
1695.207 4350414 4227404 4130855 4078440 4068875 4083157 4095265 4077370 
1699.065 4009178 3886499 3728997 3574458 3458882 3399503 3389384 3409054 
1702.922 3436873 3455442 3454373 3429091 3381670 3319864 3254328 3193842 
1706.780 3143643 3104363 3073028 3045566 3018439 2990413 2962957 2939438 
1710.637 2923225 2917154 2921357 2933133 2947978 2961188 2969662 2972398 
1714.494 2970363 2964891 2955450 2939238 2911017 2867455 2810124 2747032 
1718.352 2691451 2655011 2643777 2656778 2687683 2727859 2769473 2807456 
1722.209 2839605 2866588 2890369 2913252 2936502 2960454 2985142 3010832 
1726.067 3037825 3065920 3094018 3118980 3137402 3146680 3146947 3141374 
1729.924 3135066 3132329 3132930 3130861 3113440 3064152 2968728 2823831 
1733.781 2644244 2460199 2307277 2207456 2161801 2156639 2172490 2192337 
1737.639 2203127 2198265 2177318 2144985 2108458 2075198 2050262 2035448 
1741.496 2030155 2032685 2041373 2054623 2071136 2089780 2109624 2129635 
1745.354 2149347 2167895 2184112 2196433 2203327 2203360 2195767 2180349 
1749.211 2157405 2126838 2088748 2043870 1994637 1945875 1903441 1872825 
1753.069 1857185 1855654 1863441 1872758 1874888 1862842 1833859 1790871 
1756.926 1741899 1696591 1661533 1638550 1624282 1612076 1594949 1568212 
1760.783 1530471 1484720 1436214 1391171 1354608 1329348 1315456 1311501 
1764.641 1314991 1322303 1328617 1330046 1323067 1307513 1286743 1266903 
1768.498 1254608 1253378 1261686 1273317 1279498 1271423 1245536 1204965 
1772.356 1159913 1122373 1100847 1096861 1105498 1119848 1133568 1143967 
1776.213 1151940 1160312 1171043 1184100 1196426 1203636 1202407 1192439 
1780.071 1176724 1161342 1151740 1150910 1157754 1167421 1174930 1175727 
1783.928 1167953 1152936 1134067 1115065 1099054 1088025 1083441 1086265 
1787.785 1096928 1115663 1140545 1167123 1189515 1200812 1195828 1172937 
1791.643 1135728 1091812 1050159 1017876 997252 987157 983570 982408 981112 
1795.982 978555 974072 967364 958099 944983 927848 907262 884352 861942 
1800.322 842221 826486 815199 807829 803813 803116 805838 812244 821971 
1804.662 833623 845342 854937 861444 865195 867221 869146 871271 873163 
1809.001 873429 870242 863071 853077 842454 833889 828976 827714 828411 
1813.341 828976 827780 824925 821938 821008 824328 832860 846106 862739 
1817.680 881364 901485 923299 947672 975201 1005289 1037140 1068527 1097592 
1822.020 1122838 1142937 1157189 1165328 1168219 1168053 1168717 1174797 
1825.877 1189815 1215166 1248294 1283652 1313329 1330080 1329947 1314094 
1829.735 1289235 1264843 1250554 1251285 1266637 1292093 1321937 1351650 
1833.592 1379072 1404900 1430729 1458289 1487978 1518800 1549191 1579319 
1837.450 1610646 1647230 1693165 1752245 1825740 1912493 2008617 2109291 
1841.307 2209688 2304945 2391494 2467197 2532514 2590642 2647010 2708321 
1845.165 2779077 2860417 2948845 3037691 3118980 3185631 3233063 3260337 
1849.022 3269685 3264009 3245949 3216339 3173815 3116844 3045166 2960621 
1852.879 2868122 2773708 2682116 2595875 2514584 2435741 2356779 2276832 
1856.737 2196433 2117881 2043471 1973633 1907435 1843342 1779758 1717016 
1860.594 1656909 1601600 1552716 1510022 1471820 1435782 1401177 1368701 
1864.452 1340848 1319976 1306948 1299105 1292060 1279731 1258629 1228922 
1868.309 1195363 1165495 1146525 1142272 1151574 1170279 1192506 1213737 
1872.167 1231846 1246035 1256602 1263547 1266305 1264178 1257433 1247530 
1876.024 1236398 1226397 1218455 1211245 1202407 1189383 1171076 1148950 
1879.881 1126393 1106727 1091912 1080850 1069922 1054112 1030563 999046 
1883.739 962981 927782 898696 878542 866490 859219 852048 841989 827249 
1888.078 808460 787846 767897 750305 736099 726541 722259 723819 731519 
1892.418 743501 757640 770851 780742 787049 791663 797472 807398 822535 
1896.758 840927 859751 875554 887141 895242 902514 910981 921340 931933 
1901.097 939039 939570 932796 920543 907328 897899 894910 898098 904805 
1905.437 910781 913405 912707 910881 910715 914401 921739 930704 939072 
1909.776 945414 950163 955542 963346 973574 984367 991573 991872 984400 
1914.116 970585 953815 937578 923133 908889 891789 868781 839200 806767 
1918.456 776560 753226 737825 727005 714825 695609 667235 631795 596291 
1922.795 568786 554520 554089 562914 574128 581162 582057 577844 572635 
1927.135 570445 572834 578839 586437 593438 599443 606345 615436 626983 
1931.474 638730 646263 645333 634217 614474 590485 567824 550174 537700 
1935.814 528677 520516 511260 502934 498920 501972 512421 526653 537833 
1940.154 539823 528975 506749 479183 455069 440243 437025 442863 452316 
1944.493 461039 467375 472814 480875 495105 515871 541847 571308 602695 
1948.833 636374 673474 714028 754919 790634 813639 818784 805738 779116 
1953.172 747517 719504 699824 686649 674934 655886 624030 578872 525492 
1957.512 470891 423162 385619 357331 334782 313760 291743 269728 249637 
1961.852 232630 218673 206242 192882 180584 172331 173690 189070 219999 
1966.191 262832 311173 357199 395170 422863 440574 449198 449430 439845 
1970.531 419480 388935 352855 317374 289953 275895 275431 285875 305238 
1974.870 334418 380810 455268 567492 718940 900156 1088524 1257067 1383626 
1979.210 1455463 1473382 1449379 1400811 1344172 1291794 1250953 1223539 
1983.067 1210182 1210514 1221778 1241582 1265341 1286244 1300634 1307114 
1986.925 1306682 1303924 1302761 1302993 1300867 1290066 1264644 1223406 
1990.782 1171940 1119251 1076931 1052385 1044878 1047934 1052053 1049661 
1994.640 1039763 1027973 1022426 1031394 1056968 1093905 1132838 1164598 
1998.497 1183004 1187688 1183070 1174398 1164000 1151209 1130479 1096296 
2002.354 1046805 984898 916592 852447 799962 764943 749342 752927 774071 
2006.694 811547 862274 920278 978223 1026578 1058762 1074074 1077230 1077197 
2011.034 1083109 1100083 1125895 1153103 1172704 1178086 1170412 1156624 
2014.891 1146824 1150544 1171541 1206660 1248161 1289700 1326490 1359228 
2018.749 1391969 1427039 1464572 1501344 1532033 1553281 1565386 1572036 
2022.606 1577956 1586469 1596179 1602199 1599638 1585937 1563124 1538617 
2026.463 1520329 1512914 1516904 1526514 1534028 1535691 1532732 1532233 
2030.321 1544436 1577856 1634392 1710496 1798257 1889630 1980623 2071402 
2034.178 2163899 2259745 2356946 2448736 2527615 2587709 2626642 2647511 
2038.036 2657945 2663446 2669047 2676614 2684383 2690717 2695618 2698719 
2041.893 2702086 2706521 2711055 2714489 2715256 2713289 2711555 2714856 
2045.750 2728393 2756768 2802620 2865854 2943741 3033087 3127323 3217441 
2049.608 3294089 3345908 3364573 3348579 3303304 3241609 3180858 3138170 
2053.465 3124153 3141073 3180223 3227322 3268383 3293021 3299264 3292420 
2057.323 3281503 3273591 3273591 3281135 3292887 3305975 3319130 3333086 
2061.180 3350115 3370985 3394794 3418304 3438977 3455208 3468802 3483431 
2065.038 3502503 3527355 3556618 3585382 3609103 3624639 3632023 3633928 
2068.895 3634663 3636267 3639107 3641479 3640042 3632424 3618926 3601319 
2072.752 3582275 3564603 3549202 3535974 3525217 3517869 3515898 3522244 
2076.610 3538446 3563366 3593601 3624138 3650033 3669280 3682613 3692103 
2080.467 3701359 3711886 3723182 3733442 3741095 3745540 3749149 3755499 
2084.325 3766963 3784143 3804699 3823652 3835953 3838661 3831106 3816097 
2088.182 3797579 3778060 3758541 3738087 3714860 3687124 3655446 3621799 
2092.040 3589091 3560560 3537343 3520006 3508883 3504374 3506779 3517468 
2095.897 3535239 3557487 3580237 3598612 3609671 3613814 3614716 3617757 
2099.754 3628849 3650969 3683147 3722547 3764056 3803763 3839797 3872425 
2103.612 3902681 3932170 3961728 3990752 4019445 4048072 4077504 4109279 
2107.469 4142930 4176584 4206493 4228943 4241256 4243866 4240487 4235535 
2111.327 4233394 4235836 4241022 4244435 4241758 4229713 4208969 4183275 
2115.184 4157884 4138749 4129851 4132293 4145439 4167652 4196724 4230282 
2119.042 4266720 4303193 4336826 4365374 4387263 4402627 4413672 4423346 
2122.899 4434024 4447347 4462645 4478346 4492942 4505731 4516612 4526188 
2126.756 4534391 4539145 4538007 4527795 4506502 4474730 4436300 4395397 
2130.614 4357007 4325046 4300516 4283350 4273612 4271002 4277561 4295296 
2134.471 4324210 4362596 4406576 4450393 4489528 4522137 4548353 4569716 
2138.329 4587798 4600589 4604842 4597140 4574805 4538777 4494315 4447581 
2142.186 4405003 4369658 4340608 4313936 4286797 4257585 4228375 4204118 
2146.043 4189029 4184647 4188762 4194483 4193512 4178692 4146242 4094763 
2149.901 4026635 3945143 3853336 3754630 3652539 3549703 3449731 3353120 
2153.758 3257366 3157661 3048135 2925894 2797385 2679215 2595842 2576876 
2157.616 2646077 2810124 3055710 3350783 3653842 3924179 4134367 4270802 
2161.473 4335555 4340106 4301320 4238044 4167652 4104262 4057771 4032353 
2165.331 4025498 4027370 4026936 4010817 3970221 3903449 3815128 3713189 
2169.188 3608001 3507280 3414597 3330415 3254027 3183962 3122351 3072594 
2173.045 3037925 3021142 3022676 3039126 3066521 3099958 3133030 3160464 
2176.903 3175818 3172180 3144945 3093117 3019307 2933466 2849211 2778377 
2180.760 2732494 2715456 2724025 2749466 2781911 2811591 2832402 2842440 
2184.618 2841273 2830167 2811224 2786280 2758836 2734761 2718824 2716590 
2188.475 2730227 2758169 2794884 2834069 2868856 2894772 2911517 2919690 
2192.333 2921791 2920457 2916988 2912684 2909516 2910817 2919423 2938604 
2196.190 2968528 3005660 3044898 3079135 3102594 3113040 3111838 3102394 
2200.047 3089746 3078767 3071226 3068089 3068823 3071693 3075464 3079401 
2203.905 3082105 3082905 3081604 3078801 3076532 3078100 3085708 3101193 
2207.762 3124153 3151386 3178655 3202053 3219344 3230526 3237937 3244213 
2211.620 3250689 3258735 3266780 3273357 3277530 3278465 3275493 3268583 
2215.477 3256398 3237537 3211566 3179689 3144978 3112706 3088111 3073762 
2219.334 3070091 3073495 3078133 3078701 3072661 3059614 3042429 3025346 
2223.192 3010598 2999555 2991781 2984775 2978103 2971797 2966259 2963323 
2227.049 2963023 2964291 2965492 2965459 2964291 2963791 2967394 2976801 
2230.907 2992916 3014502 3038626 3061415 3081304 3097288 3110270 3121583 
2234.764 3131595 3139905 3146347 3150518 3153389 3157761 3166272 3180257 
2238.622 3200150 3223082 3245214 3263809 3277931 3289081 3301134 3318629 
2242.479 3343537 3376762 3416000 3458047 3500165 3540483 3578333 3613948 
2246.336 3647193 3676798 3701059 3718236 3727259 3728562 3724251 3716331 
2250.194 3707274 3698853 3692203 3688393 3688828 3694709 3707141 3726691 
2254.051 3751255 3777491 3801490 3819707 3829669 3831942 3827964 3820242 
2257.909 3811551 3803295 3796343 3790928 3787352 3785580 3786449 3789557 
2261.766 3794170 3798917 3802560 3803763 3803162 3801357 3799953 3800153 
2265.624 3802393 3805802 3809312 3812019 3812955 3812554 3811017 3808309 
2269.481 3804465 3799117 3792098 3784377 3777792 3773949 3774717 3780667 
2273.338 3790460 3802125 3813757 3824187 3833647 3844110 3857147 3873528 
2277.196 3893219 3914082 3933641 3950325 3963266 3973665 3983629 3995400 
2281.053 4010449 4029578 4052688 4078875 4107808 4138515 4169592 4199468 
2284.911 4225497 4244870 4255878 4257986 4251896 4240119 4225531 4210307 
2288.768 4196089 4183375 4172168 4163136 4157014 4155275 4159155 4169459 
2292.625 4185115 4204787 4226568 4248684 4270300 4291314 4311794 4331605 
2296.483 4349912 4365441 4376620 4383247 4385422 4385021 4384117 4383849 
2300.340 4385356 4387966 4390544 4391748 4390744 4387330 4381306 4373340 
2304.198 4363667 4352556 4340708 4329297 4319658 4313501 4311526 4313367 
2308.055 4317516 4321833 4324042 4323373 4320428 4316680 4314404 4315274 
2311.913 4319156 4325247 4331873 4337328 4340943 4342951 4343553 4343118 
2315.770 4341645 4337763 4330903 4320629 4307611 4294292 4283517 4277829 
2319.627 4279502 4289507 4307243 4331103 4358346 4384920 4405237 4413371 
2323.485 4403095 4369256 4310422 4228475 4129651 4022789 3917392 3822047 
2327.342 3742198 3679104 3630921 3594069 3564335 3538613 3516399 3497727 
2331.200 3483564 3474513 3470906 3472442 3478822 3490311 3507113 3529359 
2335.057 3556485 3586785 3618391 3648596 3675695 3698920 3718336 3734812 
2338.915 3749417 3763320 3776890 3791128 3806638 3824120 3843876 3866006 
2342.772 3889475 3913145 3936583 3959755 3985369 4016870 4058072 4112357 
2346.629 4180699 4261332 4350180 4442058 4531143 4611640 4679190 4730404 
2350.487 4763768 4779212 4779111 4766917 4747019 4723470 4698884 4674468 
2354.344 4649818 4623696 4595700 4566401 4537471 4511758 4492039 4480622 
2358.202 4478714 4486816 4504057 4530139 4563889 4603737 4647507 4692521 
2362.059 4735429 4773952 4807219 4835463 4861363 4888203 4918061 4952613 
2365.917 4991758 5033791 5077001 5120048 5162193 5203806 5245490 5287614 
2369.774 5329943 5372780 5415453 5458500 5502322 5547693 5595150 5644860 
2373.631 5696558 5749772 5804805 5861828 5921545 5984529 6050848 6120067 
2377.489 6191415 6264119 6337777 6412859 6490241 6570329 6653392 6738187 
2381.346 6822729 6905235 6983614 7057057 7125696 7190034 7250910 7308696 
2385.204 7363321 7414482 7461907 7505797 7546388 7584049 7619184 7651085 
2389.061 7679042 7702448 7720796 7734557 7744609 7751793 7756482 7758911 
2392.918 7758067 7753750 7746565 7738031 7730881 7727946 7731252 7741472 
2396.776 7757730 7778104 7800334 7823139 7846148 7870137 7896151 7924934 
2400.633 7956519 7990673 8026549 8063577 8102127 8143449 8188624 8239139 
2404.491 8296617 8361398 8434264 8515285 8603656 8698601 8798336 8900088 
2408.348 9001764 9101601 9198890 9294542 9390181 9487196 9586671 9688134 
2412.206 9790096 9890623 9987852 10080931 10169960 10255512 10337993 
2415.581 10416723 10490477 10557522 10615885 10664951 10704718 10736133 
2418.956 10761096 10780864 10796761 10810383 10822748 10835249 10849449 
2422.331 10866231 10885801 10907750 10930854 10954096 10977305 11001264 
2425.707 11027772 11059244 11097959 11145448 11202530 11269650 11346645 
2429.082 11433961 11531569 11638865 11754937 11877543 12004170 12132401 
2432.457 12261078 12390203 12521412 12656687 12797601 12945318 13099335 
2435.832 13258771 13422742 13591081 13763898 13942088 14126854 14317965 
2439.208 14515533 14718915 14927330 15140375 15357917 15579415 15804257 
2442.583 16031519 16259791 16487705 16715290 16942752 17171092 17401656 
2445.958 17634794 17870198 18107178 18344254 18580560 18815958 19050788 
2449.333 19285332 19519380 19752268 19982126 20207558 20426926 20639488 
2452.708 20844854 21043188 21233506 21415694 21588276 21750162 21900886 
2456.084 22040092 22167868 22283928 22387424 22476570 22549016 22602836 
2459.459 22636170 22648702 22641162 22614634 22570586 22510314 22434350 
2462.834 22343434 22238414 22120762 21993000 21858410 21720762 21584098 
2466.209 21452452 21329446 21218476 21122702 21044302 20985668 20948078 
2469.585 20932954 20940604 20971272 21024932 21100370 21196522 21310688 
2472.960 21439886 21581102 21730862 21886670 22046504 22208842 22371586 
2476.335 22532998 22690244 22840564 22981292 23110464 23227160 23331196 
2479.710 23422494 23500764 23565196 23614872 23648250 23665220 23666656 
2483.086 23653848 23629358 23595280 23553618 23505766 23453094 23396758 
2486.461 23338016 23278372 23218212 23157572 23095332 23029574 22958270 
2489.836 22880378 22795304 22703336 22604894 22500194 22388472 22268652 
2493.211 22138998 21998786 21848060 21688054 21520552 21346918 21167960 
2496.587 20983652 20792990 20595292 20390216 20178644 19962144 19742386 
2499.962 19521042 19299292 19077170 18855022 18632886 18411346 18191646 
2503.337 17975168 17763110 17556572 17356204 17162510 16975896 16797354 
2506.712 16627697 16467469 16317379 16177244 16046576 15924677 15810786 
2510.088 15704000 15603731 15509016 15419092 15333718 15252444 15175784 
2513.463 15104763 15040511 14983677 14934395 14891976 14855048 14822785 
2516.838 14794981 14772183 14756072 14747777 14747674 14755421 14768995 
2520.213 14785931 14804374 14823368 14842842 14863997 14887930 14915088 
2523.589 14945300 14977538 15011149 15045725 15081435 15118074 15155677 
2526.964 15193352 15228559 15259033 15282645 15297781 15304405 15303513 
2530.339 15296202 15283504 15265931 15243315 15215279 15182303 15144903 
2533.714 15104625 15063254 15022366 14982923 14945814 14911384 14879632 
2537.090 14851207 14826247 14804511 14785759 14768961 14753124 14737905 
2540.465 14723199 14709695 14697836 14688307 14680562 14673810 14666853 
2543.840 14658594 14648963 14638476 14627989 14618428 14610101 14602083 
2547.215 14593585 14583134 14570079 14554420 14536741 14518068 14499260 
2550.591 14481001 14463598 14447429 14433248 14421671 14413244 14408381 
2553.966 14406599 14406942 14408244 14409510 14409922 14409237 14407353 
2557.341 14403928 14398379 14389576 14376459 14358889 14337040 14311835 
2560.716 14284372 14255816 14225994 14194668 14160948 14124355 14085781 
2564.092 14046216 14007204 13970419 13936477 13905000 13875852 13848109 
2567.467 13821873 13798101 13778332 13763898 13756101 13755177 13760752 
2570.842 13771594 13786745 13804873 13824917 13845647 13865658 13883995 
2574.217 13900108 13913929 13926759 13940685 13957314 13978118 14003337 
2577.593 14031946 14062131 14092249 14120933 14148043 14174093 14200214 
2580.968 14227637 14257289 14289954 14326116 14366150 14410539 14459213 
2584.343 14512073 14567989 14625659 14684297 14743184 14802317 14862454 
2587.718 14924484 14988753 15055089 15122740 15190367 15257352 15323489 
2591.094 15389087 15454901 15521446 15588139 15654121 15717708 15777489 
2594.469 15832607 15883330 15930349 15975172 16019039 16062599 16106404 
2597.844 16150763 16195817 16241940 16289925 16340189 16393449 16450055 
2601.219 16510282 16574305 16642226 16714016 16789124 16866654 16945164 
2604.594 17023344 17100160 17175712 17251002 17327822 17408038 17492888 
2607.970 17582932 17677342 17775088 17875100 17976686 18079714 18184738 
2611.345 18291962 18400908 18510744 18619778 18726142 18828690 18926694 
2614.720 19019978 19109196 19194588 19276638 19355446 19431152 19503574 
2618.095 19572962 19639310 19702442 19762568 19819372 19872784 19923046 
2621.471 19971128 20017758 20064428 20112214 20161950 20214014 20268586 
2624.846 20325526 20384800 20446166 20509520 20574238 20639698 20705164 
2628.221 20769496 20832688 20894604 20955868 21017210 21079082 21141556 
2631.596 21204698 21267782 21330038 21391120 21450782 21508920 21566060 
2634.972 21622402 21678476 21734834 21791826 21850048 21909914 21972158 
2638.347 22036292 22102772 22171040 22240890 22311972 22384110 22457066 
2641.722 22530694 22604370 22677466 22749632 22820902 22891868 22963404 
2645.097 23036982 23113400 23193326 23276450 23361722 23447848 23533504 
2648.473 23617952 23701016 23783326 23865898 23949640 24035778 24124424 
2651.848 24215958 24310138 24406652 24504698 24604168 24704466 24805524 
2655.223 24907236 25009712 25112702 25216490 25320512 25424560 25528176 
2658.598 25630796 25732070 25832032 25930716 26028332 26124912 26220600 
2661.974 26315148 26408976 26502154 26595108 26688468 26782554 26877398 
2665.349 26972512 27067258 27160508 27251838 27340892 27428060 27514330 
2668.724 27600754 27688504 27778390 27870662 27965006 28060816 28157214 
2672.099 28253208 28348342 28442008 28534350 28625652 28716512 28807320 
2675.475 28898926 28991508 29085244 29180062 29275998 29373092 29471556 
2678.850 29571672 29673836 29778150 29884870 29994276 30106232 30221344 
2682.225 30340286 30463528 30591994 30725904 30865404 31010682 31161452 
2685.600 31318042 31480928 31650678 31827838 32012456 32203932 32401062 
2688.976 32602816 32808132 33016368 33227782 33443090 33663160 33888392 
2692.351 34118652 34353556 34592132 34834076 35078952 35327280 35579808 
2695.726 35837200 36100036 36368432 36641796 36919692 37201160 37485736 
2699.101 37772780 38061960 38353184 38646448 38941756 39239264 39539188 
2702.477 39841568 40146348 40452644 40759812 41066328 41370688 41671248 
2705.852 41966248 42254004 42532884 42801376 43058256 43302768 43534120 
2709.227 43752360 43957628 44150556 44331612 44501504 44661328 44811696 
2712.602 44953520 45087080 45212152 45327660 45432052 45523224 45599172 
2715.978 45658576 45700872 45726456 45736432 45732088 45715192 45687068 
2719.353 45649412 45604068 45553136 45498936 45444452 45392104 45344324 
2722.728 45303384 45270988 45249108 45239324 45243408 45262308 45296696 
2726.103 45346784 45412004 45491580 45585080 45692148 45812276 45945548 
2729.479 46091132 46247672 46413488 46586448 46764752 46946828 47132076 
2732.854 47320364 47511312 47704388 47898580 48092304 48283968 48472012 
2736.229 48655508 48834032 49007368 49175688 49338984 49497148 49650056 
2739.604 49798036 49941424 50080656 50216624 50349692 50481200 50611816 
2742.979 50743220 50877492 51017320 51164952 51322476 51490612 51669192 
2746.355 51856616 52050992 52249196 52448576 52646288 52839820 53026440 
2749.730 53204344 53371036 53525388 53666148 53793044 53905416 54003184 
2753.105 54086076 54153860 54206484 54244552 54268804 54280256 54280144 
2756.480 54268428 54244848 54207988 54155848 54086940 53999660 53892884 
2759.856 53766488 53620112 53453880 53268164 53063428 52841092 52603236 
2763.231 52352840 52093016 51827384 51559036 51290332 51023360 50759828 
2766.606 50501596 50250396 50008636 49777860 49560396 49357772 49171460 
2769.981 49002472 48852088 48721036 48609924 48518472 48445564 48389664 
2773.357 48348552 48319260 48299376 48286636 48279008 48274416 48271084 
2776.732 48266456 48258124 48243572 48220468 48186664 48140724 48081236 
2780.107 48007404 47918780 47815272 47697804 47567876 47428116 47281824 
2783.482 47132740 46984740 46840964 46704164 46575900 46456372 46344800 
2786.858 46239676 46138144 46037048 45933432 45824132 45706984 45581108 
2790.233 45446216 45303276 45153948 45000008 44843440 44686816 44531752 
2793.608 44380528 44234928 44096460 43966684 43846480 43736788 43637932 
2796.983 43550416 43474712 43411140 43360608 43323744 43301120 43293068 
2800.359 43299652 43320264 43353912 43399020 43453252 43514336 43580016 
2803.734 43648372 43718392 43789708 43862680 43937868 44015672 44095724 
2807.109 44177296 44258004 44336052 44408600 44473716 44529588 44574892 
2810.484 44608416 44629236 44636540 44629492 44607604 44571040 44520044 
2813.860 44455436 44378176 44289852 44191972 44086852 43977060 43865980 
2817.235 43757640 43656140 43565764 43490752 43434720 43400704 43391000 
2820.610 43407368 43450284 43519648 43614340 43732208 43870636 44026380 
2823.985 44196044 44376160 44563068 44753292 44942900 45128436 45305924 
2827.361 45472264 45624236 45759148 45874836 45970080 46044344 46097912 
2830.736 46131956 46148832 46151152 46141868 46123888 46098868 46068324 
2834.111 46033252 45994352 45953172 45911336 45870344 45832160 45797696 
2837.486 45767212 45740188 45716664 45696820 45682136 45675328 45679888 
2840.862 45699768 45738384 45798540 45882828 45993688 46134056 46307904 
2844.237 46519688 46774200 47075424 47424640 47820336 48255940 48720852 
2847.612 49198136 49666772 50102744 50479860 50774356 50967504 51047172 
2850.987 51011024 50865572 50626076 50311404 49944136 49546688 49137692 
2854.363 48733676 48347408 47987752 47660936 47369836 47115012 46894336 
2857.738 46704056 46539016 46393836 46263596 46144116 46031816 45924188 
2861.113 45818976 45714124 45608044 45499452 45388128 45274300 45159356 
2864.488 45045804 44936472 44835504 44747304 44676900 44629272 44609296 
2867.864 44620752 44666360 44746572 44860484 45004860 45175016 45364920 
2871.239 45567232 45774056 45977556 46169616 46344100 46496528 46624960 
2874.614 46730364 46815752 46886252 46946568 47001796 47055448 47109956 
2877.989 47166904 47227260 47291764 47361524 47437908 47521884 47614976 
2881.365 47717884 47830992 47953784 48084904 48221800 48360700 48496908 
2884.740 48624968 48739532 48836036 48911200 48964008 48995760 49009776 
2888.115 49011780 49008368 49007480 49017380 49046204 49102632 49195688 
2891.490 49335088 49532908 49803872 50164180 50634156 51235448 51989628 
2894.865 52917292 54032416 55338820 56824508 58458348 60186296 61928140 
2898.241 63590304 65065628 66247008 67048616 67410136 67310072 66766872 
2901.616 65836488 64602048 63154420 61590592 59996460 58438596 56969596 
2904.991 55623784 54420508 53369840 52473964 51730288 51133416 50676828 
2908.366 50354228 50159976 50089728 50139260 50303668 50576044 50946116 
2911.742 51399152 51917964 52481104 53065228 53647740 54205172 54715924 
2915.117 55162372 55529792 55808704 55995700 56092508 56105704 56045008 
2918.492 55922620 55750496 55539884 55301292 55043092 54772752 54496456 
2921.867 54219324 53946120 53681596 53430424 53198312 52991588 52816732 
2925.243 52680064 52586852 52539696 52539024 52582140 52664276 52778680 
2928.618 52917512 53072532 53234904 53395840 53546680 53678072 53782016 
2931.993 53850652 53876868 53855152 53780928 53651076 53464560 53222244 
2935.368 52927768 52586816 52207644 51800276 51375096 50943544 50516520 
2938.744 50104344 49717260 49364524 49054180 48793028 48585648 48433600 
2942.119 48335040 48284192 48272192 48285896 48310484 48329112 48323744 
2945.494 48278044 48178224 48014288 47782312 47484516 47129640 46730364 
2948.869 46303696 45867180 45436800 45026616 44646528 44302328 43996236 
2952.245 43727664 43493936 43291272 43115740 42963908 42832864 42720316 
2955.620 42624472 42543444 42475444 42418592 42370808 42331064 42299036 
2958.995 42275036 42260612 42256812 42264340 42283256 42312404 42350100 
2962.370 42394808 42445412 42501716 42564132 42633608 42711036 42796844 
2965.746 42891012 42993320 43103772 43222528 43350468 43488736 43639288 
2969.121 43803964 43985016 44184964 44405776 44649208 44916260 45206560 
2972.496 45518108 45847292 46189036 46536028 46879680 47209752 47513572 
2975.871 47777728 47988380 48132096 48199436 48185552 48092192 47927512 
2979.247 47705164 47443340 47160700 46875544 46604044 46357852 46144816 
2982.622 45968460 45828032 45718836 45632668 45559576 45487792 45405968 
2985.997 45305372 45180016 45027904 44850604 44652296 44437856 44212256 
2989.372 43978676 43737964 43489176 43229924 42957508 42670164 42368176 
2992.748 42054176 41732960 41411176 41095064 40790712 40501888 40229688 
2996.123 39972772 39727732 39490452 39256600 39022984 38787680 38550228 
2999.498 38311164 38071724 37833324 37597688 37366192 37140016 36920412 
3002.873 36708352 36504532 36309748 36124088 35947576 35780100 35621168 
3006.249 35470172 35326524 35189500 35058556 34933104 34812860 34697496 
3009.624 34586644 34479840 34377044 34277824 34182096 34090372 34003008 
3012.999 33920704 33843580 33771520 33703872 33639456 33577524 33517674 
3016.374 33460520 33407304 33359822 33319146 33285730 33258614 33236116 
3019.750 33216014 33196412 33176564 33156786 33138476 33122812 33111334 
3023.125 33104864 33103574 33107616 33117272 33133150 33156500 33188366 
3026.500 33229858 33281222 33341826 33410348 33484388 33561060 33636520 
3029.875 33706524 33766648 33812812 33841684 33851892 33843904 33819940 
3033.250 33784088 33740756 33694132 33647732 33603624 33562704 33524978 
3036.626 33489902 33456616 33424802 33394172 33365012 33338286 33315354 
3040.001 33297536 33286124 33281758 33284084 33291992 33303726 33317748 
3043.376 33332848 33349052 33367052 33388090 33413604 33443984 33479236 
3046.751 33518176 33559660 33602228 33645256 33688368 33731732 33775640 
3050.127 33820228 33865468 33911284 33957608 34004584 34052528 34101916 
3053.502 34153172 34206724 34263016 34322212 34384752 34450644 34519592 
3056.877 34591344 34665016 34739988 34815912 34892708 34971024 35051728 
3060.252 35135392 35222376 35312400 35404672 35498256 35592756 35688500 
3063.628 35786140 35886536 35990232 36097264 36206664 36317208 36427668 
3067.003 36537188 36645472 36752376 36858080 36962228 37063760 37161708 
3070.378 37254912 37342612 37425092 37503112 37577820 37650588 37722392 
3073.753 37794320 37867088 37941572 38018704 38099108 38183108 38270524 
3077.129 38360496 38451784 38543312 38633952 38723632 38812284 38899972 
3080.504 38987172 39073520 39158796 39242780 39325516 39407068 39488276 
3083.879 39569928 39653052 39738336 39826608 39918756 40015492 40117636 
3087.254 40225580 40338972 40457080 40578316 40701220 40824348 40946920 
3090.630 41068768 41190132 41311208 41432356 41553276 41673692 41793148 
3094.005 41912460 42032132 42153548 42278108 42406680 42539464 42676052 
3097.380 42815384 42956408 43098284 43240280 43382396 43524632 43667024 
3100.755 43809572 43952020 44094408 44236104 44376784 44516188 44653984 
3104.131 44790428 44926108 45061940 45199064 45338732 45481572 45627992 
3107.506 45777480 45929196 46081992 46234772 46386644 46536876 46684980 
3110.881 46830812 46974108 47115344 47254856 47393784 47533344 47674396 
3114.256 47817416 47962368 48108444 48255084 48401704 48548484 48696200 
3117.632 48845528 48996944 49150380 49304800 49458976 49611796 49762960 
3121.007 49912876 50062512 50213348 50365764 50519576 50674332 50828584 
3124.382 50982184 51135092 51288208 51442456 51598884 51757500 51917592 
3127.757 52078076 52237684 52395488 52551252 52705388 52858420 53010680 
3131.133 53162696 53314688 53467264 53621236 53777516 53936964 54099964 
3134.508 54266216 54434520 54603788 54772676 54940424 55106884 55272244 
3137.883 55436796 55600660 55763416 55924804 56084216 56241608 56397548 
3141.258 56553020 56709228 56866964 57027056 57189176 57352912 57517272 
3144.634 57681656 57845616 58008988 58172160 58335544 58499896 58666248 
3148.009 58835052 59006844 59181588 59358992 59538248 59718688 59899576 
3151.384 60080428 60260748 60440112 60618064 60794300 60968168 61139624 
3154.759 61308592 61475528 61640960 61805576 61969720 62133124 62295904 
3158.135 62457708 62618880 62780120 62942260 63106252 63272924 63442112 
3161.510 63613400 63785708 63958132 64129500 64299636 64468192 64635260 
3164.885 64801060 64965456 65128684 65290464 65450884 65609596 65766432 
3168.260 65920936 66072524 66221304 66367248 66511072 66653788 66795976 
3171.635 66938244 67080280 67221448 67361184 67498880 67634680 67768968 
3175.011 67902536 68035784 68168344 68299584 68428576 68554688 68677824 
3178.386 68799280 68919952 69041320 69164160 69287848 69411736 69534832 
3181.761 69656056 69775416 69893088 70009672 70125544 70240584 70354656 
3185.136 70467416 70578536 70688168 70796456 70903568 71009104 71112400 
3188.512 71213224 71310944 71406312 71500560 71595112 71691272 71789616 
3191.887 71889896 71991008 72092080 72192032 72290760 72387712 72482528 
3195.262 72574504 72662504 72745744 72824264 72899232 72973224 73048920 
3198.637 73128504 73212664 73300008 73387920 73472680 73551832 73624176 
3202.013 73690408 73752088 73812016 73872416 73934760 74000016 74068696 
3205.388 74140456 74214984 74291480 74368040 74442912 74513784 74579128 
3208.763 74639016 74694608 74748096 74801624 74856576 74912408 74967528 
3212.138 75019312 75066416 75108328 75146496 75184312 75224856 75271192 
3215.514 75324392 75383504 75447056 75511936 75575696 75636744 75694208 
3218.889 75748328 75800048 75850864 75902048 75955000 76010456 76068688 
3222.264 76129240 76191072 76253040 76314256 76374504 76434192 76494376 
3225.639 76555984 76620168 76686816 76755568 76825368 76894656 76962208 
3229.015 77026968 77088032 77145168 77199032 77250968 77303144 77357976 
3232.390 77418048 77484696 77558248 77636928 77718392 77800112 77879824 
3235.765 77957728 78034456 78112032 78192200 78275392 78360872 78447072 
3239.140 78531784 78613504 78692128 78768392 78844072 78920048 78997536 
3242.516 79075920 79155312 79235424 79316480 79399936 79486864 79577904 
3245.891 79673112 79771248 79870480 79969096 80066016 80161048 80254632 
3249.266 80347832 80441168 80534808 80628384 80721312 80812936 80903072 
3252.641 80991856 81080136 81168488 81257088 81346312 81435744 81524688 
3256.017 81612328 81697736 81780008 81858776 81933752 82005224 82073984 
3259.392 82140792 82206616 82271800 82337080 82402328 82467424 82532488 
3262.767 82596728 82659528 82719896 82775856 82826256 82869920 82906896 
3266.142 82938136 82966008 82992688 83020640 83050568 83082384 83114800 
3269.518 83146416 83175864 83202440 83226400 83247904 83267056 83284024 
3272.893 83298888 83312168 83325016 83339504 83357208 83379568 83406352 
3276.268 83436136 83466256 83494328 83518984 83540232 83560112 83580992 
3279.643 83605016 83633568 83666112 83701504 83738592 83776448 83815304 
3283.019 83856376 83900392 83948184 83999960 84054968 84112392 84171432 
3286.394 84232088 84294320 84358776 84425656 84495048 84567176 84642424 
3289.769 84721304 84805000 84894832 84991528 85095712 85207576 85326928 
3293.144 85453936 85588608 85731320 85881824 86040136 86204976 86375576 
3296.520 86551384 86732232 86918624 87111568 87311288 87516776 87726544 
3299.895 87938184 88149648 88360608 88572040 88786488 89007320 89236848 
3303.270 89476712 89727144 89987200 90255624 90531728 90814952 91105048 
3306.645 91401856 91704784 92013096 92326296 92644768 92969056 93300688 
3310.021 93639640 93985200 94335152 94686744 95037224 95385952 95734312 
3313.396 96085552 96443152 96810248 97187600 97573944 97966280 98361264 
3316.771 98756224 99149760 99541520 99931760 100320520 100707624 101092464 
3320.146 101474856 101854944 102233640 102611576 102988840 103364536 
3323.039 103736984 104104232 104465056 104819336 105168160 105512416 
3325.932 105852888 106188800 106518496 106839744 107151104 107451736 
3328.825 107742008 108021936 108291280 108548336 108790336 109014168 
3331.719 109217912 109401088 109564456 109709336 109836896 109946320 
3334.612 110036288 110104816 110150200 110173128 110175952 110161600 
3337.505 110132696 110090088 110032792 109957496 109860320 109737704 
3340.398 109587184 109407992 109199728 108962984 108698704 108407152 
3343.291 108089288 107746296 107378888 106988128 106574136 106136080 
3346.184 105673240 105185520 104673632 104139936 103588368 103022776 
3349.077 102447072 101863776 101274584 100679712 100079512 99474528 98865592 
3352.452 98254192 97641112 97027032 96411880 95795736 95179152 94563560 
3355.827 93951096 93344640 92746776 92159648 91584856 91023448 90476056 
3359.203 89943384 89426224 88924848 88439240 87968816 87512608 87069624 
3362.578 86639192 86220656 85813304 85416624 85029688 84651608 84282328 
3365.953 83922576 83574168 83240088 82922936 82624056 82342920 82076944 
3369.328 81821736 81572576 81325408 81077224 80826432 80572144 80313664 
3372.704 80049840 79779800 79502296 79216976 78924016 78623752 78315784 
3376.079 77999120 77671160 77328872 76969176 76590328 76192144 75775864 
3379.454 75343624 74897016 74436776 73962256 73471624 72963152 72435072 
3382.829 71886328 71317472 70729464 70124064 69503920 68872232 68232384 
3386.205 67588256 66943420 66300468 65661272 65026372 64395584 63768400 
3389.580 63144608 62524392 61908540 61298212 60694156 60097664 59509596 
3392.955 58930328 58360400 57799320 57246108 56699072 56155704 55613952 
3396.330 55072168 54530076 53989000 53451036 52918900 52394104 51877560 
3399.706 51368196 50864640 50364908 49867868 49372436 48878788 48386892 
3403.081 47896876 47408268 46920984 46435060 45951332 45471088 44995780 
3406.456 44526540 44063528 43606208 43153432 42704380 42258676 41816828 
3409.831 41380272 40950560 40528444 40114364 39707616 39307340 38912656 
3413.207 38523396 38139584 37762080 37391256 37027568 36670852 36321096 
3416.582 35977924 35640768 35309704 34984064 34663328 34346884 34034220 
3419.957 33725320 33420868 33121348 32828216 32541924 32262352 31988486 
3423.332 31718932 31452320 31187688 30924926 30664564 30406986 30153004 
3426.708 29902582 29655530 29411880 29171592 28934624 28701822 28472822 
3430.083 28247410 28024164 27801632 27578158 27353492 27127882 26902742 
3433.458 26680504 26463134 26251926 26047680 25850248 25658704 25472024 
3436.833 25289078 25108314 24928328 24747608 24564474 24377878 24187440 
3440.208 23993756 23798516 23603924 23412144 23225098 23043760 22868048 
3443.584 22697088 22529542 22363668 22197614 22030016 21860152 21688402 
3446.959 21516268 21345838 21179752 21020236 20867590 20720942 20578130 
3450.334 20435746 20291604 20144074 19993262 19840770 19689026 19539862 
3453.709 19394354 19252600 19114010 18977194 18841804 18707704 18575234 
3457.085 18444534 18315602 18187604 18059372 17929826 17798388 17665196 
3460.460 17531456 17398380 17267344 17139622 17015246 16894418 16776862 
3463.835 16662402 16550759 16442072 16336026 16232310 16130233 16029008 
3467.210 15927874 15826318 15724132 15621283 15518149 15415143 15313192 
3470.586 15213254 15115844 15021372 14929903 14840510 14752164 14664043 
3473.961 14575733 14487269 14399749 14314644 14233321 14156532 14084308 
3477.336 14015588 13949239 13883687 13817769 13751074 13683431 13614876 
3480.711 13545820 13476808 13408730 13342850 13280840 13223893 13173137 
3484.087 13128602 13089227 13053237 13019128 12985294 12951087 12917054 
3487.462 12883569 12851623 12822205 12795518 12772007 12752387 12737271 
3490.837 12727547 12724102 12726660 12734133 12745460 12758461 12772826 
3494.212 12788421 12806814 12829849 12859815 12897393 12943134 12995980 
3497.588 13054945 13118971 13188062 13262290 13341995 13427354 13517756 
3500.963 13612107 13709762 13810448 13915572 14027360 14148590 14281668 
3504.338 14428281 14588068 14759020 14938612 15123426 15310789 15498405 
3507.713 15685415 15871922 16059298 16250195 16446751 16651832 16867136 
3511.089 17093058 17328790 17572548 17822002 18074776 18329218 18583846 
3514.464 18837272 19088146 19334174 19573136 19802862 20021818 20229358 
3517.839 20426090 20612248 20787396 20950374 21098144 21226306 21331186 
3521.214 21408976 21457640 21476890 21467736 21432192 21372636 21291164 
3524.590 21188868 21066004 20921516 20753750 20560620 20341150 20095036 
3527.965 19824852 19534662 19229292 18913612 18591904 18266664 17939220 
3531.340 17610156 17279790 16948954 16618231 16287828 15956713 15623619 
3534.715 15286832 14945197 14600027 14254001 13911364 13576928 13253954 
3538.091 12943747 12646385 12359418 12081226 11810397 11546541 11289442 
3541.466 11039837 10797000 10559729 10326287 10094495 9862863 9630912 
3544.841 9398883 9167756 8939288 8715740 8499134 8292361 8097739 7916262 
3548.698 7747509 7588736 7435177 7281739 7124012 6959236 6788769 6616552 
3552.556 6447832 6288693 6142717 6010497 5890241 5778815 5672555 5569172 
3556.413 5467425 5366608 5266652 5166686 5065402 4961192 4853556 4742965 
3560.271 4631365 4522170 4418459 4322770 4236137 4157984 4085732 4016234 
3564.128 3945310 3868613 3782839 3685453 3575761 3456377 3332018 3209964 
3567.986 3097522 3000256 2920557 2857516 2806856 2762971 2720257 2673881 
3571.843 2620742 2560211 2493889 2424113 2354447 2288090 2226839 2171324 
3575.700 2120878 2073233 2025861 1976396 1922710 1864306 1801551 1735811 
3579.558 1669083 1603795 1541743 1484553 1434020 1390938 1355971 1329415 
3583.415 1309939 1294885 1280395 1261154 1231713 1187888 1127722 1052617 
3587.273 968095 881630 802186 736166 687080 654326 635279 624362 615934 
3591.612 604951 587167 559563 521511 474208 420608 364561 310212 260876 
3595.952 219071 185424 158906 138489 121983 107400 93017 77540 60241 41187 
3600.774 21140 1259 -17096 -32668 -44894 -53905 -60531 -66362 -73518 -83721 
3605.595 -99026 -120922 -149971 -186074 -226908 -269395 -309063 -342139 
3609.453 -365612 -380112 -388620 -395837 -407456 -428145 -459193 -499010 
3613.310 -542231 -582470 -613308 -631770 -637891 -635178 -629620 -626311 
3617.168 -630381 -644806 -669784 -703164 -741304 -779804 -814697 -843898 
3621.025 -866617 -883216 -895087 -903717 -909768 -913240 -912777 -906627 
3624.883 -893335 -873230 -848495 -824618 -809273 -810761 -835267 -883580 
3628.740 -948088 -1015728 -1071193 -1104244 -1113697 -1103881 -1083522 
3632.115 -1061112 -1044321 -1036487 -1038536 -1047957 -1061046 -1074399 
3635.490 -1085075 -1092148 -1095982 -1097469 -1097667 -1097535 -1098295 
3638.866 -1100576 -1105566 -1113895 -1125759 -1140631 -1157154 -1172851 
3642.241 -1185341 -1192743 -1193602 -1188282 -1177344 -1162904 -1147108 
3645.616 -1132369 -1121265 -1116175 -1119216 -1131972 -1154676 -1186795 
3648.991 -1225587 -1265927 -1303060 -1330577 -1343625 -1340256 -1320932 
3652.367 -1289317 -1250862 -1212205 -1179823 -1159269 -1154114 -1164655 
3655.742 -1187522 -1216368 -1243593 -1263582 -1273328 -1273592 -1267810 
3659.117 -1260113 -1254133 -1252580 -1257007 -1267480 -1283173 -1302234 
3662.492 -1322583 -1341147 -1355252 -1361891 -1358687 -1344715 -1320304 
3665.868 -1287831 -1251324 -1215872 -1187720 -1172817 -1175296 -1196080 
3669.243 -1231468 -1271775 -1302961 -1312178 -1290573 -1236985 -1157584 
3672.618 -1063657 -969016 -887548 -832688 -813242 -831497 -880571 -946766 
3676.476 -1016488 -1079952 -1134814 -1183028 -1227899 -1270751 -1310427 
3679.851 -1343427 -1366185 -1376853 -1376094 -1366912 -1352973 -1337745 
3683.226 -1322583 -1306826 -1289383 -1269000 -1246699 -1225256 -1208967 
3686.601 -1203317 -1212767 -1239001 -1279638 -1329289 -1380487 -1426196 
3689.977 -1462258 -1487652 -1503799 -1513341 -1518657 -1521959 -1524634 
3693.352 -1527275 -1529586 -1530940 -1530577 -1526912 -1519450 -1507530 
3696.727 -1491615 -1472892 -1453441 -1435443 -1421407 -1413448 -1413052 
3700.102 -1420879 -1436005 -1455852 -1476821 -1494190 -1503634 -1502775 
3703.478 -1490855 -1468863 -1440199 -1407834 -1375004 -1343724 -1315448 
3706.853 -1290374 -1268273 -1249375 -1234144 -1224232 -1222117 -1229816 
3710.228 -1249276 -1280695 -1321691 -1367539 -1411797 -1448323 -1471967 
3713.603 -1480619 -1475434 -1459848 -1438581 -1416454 -1397397 -1383426 
3716.979 -1374707 -1369290 -1365095 -1360074 -1353435 -1346102 -1340024 
3720.354 -1336754 -1337745 -1342337 -1348480 -1354327 -1357927 -1358852 
3723.729 -1358489 -1359315 -1363609 -1372725 -1386300 -1401955 -1416288 
3727.104 -1425338 -1426361 -1418105 -1402219 -1380586 -1357002 -1334970 
3730.479 -1316835 -1303589 -1294702 -1287533 -1279671 -1270420 -1260773 
3733.855 -1255058 -1258659 -1275541 -1306760 -1348018 -1390428 -1423884 
3737.230 -1440496 -1437293 -1415463 -1379430 -1334277 -1283800 -1230377 
3740.605 -1175065 -1120207 -1069640 -1030636 -1013810 -1029413 -1083257 
3743.980 -1170339 -1272238 -1361858 -1416751 -1428574 -1402913 -1353898 
3747.356 -1297907 -1249838 -1219540 -1211643 -1224298 -1250730 -1282347 
3750.731 -1310658 -1330478 -1339033 -1335466 -1319214 -1290771 -1252250 
3754.106 -1206720 -1159335 -1115746 -1080282 -1056220 -1044519 -1043924 
3757.481 -1052287 -1067425 -1087157 -1110160 -1134914 -1158443 -1176320 
3760.857 -1184680 -1180913 -1165581 -1142448 -1117861 -1098361 -1089107 
3764.232 -1091322 -1102592 -1117662 -1129956 -1135112 -1132435 -1124933 
3767.607 -1117464 -1114655 -1119513 -1131708 -1148529 -1165382 -1177510 
3770.982 -1182764 -1180616 -1172817 -1161813 -1150413 -1140036 -1131708 
3774.358 -1125197 -1119050 -1112176 -1103451 -1092677 -1081472 -1072218 
3777.733 -1068185 -1072218 -1085240 -1105533 -1129031 -1150776 -1166043 
3781.108 -1172851 -1172289 -1167431 -1162540 -1161186 -1165019 -1173280 
3784.483 -1183590 -1192842 -1198261 -1198823 -1195122 -1188546 -1181112 
3787.859 -1173842 -1167497 -1162276 -1158211 -1155766 -1155369 -1157055 
3791.234 -1160690 -1165382 -1170075 -1173908 -1177212 -1180517 -1185573 
3794.609 -1193602 -1204969 -1217690 -1228791 -1233483 -1228428 -1212469 
3797.984 -1187489 -1158443 -1132799 -1118951 -1123644 -1150446 -1196972 
3801.360 -1253406 -1305174 -1337745 -1342997 -1320436 -1277623 -1225157 
3804.735 -1176155 -1141787 -1128469 -1137128 -1161913 -1191487 -1213956 
3808.110 -1221853 -1214154 -1195221 -1171628 -1149322 -1131047 -1116572 
3811.485 -1102955 -1086794 -1066632 -1044486 -1025116 -1015397 -1021380 
3814.861 -1045114 -1083059 -1125098 -1157683 -1170802 -1159996 -1129163 
3818.236 -1088116 -1049841 -1026504 -1027661 -1056716 -1109103 -1171892 
3821.611 -1227635 -1261500 -1266357 -1244221 -1203151 -1154742 -1109698 
3824.986 -1075457 -1055757 -1049742 -1052948 -1059261 -1063558 -1063327 
3828.362 -1059162 -1054138 -1051493 -1053278 -1059658 -1068251 -1074895 
3831.737 -1075986 -1068384 -1051560 -1027595 -999662 -972025 -948518 -932351 
3835.594 -926102 -931061 -946964 -972322 -1004059 -1037875 -1069012 -1094230 
3839.452 -1111515 -1120438 -1122818 -1120901 -1117299 -1114556 -1114556 
3842.827 -1118389 -1125660 -1134649 -1142977 -1147571 -1145819 -1136136 
3846.202 -1119017 -1095651 -1068351 -1039098 -1009116 -978074 -945113 
3849.577 -909967 -873395 -839765 -816747 -814234 -842245 -907090 -1004290 
3853.435 -1117596 -1224034 -1302168 -1341907 -1344715 -1320304 -1279473 
3856.810 -1231468 -1182632 -1135773 -1092313 -1051989 -1014835 -981480 
3860.185 -952915 -930069 -914100 -905800 -905569 -913703 -930003 -953411 
3864.043 -981579 -1009678 -1031925 -1043098 -1040189 -1024190 -1000389 
3867.418 -977017 -962371 -963429 -982802 -1016587 -1055229 -1086728 -1101898 
3871.275 -1098130 -1079225 -1052783 -1027429 -1009810 -1002273 -1003463 
3874.651 -1008290 -1011364 -1008025 -997480 -981414 -963958 -949709 -942898 
3878.508 -945477 -957643 -976157 -995430 -1009315 -1012323 -1001447 -977546 
3882.365 -945047 -910396 -881133 -864467 -864599 -882191 -912513 -946402 
3886.223 -973678 -986174 -981149 -961181 -932384 -902428 -877992 -864203 
3890.080 -862549 -872007 -888904 -908280 -926102 -939459 -947526 -949841 
3893.938 -946667 -936880 -920448 -897071 -867972 -835465 -803584 -776695 
3897.795 -758471 -751756 -756155 -769386 -787478 -806329 -823064 -836854 
3901.653 -849057 -861756 -877364 -896542 -918233 -939724 -957610 -968652 
3905.510 -971595 -966537 -955131 -939823 -922994 -906263 -890557 -876239 
3909.367 -863012 -850611 -838574 -826437 -813506 -799384 -783079 -764656 
3913.225 -744976 -725029 -707299 -694530 -688741 -691288 -702072 -719175 
3917.082 -739452 -759595 -776497 -788437 -794787 -795680 -792009 -784832 
3920.940 -775372 -765020 -755725 -748846 -745703 -746927 -751558 -757842 
3924.797 -763267 -765251 -762241 -754402 -742660 -729694 -717785 -708787 
3928.655 -703594 -702171 -703792 -707133 -711235 -715370 -718612 -720597 
3932.512 -720828 -719307 -716363 -712790 -709581 -707762 -708192 -710508 
3936.369 -713915 -716925 -717785 -715370 -709482 -700782 -691189 -682422 
3940.227 -676401 -674317 -676996 -684043 -694497 -706770 -719141 -729429 
3944.084 -736045 -737732 -734325 -726617 -716131 -705082 -695456 -688641 
3947.942 -684936 -684043 -684672 -685068 -684142 -681396 -676500 -670148 
3951.799 -662539 -654367 -646361 -638818 -632333 -627734 -625120 -624061 
3955.656 -624028 -623863 -622175 -618172 -611356 -602158 -591668 -581278 
3959.514 -571914 -564468 -559240 -555765 -553449 -551728 -549478 -546202 
3963.371 -541403 -534586 -525850 -515921 -505099 -494806 -486267 -480111 
3967.229 -476702 -475676 -476404 -477894 -479085 -479516 -478589 -476603 
3971.086 -473359 -469057 -463629 -457009 -449197 -440260 -429867 -418314 
3974.944 -406066 -393222 -380874 -369750 -361077 -354853 -351707 -351078 
3978.801 -351608 -352535 -352800 -351972 -350350 -348794 -348132 -349258 
3982.658 -352568 -357302 -363129 -369088 -374518 -378954 -382165 -384085 
3986.516 -384582 -384085 -382893 -381172 -379848 -379119 -379616 -380874 
3990.373 -382231 -382695 -381238 -377630 -372068 -365678 -359719 -355415 
3994.231 -353197 -353032 -353727 -354091 -353098 -350052 -345483 -340385 
3998.088 -335981 -333631 -334326 -338233 -345218 -354588 
##END=
