
##TITLE=Z295_3_d
##JCAMP-DX=5.01  $$ Nicolet v. 1
##DATATYPE=INFRARED SPECTRUM
##ORIGIN=UniL
##OWNER=Nicolet
##LONGDATE=2011/09/09
##TIME=15:30:05
##SPECTROMETER/DATA SYSTEM=Nicolet iS5
##DATA PROCESSING=
Ratio against background
%Transmittance->Absorbance
Truncated
ElementMultiply or ElementDivide
##COMMENTS=
Number of sample scans: 32
Collection length: 51.19 sec
Sample gain: 2.0
Background collected on: Ven Sep 09 15:21:08 2011 (GMT+02:00);
Number of background scans: 32
Background gain: 2.0
Sample spacing:  1.000
Number of scan points: 12415
Resolution points: 8192
Number of FFT points: 65536
Apodization: N-B fort;
Phase correction: Mertz;
Laser frequency: 15798.0 cm-1
Number of rejected sample scans: 0
Number of rejected background scans: 0
Bench serial number: ASB1000141;
##RESOLUTION=4.000
##XUNITS=1/CM
##YUNITS=ABSORBANCE
##FIRSTX=649.893372
##LASTX=4000.122314
##FIRSTY=0.106332
##MAXX=4000.122314
##MINX=649.893372
##MAXY=0.288988
##MINY=-0.001711
##XFACTOR=1.000000
##YFACTOR=1.000000E-009
##NPOINTS=6950
##DELTAX=0.482117
##ZPD=6100
##XYDATA=(X++(Y..Y))
649.893 106332096 105238704 104202400 103247608 102374376 101571176 
652.786 100828048 100151200 99562064 99091272 98760928 98575160 98514840 
656.161 98545232 98629920 98742584 98873704 99026840 99207504 99416496 
659.536 99645456 99883560 100125872 100380048 100666128 101007168 101420576 
662.911 101906728 102449416 103019464 103588736 104135056 104641288 
665.803 105091560 105464760 105732240 105873896 105900960 105873432 
668.696 105871240 105957160 106144632 106402648 106675488 106903784 
671.589 107045280 107082376 107027128 106913104 106780168 106652192 
674.481 106527344 106381656 106184136 105915088 105575624 105186440 
677.374 104775176 104362104 103948832 103520568 103055840 102539992 
680.267 101972136 101365920 100738288 100101416 99457232 98799112 98120224 
683.642 97422320 96716800 96022264 95353480 94713904 94093904 93477344 
687.016 92852136 92220000 91598648 91015472 90497520 90057896 89691128 
690.391 89376888 89091192 88815680 88546520 88293520 88074320 87905808 
693.766 87797344 87750832 87764496 87838392 87978272 88194544 88497488 
697.141 88892152 89375504 89938168 90568672 91259800 92011624 92828952 
700.516 93715664 94668656 95672232 96702808 97733352 98741296 99715648 
703.890 100655560 101565400 102446776 103294600 104096568 104839784 
706.783 105517064 106131344 106694512 107221464 107722480 108199032 
709.676 108646568 109061784 109449848 109830376 110232360 110684744 
712.569 111205224 111789928 112412248 113027120 113587640 114053008 
715.461 114398696 114618960 114723208 114732992 114676904 114594672 
718.354 114537392 114563312 114738960 115124696 115757960 116644416 
721.247 117745024 118981024 120233440 121369224 122262920 122809384 
724.139 122954480 122701816 122118312 121315736 120433776 119612432 
727.032 118952088 118507688 118281880 118238848 118322728 118480400 
729.925 118677968 118901032 119150312 119429920 119738224 120065088 
732.817 120396176 120719992 121034288 121345568 121665616 122001744 
735.710 122352584 122708152 123056256 123389464 123710984 124033176 
738.603 124371056 124734240 125120264 125515880 125903336 126271264 
741.496 126618744 126956952 127301024 127661512 128037152 128415928 
744.388 128779512 129114912 129420608 129707320 129991400 130285008 
747.281 130589664 130895152 131185920 131449712 131685896 131905688 
750.174 132127152 132363800 132618768 132881912 133136464 133366224 
753.066 133565096 133738400 133899648 134062720 134234320 134413136 
755.959 134592208 134766480 134936192 135108384 135292304 135493968 
758.852 135710976 135934160 136151936 136357568 136553152 136748992 
761.744 136956464 137182560 137424480 137672480 137915712 138152112 
764.637 138394320 138670656 139019072 139474928 140064576 140794464 
767.530 141647888 142580960 143525056 144394464 145089120 145520544 
770.423 145634048 145429296 144974176 144397088 143864224 143517904 
773.315 143440816 143617936 143939184 144219600 144252624 143882272 
776.208 143028496 141709568 140012624 138058256 135948992 133737000 
779.101 131423888 128971576 126332688 123470952 120381312 117090040 
781.993 113651944 110135088 106612248 103157760 99834184 96693992 93777168 
785.368 91105496 88687760 86520488 84593352 82893616 81410088 80134752 
788.743 79062248 78187640 77506160 77011344 76697216 76561000 76604320 
792.118 76833984 77259832 77891832 78735664 79788688 81036096 82451160 
795.493 83993008 85604264 87219376 88762352 90155912 91339576 92278592 
798.867 92981448 93502160 93941600 94427840 95080528 95992552 97188880 
802.242 98611216 100102672 101429704 102326232 102520192 101816944 100140888 
805.617 97559512 94271504 90564256 86758936 83112112 79785336 76818840 
808.992 74147648 71641720 69158680 66601292 63933596 61189212 58444740 
812.367 55797624 53332820 51102968 49131644 47414292 45931256 44656300 
815.742 43563676 42630104 41833168 41152540 40570568 40073012 39651164 
819.116 39300668 39019760 38805400 38651916 38551240 38495372 38479552 
822.491 38505332 38579448 38712912 38916752 39197340 39556140 39988572 
825.866 40485632 41033912 41617200 42215844 42805400 43360980 43860116 
829.241 44288644 44648620 44960132 45264624 45616400 46079712 46720700 
832.616 47591720 48725892 50121224 51733052 53460552 55146912 56605864 
835.990 57623692 58010960 57646468 56495808 54631596 52210448 49454744 
839.365 46593456 43824816 41304616 39119596 37300440 35834644 34685040 
842.740 33803180 33138368 32646678 32288618 32029826 31844952 31715080 
846.115 31629582 31585072 31581576 31619280 31696298 31808052 31948078 
849.490 32111414 32294902 32498036 32721448 32965034 33227172 33505258 
852.865 33797808 34106288 34436688 34797816 35198516 35645876 36143064 
856.239 36690360 37287948 37938644 38649632 39433592 40307340 41287888 
859.614 42394920 43649068 45072340 46689704 48522472 50580808 52852508 
862.989 55292448 57818816 60307228 62614708 64594396 66113808 67089020 
866.364 67492952 67365904 66805980 65964364 65025716 64168988 63566560 
869.739 63358300 63635340 64449744 65808452 67681408 70000256 72662896 
873.113 75538360 78452360 81205432 83587376 85381776 86415240 86578072 
876.488 85841128 84262904 81976216 79170216 76043416 72792208 69586288 
879.863 66543088 63737280 61197872 58918680 56871720 55022068 53340836 
883.238 51810244 50427980 49202740 48149236 47279976 46600392 46107640 
886.613 45792320 45642828 45649412 45808264 46120644 46590652 47221756 
889.987 48014212 48963936 50065408 51314048 52710404 54260956 55978812 
893.362 57880972 59984440 62304276 64848296 67611520 70566224 73652872 
896.737 76773920 79778848 82480920 84677096 86161904 86781840 86456232 
900.112 85194352 83092448 80319408 77095544 73641568 70172392 66872032 
903.487 63869648 61253572 59068528 57323116 56003844 55082776 54528540 
906.862 54309088 54398012 54776020 55429608 56351000 57536492 58985360 
910.236 60697356 62671052 64898348 67360104 70019368 72813648 75661944 
913.611 78463752 81111408 83514608 85607416 87365136 88806496 89993120 
916.986 91017600 91980376 92982104 94095304 95346712 96707072 98085288 
920.361 99342760 100299856 100783416 100661992 99876632 98472232 96600488 
923.736 94518536 92531752 90971024 90146616 90276472 91472400 93703448 
927.110 96803832 100468440 104291488 107849664 110712272 112529352 113083688 
930.485 112281520 110161256 106852800 102555104 97493192 91895784 86002776 
933.860 80035536 74197840 68678872 63625096 59146468 55315108 52161352 
937.235 49687800 47877084 46701660 46125472 46101192 46567524 47431736 
940.610 48567420 49826948 51035656 52024440 52657916 52840796 52541228 
943.985 51788260 50665468 49288616 47783644 46275576 44860964 43606868 
947.359 42551120 41703232 41054124 40582828 40264840 40073776 39984140 
950.734 39972952 40017128 40094776 40187308 40279564 40362532 40433804 
954.109 40497016 40559364 40629104 40714616 40821976 40955076 41116952 
957.484 41309316 41533192 41788004 42071732 42380856 42710740 43057524 
960.859 43418904 43794360 44185148 44592664 45017392 45458652 45914796 
964.233 46384656 46868308 47367840 47886740 48427820 48992348 49580224 
967.608 50189620 50819236 51469800 52143940 52846332 53581536 54352272 
970.983 55159628 56003128 56882448 57799624 58759100 59767088 60830092 
974.358 61952408 63135876 64380756 65687680 67058980 68500416 70019256 
977.733 71623864 73321744 75119512 77025232 79050880 81214104 83540672 
981.108 86059808 88801776 91793848 95054376 98590880 102395640 106443760 
984.482 110683464 115025800 119348840 123480904 127213208 130333272 
987.375 132629472 133935136 134158152 133286776 131398600 128642616 
990.268 125236912 121429040 117468624 113603312 110034072 106911320 
993.160 104337536 102358568 100979864 100178112 99915752 100150904 100843384 
996.535 101961072 103474984 105358336 107587128 110135384 112975968 
999.428 116080240 119408640 122905056 126492840 130060240 133470280 
1002.321 136574800 139218544 141273776 142656688 143336128 143342384 
1005.213 142763328 141742016 140447872 139071552 137808032 136821088 
1008.106 136247744 136184768 136683312 137762672 139416496 141626320 
1010.999 144368224 147618656 151356928 155559648 160201968 165259024 
1013.891 170703488 176509712 182648480 189069056 195687232 202361856 
1016.784 208871584 214940048 220245648 224460400 227332880 228719424 
1019.677 228634656 227249936 224894352 222012736 219072176 216557376 
1022.570 214885488 214351248 215142304 217312688 220806640 225473408 
1025.462 231105696 237472352 244312208 251372400 258403360 265143808 
1028.355 271353088 276812096 281340064 284827264 287235072 288595840 
1031.249 288988192 288524288 287327424 285511040 283184352 280440128 
1034.142 277343840 273933472 270209600 266142096 261679264 256772576 
1037.035 251398832 245572720 239351568 232825248 226108528 219317136 
1039.928 212562928 205952800 199574224 193497408 187767552 182392128 
1042.821 177340864 172545360 167920000 163373200 158834736 154276544 
1045.714 149718896 145230320 140908800 136876544 133253992 130142096 
1048.607 127624736 125753712 124550624 124009856 124102264 124781136 
1051.500 125985664 127653288 129721608 132129400 134821168 137735808 
1054.393 140797520 143916096 146973520 149828448 152337872 154355536 
1057.286 155756096 156453984 156404544 155618144 154158112 152148512 
1060.179 149760208 147192304 144673008 142417376 140612960 139418880 
1063.072 138941360 139241232 140335488 142200656 144773728 147950096 
1065.965 151597984 155546608 159598256 163559648 167237984 170469360 
1068.858 173138416 175167216 176517808 177181200 177166448 176494576 
1071.751 175194352 173304160 170868800 167939952 164581168 160866912 
1074.645 156889088 152768320 148642400 144669392 141021056 137852048 
1077.538 135301488 133479032 132449048 132235048 132810640 134102600 
1080.431 135979248 138254176 140708240 143078704 145106416 146578496 
1083.324 147343792 147358768 146688752 145505536 144047296 142582368 
1086.217 141391280 140708000 140714176 141527856 143187280 145656608 
1089.110 148821920 152514832 156507712 160537264 164350928 167703152 
1092.003 170391600 172278544 173278784 173367120 172567440 170947824 
1094.896 168607040 165660112 162237440 158462576 154447232 150295424 
1097.789 146093648 141917072 137832512 133888688 130115672 126518920 
1100.682 123078608 119753808 116493608 113254952 110013584 106776696 
1103.575 103582768 100500680 97618288 95023816 92806672 91041832 89783768 
1106.950 89072200 88927080 89351984 90335216 91851608 93863856 96319760 
1110.326 99158712 102307064 105673744 109157208 112634304 115961304 
1113.219 118993616 121582360 123596496 124944520 125573560 125479384 
1116.112 124697896 123301512 121386800 119058560 116431480 113611272 
1119.005 110685512 107725744 104778336 101869608 99014264 96221584 93503768 
1122.380 90881400 88381072 86034488 83874096 81926592 80213696 78752344 
1125.755 77555512 76636768 76011128 75693736 75699296 76037616 76709984 
1129.131 77706304 79003224 80564920 82338240 84256024 86239648 88194056 
1132.506 90025040 91646960 92992904 94033664 94781200 95291080 95647208 
1135.881 95954816 96321376 96832192 97546696 98483208 99618496 100886312 
1139.256 102184712 103395688 104385232 105028632 105227096 104906568 
1142.149 104029120 102588248 100604176 98117640 95185912 91884480 88297184 
1145.525 84516296 80640080 76756640 72946848 69279104 65803020 62556044 
1148.900 59563068 56837388 54384796 52204168 50288560 48626636 47203176 
1152.275 46002160 45006620 44201620 43576020 43121336 42832204 42705368 
1155.650 42738088 42928608 43275568 43779740 44443544 45271756 46270416 
1159.026 47445228 48800556 50338120 52056972 53952008 56012700 58222088 
1162.401 60551132 62957576 65388216 67774584 70041792 72116568 73925296 
1165.776 75404552 76503976 77184264 77424336 77220960 76591000 75568448 
1169.151 74201768 72550656 70674680 68634000 66485932 64279236 62059348 
1172.527 59866984 57735396 55694332 53767804 51973156 50323980 48829360 
1175.902 47494792 46323860 45318392 44478600 43803304 43289700 42934060 
1179.277 42732240 42681316 42780608 43031692 43438420 44005476 44737056 
1182.652 45635244 46700516 47930548 49320800 50861996 52536856 54319304 
1186.028 56167656 58025688 59829332 61504232 62978380 64191000 65092424 
1189.403 65653452 65865868 65743536 65319388 64643032 63778876 62793828 
1192.778 61755804 60730848 59772636 58927028 58229820 57704212 57364256 
1196.153 57213824 57246560 57445448 57782436 58220652 58710852 59195452 
1199.529 59613424 59896344 59978772 59804540 59328488 58529428 57412240 
1202.904 56011568 54384904 52606712 50761580 48925960 47166904 45536728 
1206.279 44067928 42778304 41672740 40747220 39991336 39391288 38932228 
1209.654 38597988 38373524 38246932 38208652 38253264 38378480 38583216 
1213.030 38867036 39228420 39664924 40172804 40747620 41383000 42071076 
1216.405 42800244 43554228 44314876 45061828 45775308 46439996 47043888 
1219.780 47578888 48040228 48425004 48732488 48965160 49130940 49243820 
1223.155 49323212 49394484 49484452 49618148 49819108 50104456 50485032 
1226.531 50965080 51541240 52201964 52926796 53689920 54460396 55205940 
1229.906 55900268 56523208 57064428 57524236 57912548 58249220 58561736 
1233.281 58888060 59273684 59767276 60422444 61288940 62408280 63814344 
1236.656 65529288 67565104 69925864 72608768 75603384 78888688 82433208 
1240.031 86190872 90100456 94095184 98100200 102037760 105835216 109417280 
1243.407 112709328 115644168 118158208 120201672 121742528 122765288 
1246.300 123270128 123268640 122782304 121840296 120478680 118742768 
1249.193 116679656 114333456 111740640 108922744 105889120 102643352 
1252.086 99192224 95556576 91778456 87917656 84053520 80275440 76666736 
1255.461 73306248 70255544 67551720 65209992 63219728 61548632 60142000 
1258.836 58930788 57839292 56785988 55699112 54522488 53218012 51771908 
1262.212 50191328 48501984 46739736 44948152 43172716 41453280 39824792 
1265.587 38313700 36936216 35699872 34603620 33639924 32796126 32057866 
1268.962 31411998 30846978 30354144 29927748 29562734 29254804 28999832 
1272.337 28793796 28633898 28519314 28450572 28429486 28457326 28533962 
1275.713 28656832 28819996 29013222 29222870 29430530 29613386 29748770 
1279.088 29814098 29792486 29676142 29467336 29177438 28823182 28423720 
1282.463 27995468 27549984 27096070 26639602 26187834 25751126 25342674 
1285.838 24977950 24673356 24442336 24296262 24243948 24292232 24447944 
1289.214 24718214 25109050 25625312 26268750 27036402 27919528 28901264 
1292.589 29956786 31048084 32126896 33138584 34022784 34727716 35217636 
1295.964 35478188 35520764 35378716 35103492 34751048 34377760 34034792 
1299.339 33760416 33582968 33518572 33570796 33729868 33972300 34264808 
1302.715 34564004 34824384 35006508 35077520 35018040 34822408 34496952 
1306.090 34058368 33530022 32941904 32324992 31709556 31124110 30589862 
1309.465 30121538 29726628 29407094 29161634 28989134 28889506 28863938 
1312.840 28913482 29037664 29233752 29497372 29824462 30212996 30663638 
1316.216 31179216 31763312 32417878 33142910 33936612 34796456 35721132 
1319.591 36709756 37760128 38866092 40013312 41178948 42329788 43423076 
1322.966 44414220 45257712 45914868 46363788 46603196 46658900 46579772 
1326.341 46438708 46317708 46291352 46421340 46739920 47247728 47916412 
1329.717 48698980 49542864 50397652 51228140 52015620 52757016 53462204 
1333.092 54150216 54846244 55576332 56365672 57234688 58193640 59240756 
1336.467 60360264 61525688 62699876 63840896 64907932 65859772 66660592 
1339.842 67282760 67707944 67930664 67958128 67808864 67507896 67082800 
1343.218 66562204 65970144 65326436 64647144 63942464 63218884 62479820 
1346.593 61725592 60954440 60162584 59345164 58497164 57615856 56702808 
1349.968 55766960 54826616 53908304 53049804 52295236 51691096 51286716 
1353.343 51125216 51239624 51648032 52346332 53304352 54461524 55737460 
1356.719 57034764 58248272 59286288 60070348 60545496 60686724 60497544 
1360.094 60012744 59291152 58419948 57504528 56652220 55969580 55536644 
1363.469 55392640 55532800 55909164 56444716 57039036 57589036 57996376 
1366.844 58171588 58055340 57622520 56890644 55913460 54772636 53560732 
1370.219 52357176 51226836 50212752 49337280 48613588 48051036 47660416 
1373.595 47454908 47444672 47630356 47998708 48523660 49174092 49918972 
1376.970 50736292 51614036 52548600 53543116 54605744 55750044 56993468 
1380.345 58357180 59859836 61506332 63275068 65104776 66899472 68524744 
1383.720 69827560 70666144 70911648 70477320 69337208 67548352 65260432 
1387.096 62693408 60112580 57748336 55752192 54188956 53042464 52249496 
1390.471 51724540 51385612 51157832 50974028 50778376 50519164 50152612 
1393.846 49652024 49011596 48250716 47404280 46510800 45597300 44673704 
1397.221 43738844 42791212 41840212 40914844 40058948 39318552 38729612 
1400.597 38305192 38037836 37906028 37885888 37956648 38104824 38324444 
1403.972 38613744 38971552 39394840 39877420 40411332 40989268 41606188 
1407.347 42259992 42950848 43679372 44444096 45241644 46065120 46906588 
1410.722 47758456 48614148 49469448 50321004 51164912 51996836 52812580 
1414.098 53610328 54392228 55165348 55940668 56730260 57545380 58394172 
1417.473 59281772 60209664 61175136 62167456 63167872 64147896 65073444 
1420.848 65908864 66623232 67196768 67621592 67908072 68085504 68201104 
1424.223 68306800 68447776 68652480 68927408 69264952 69651552 70076984 
1427.599 70535896 71026552 71548104 72098528 72676016 73283024 73929888 
1430.974 74635240 75419064 76297984 77277216 78350944 79503488 80718840 
1434.349 81987256 83306424 84683208 86127520 87647680 89239776 90890176 
1437.724 92579440 94282456 95968664 97593568 99101136 100413120 101437064 
1441.100 102086040 102278968 101956120 101085112 99656880 97689696 95227912 
1444.475 92349456 89156936 85762728 82290784 78855040 75557640 72494736 
1447.850 69742304 67349696 65329516 63658708 62291424 61178532 60289756 
1451.225 59621788 59195260 59035804 59154936 59530348 60106492 60790224 
1454.601 61464496 62007444 62296892 62252380 61873008 61262196 60589192 
1457.976 60013960 59639692 59496752 59573176 59843252 60281040 60863064 
1461.351 61560852 62339808 63151056 63930684 64613500 65138652 65471924 
1464.726 65618076 65623240 65556264 65479048 65435476 65440140 65484904 
1468.102 65545744 65588668 65572680 65444336 65141388 64597048 63753432 
1471.477 62591480 61157056 59573368 58001340 56590576 55432580 54548336 
1474.852 53914756 53494696 53261048 53202172 53316712 53600844 54038496 
1478.227 54598756 55243152 55931100 56631532 57329848 58027396 58740700 
1481.603 59494552 60318420 61240180 62288024 63494840 64897776 66538112 
1484.978 68452040 70657832 73138664 75825376 78601192 81289328 83667240 
1488.353 85501584 86555712 86641936 85672264 83684960 80851096 77420496 
1491.728 73667640 69814600 65999344 62297660 58729284 55295084 52012484 
1495.104 48924104 46104988 43648744 41634960 40105208 39052312 38436580 
1498.479 38201632 38292816 38666368 39284344 40111204 41111524 42244396 
1501.854 43464968 44728944 45980172 47152276 48162676 48890692 49182812 
1505.229 48864364 47784940 45906068 43366760 40459516 37493396 34677252 
1508.604 32086618 29706050 27491738 25410542 23451208 21627524 19964120 
1511.980 18479454 17180778 16059985 15098347 14273963 13565442 12954125 
1515.355 12420786 11947425 11519932 11131034 10783582 10486811 10249643 
1518.730 10072147 9942455 9836053 9725914 9592192 9435215 9277989 9154625 
1522.588 9090504 9088135 9130397 9190124 9244006 9279140 9298807 9317900 
1526.445 9355173 9421772 9516660 9629083 9746855 9863235 9980427 10107010 
1530.302 10251678 10417028 10597414 10779404 10948184 11095953 11227860 
1533.678 11362086 11519047 11711874 11939387 12189613 12445198 12690427 
1537.053 12915484 13114771 13285759 13426432 13532488 13597645 13619287 
1540.428 13604312 13569373 13533719 13510440 13499196 13487438 13455447 
1543.803 13387338 13277320 13134954 12980719 12838176 12722600 12634718 
1547.179 12562816 12489288 12399851 12289265 12164567 12041640 11938025 
1550.554 11863105 11815061 11783159 11754392 11720350 11680593 11642438 
1553.929 11617322 11614225 11635121 11674398 11720384 11759498 11775670 
1557.304 11751260 11669395 11520136 11313723 11084600 10880161 10735114 
1560.680 10658839 10639450 10654492 10679281 10690522 10672286 10618160 
1564.055 10533656 10433930 10337959 10261347 10208459 10173114 10141197 
1567.430 10098294 10034100 9946490 9841577 9731911 9631692 9551173 9496306 
1571.288 9468299 9466301 9487568 9526889 9576103 9622071 9649816 9646394 
1575.145 9607199 9541757 9472702 9427494 9424244 9464744 9538472 9630574 
1579.002 9728692 9826359 9923505 10023081 10128376 10240415 10357233 
1582.378 10475848 10594257 10711986 10829983 10947946 11061896 11163772 
1585.753 11244012 11293591 11309370 11295360 11262918 11227487 11205012 
1589.128 11210078 11253057 11341816 11482405 11678312 11929102 12226281 
1592.503 12552107 12878109 13168390 13389764 13514406 13528454 13434053 
1595.879 13247874 12996628 12709226 12415227 12138977 11899610 11713168 
1599.254 11590914 11540041 11562670 11656631 11816763 12037314 12315103 
1602.629 12648432 13035551 13471340 13943559 14431844 14911178 15352700 
1606.004 15728323 16015874 16197914 16264539 16213495 16049154 15781578 
1609.380 15425306 15000140 14528860 14037114 13552041 13096194 12684866 
1612.755 12324477 12011732 11737268 11488087 11251731 11018426 10783990 
1616.130 10552803 10336908 10153407 10017892 9939439 9918115 9946490 
1619.505 10011721 10098429 10192347 10281737 10361508 10433862 10508264 
1622.881 10597007 10710117 10851453 11018392 11204366 11403447 11612864 
1626.256 11831847 12060138 12295571 12532565 12764023 12984133 13191308 
1629.631 13389183 13584278 13783017 13988246 14197818 14404441 14598005 
1633.006 14768002 14904320 14999214 15048743 15054335 15023292 14969821 
1636.382 14910905 14859985 14823950 14801563 14785690 14765773 14730569 
1639.757 14672781 14591152 14492135 14387282 14289817 14209013 14146571 
1643.132 14096322 14045875 13981164 13889468 13763488 13604552 13423835 
1646.507 13239231 13071778 12940197 12855787 12822136 12835788 12888177 
1649.883 12965493 13047603 13108965 13116308 13036438 12853535 12591432 
1653.258 12317046 12102860 11987139 11961083 11991294 12041912 12087018 
1656.633 12113559 12117511 12101804 12072062 12033396 11987275 11931894 
1660.008 11863071 11776146 11667931 11538068 11389195 11227928 11063798 
1663.384 10907206 10768060 10652591 10562208 10492718 10434541 10375320 
1666.759 10300296 10196451 10055599 9876997 9669331 9447879 9231110 9033902 
1670.616 8865154 8726254 8613558 8519340 8432879 8342146 8232926 8093215 
1674.474 7918421 7715500 7504887 7310987 7153518 7038131 6957486 6896010 
1678.331 6837943 6773388 6700902 6627653 6564139 6518158 6488190 6461856 
1682.188 6416625 6327556 6176929 5967396 5727847 5504504 5335445 5232679 
1686.046 5184189 5166552 5158505 5144187 5115756 5071838 5014953 4950099 
1689.903 4883076 4820822 4769832 4735261 4719719 4720355 4728796 4730672 
1693.761 4709804 4652062 4553476 4425823 4296702 4198062 4147815 4143834 
1697.618 4164842 4182740 4167418 4097439 3968616 3802426 3639775 3519439 
1701.476 3459784 3453104 3478421 3512123 3535239 3536207 3509985 3458882 
1705.333 3391421 3320165 3255296 3203388 3165371 3138036 3116043 3094618 
1709.190 3071460 3047201 3025079 3009097 3002825 3007229 3020374 3037958 
1713.048 3054775 3067222 3073729 3074730 3071293 3063084 3047268 3019207 
1716.905 2975701 2918522 2856248 2802420 2768873 2761370 2778610 2813625 
1720.763 2856982 2900576 2939238 2971230 2998087 3022443 3047334 3073895 
1724.620 3101893 3130294 3158462 3186532 3214370 3241576 3266079 3285275 
1728.478 3296960 3300733 3299064 3295992 3295024 3295525 3291485 3270452 
1732.335 3216039 3114808 2963724 2778577 2590642 2436141 2336958 2293586 
1736.192 2291321 2309708 2330528 2340189 2331827 2305311 2266473 2223775 
1740.050 2185810 2158304 2142720 2137992 2141555 2150912 2164331 2180549 
1743.907 2198898 2219146 2240894 2264042 2287857 2310908 2331228 2346319 
1747.765 2353747 2351882 2339789 2317103 2283993 2241260 2190772 2136427 
1751.622 2083887 2039875 2009649 1995768 1996700 2007053 2018238 2021666 
1755.479 2009882 1980723 1937321 1888099 1842544 1807207 1783218 1766517 
1759.337 1750149 1727029 1692733 1647064 1594650 1542474 1497952 1466201 
1763.194 1448847 1444359 1449113 1458954 1469060 1474646 1472119 1459585 
1767.052 1438674 1414407 1393963 1384025 1386883 1399614 1413875 1419360 
1770.909 1406828 1373056 1322735 1268731 1225367 1202507 1201776 1217093 
1774.767 1239954 1261952 1279299 1291960 1302628 1313961 1326723 1338920 
1778.624 1347329 1348825 1343274 1333204 1323865 1319677 1322868 1331609 
1782.481 1341314 1346997 1344870 1333702 1315689 1294785 1274978 1259194 
1786.339 1249225 1246101 1250587 1263281 1284450 1312665 1343540 1370928 
1790.196 1387548 1386916 1366408 1328750 1281259 1233408 1193469 1165528 
1794.054 1149382 1141840 1139183 1138651 1138319 1137123 1133967 1127854 
1797.911 1117158 1101512 1081415 1058463 1035878 1016349 1001736 992404 
1801.769 987057 984533 983769 984068 985762 988950 993566 998813 1004227 
1806.108 1009341 1014455 1019902 1025847 1031228 1034350 1033021 1025748 
1809.966 1012729 996488 980315 968194 962383 962815 967298 972810 977061 
1814.305 979219 980382 982872 988950 1000407 1016980 1037937 1061486 1086398 
1818.645 1111710 1137256 1162837 1188087 1212740 1236133 1258197 1278667 
1822.502 1297078 1312565 1323964 1330545 1332905 1333736 1337325 1347761 
1826.360 1367571 1395692 1427937 1457325 1476773 1482226 1474047 1458023 
1830.217 1442597 1436580 1444592 1466301 1497587 1532998 1568678 1602565 
1834.074 1635390 1668983 1704841 1742997 1782586 1822180 1861644 1902709 
1837.932 1949269 2005521 2074865 2158338 2254183 2358212 2464964 2569010 
1841.789 2664979 2749099 2819428 2877327 2927429 2977035 3034455 3105130 
1845.647 3189903 3284341 3380535 3469035 3541853 3594135 3625140 3637436 
1849.504 3634763 3620329 3594904 3556852 3504006 3435036 3351083 3256464 
1853.362 3156693 3056711 2959654 2865620 2773341 2681349 2589875 2500587 
1857.219 2416483 2339623 2270237 2206324 2144918 2083421 2021133 1959121 
1861.076 1899680 1844806 1795129 1749916 1708067 1669382 1635157 1607786 
1864.934 1589196 1578820 1572834 1565153 1548792 1520030 1479766 1434685 
1868.791 1394628 1368735 1361655 1372424 1395226 1422285 1447717 1467797 
1872.649 1481195 1488543 1490239 1486748 1478469 1466666 1453534 1441932 
1876.506 1434585 1432325 1433455 1433954 1429300 1416335 1394927 1367671 
1880.364 1338588 1311136 1286909 1264378 1240618 1213139 1181608 1147953 
1884.221 1115962 1089420 1070088 1056769 1046340 1035213 1021098 1003728 
1888.078 985031 967763 954646 946543 943389 943787 946908 951989 958929 
1892.418 966600 974371 981112 985961 989548 993599 1000341 1011466 1026611 
1896.758 1043649 1059094 1070022 1075403 1076399 1076233 1077529 1082013 
1900.615 1088656 1094901 1097991 1096728 1092011 1086796 1084205 1085966 
1904.472 1091413 1099020 1106096 1111510 1116228 1122539 1132306 1146026 
1908.330 1161408 1174897 1183369 1185030 1180811 1173800 1166990 1162139 
1912.187 1158352 1153235 1144531 1131409 1115131 1098588 1083209 1069125 
1916.045 1053580 1032888 1004359 968394 929642 894180 867486 850554 839466 
1920.384 827880 808892 779050 740348 699094 663950 641982 635843 643309 
1924.724 659171 677456 694016 707922 718940 728001 735070 739717 741675 
1929.063 742074 743368 748712 759565 774768 790336 800958 802286 793024 
1933.403 775564 754520 734141 716285 699392 680509 657611 631032 605283 
1937.743 586570 578806 582323 592044 600240 599609 586935 565070 541681 
1942.082 525890 523070 533653 552596 572900 589490 601567 611853 625258 
1946.422 645466 672478 704570 738854 773739 809921 849226 891723 933626 
1950.761 968028 986160 982109 955642 913405 866424 825755 797472 780510 
1955.101 768361 751201 722591 681372 633056 585541 546458 518923 500380 
1959.441 486149 470824 453211 434936 419679 410326 406280 405020 402964 
1963.780 399382 396464 399879 414903 444654 487045 536572 584944 626054 
1968.120 656483 675100 682567 678352 661262 630899 588660 539923 493314 
1972.459 456794 436229 431619 438750 453775 474772 507479 561554 647225 
1976.799 767830 916061 1073576 1216827 1327055 1394030 1420390 1417731 
1980.656 1401642 1384856 1375116 1374418 1380867 1392135 1407293 1424845 
1984.514 1444259 1463242 1477605 1484287 1482525 1474313 1464273 1456693 
1988.371 1452604 1447783 1436081 1409720 1366009 1309208 1248095 1195363 
1992.229 1159880 1144332 1144764 1152770 1160910 1166724 1173036 1185761 
1996.086 1210880 1249524 1298008 1348592 1393465 1428601 1453634 1471587 
1999.944 1484720 1492234 1489740 1470224 1428036 1362685 1280063 1190147 
2003.801 1105797 1037239 991607 970386 972345 995426 1036176 1090550 1152139 
2008.141 1212541 1262517 1296114 1313462 1320674 1328385 1346498 1379903 
2011.998 1426374 1475776 1515608 1536289 1534893 1515874 1488244 1461613 
2015.855 1442564 1433056 1431726 1438043 1453867 1482858 1529207 1593087 
2019.713 1668784 1745292 1810534 1855222 1875953 1876452 1864173 1845771 
2023.570 1825341 1802682 1775932 1744627 1711959 1684650 1670447 1673340 
2027.428 1692899 1722870 1754973 1783485 1808239 1833859 1867301 1914557 
2031.285 1976429 2049197 2127004 2205025 2283494 2365741 2456400 2556444 
2035.143 2662846 2766105 2856415 2925927 2972498 2999521 3015403 3026647 
2039.000 3038425 3051605 3063518 3071793 3075430 3074630 3071793 3068556 
2042.857 3065086 3060314 3052706 3042763 3033120 3028582 3034221 3054909 
2046.715 3092516 3146647 3215271 3295525 3383006 3472075 3555048 3622701 
2050.572 3666941 3684050 3675562 3650200 3619995 3598579 3594904 3611041 
2054.430 3640978 3674960 3702429 3717099 3719205 3714593 3710783 3713858 
2058.287 3725889 3744671 3765793 3786248 3805033 3824487 3847452 3875500 
2062.145 3907863 3940295 3968047 3988244 4000049 4006068 4009981 4015365 
2066.002 4023491 4033558 4044192 4053825 4062420 4070715 4079344 4087639 
2069.859 4093626 4094596 4088776 4076367 4060346 4044828 4032889 4026000 
2073.717 4022387 4018676 4011853 4001219 3988679 3978212 3974401 3979818 
2077.574 3994263 4015231 4038909 4062688 4085431 4106972 4128446 4149655 
2081.432 4169559 4186420 4199635 4209136 4217166 4225865 4236304 4247681 
2085.289 4256815 4259759 4253938 4238948 4217200 4192944 4170194 4150758 
2089.146 4133965 4117307 4098375 4076033 4051517 4027203 4005934 3988980 
2093.004 3975504 3963499 3951362 3939057 3928258 3921504 3920568 3925449 
2096.861 3933440 3941097 3946146 3948487 3950961 3957615 3971692 3993728 
2100.719 4021451 4050714 4077905 4102255 4125670 4152631 4187022 4230382 
2104.576 4280840 4334116 4385088 4430108 4468738 4502283 4532717 4561010 
2108.434 4586023 4604876 4615525 4616831 4611205 4602330 4594763 4591113 
2112.291 4591649 4593792 4594394 4591213 4584281 4575944 4569649 4569012 
2116.148 4575643 4589103 4607923 4630360 4654942 4680698 4707593 4734558 
2120.006 4760184 4782930 4801926 4816835 4828997 4840321 4852384 4865853 
2123.863 4880094 4894000 4906801 4918496 4929656 4941117 4952747 4962030 
2127.721 4966387 4962499 4949026 4927075 4900200 4872286 4846821 4825077 
2131.578 4805678 4786716 4767955 4750570 4739415 4739984 4755996 4787620 
2135.436 4830705 4877682 4920440 4953350 4973794 4981703 4978754 4965449 
2139.293 4941921 4908343 4866088 4819080 4773349 4735395 4709134 4694765 
2143.150 4687463 4680631 4667468 4644694 4613817 4579527 4547214 4520730 
2147.008 4500040 4481593 4461139 4434426 4399848 4356974 4307042 4250357 
2150.865 4186453 4115100 4036467 3952465 3865371 3775586 3681243 3576195 
2154.723 3453571 3310582 3152955 2998954 2875893 2817628 2851579 2988278 
2158.580 3215872 3501902 3803295 4077103 4292786 4436166 4507740 4518454 
2162.438 4485376 4427396 4361391 4301320 4255711 4228006 4214490 4205423 
2166.295 4190669 4160460 4110450 4043557 3968783 3896429 3835050 3788053 
2170.152 3752191 3719840 3683181 3636735 3580638 3520173 3462355 3414764 
2174.010 3382705 3366944 3366176 3376361 3391254 3405046 3410289 3400171 
2177.867 3370517 3321400 3256798 3186799 3123385 3075898 3050037 3043597 
2181.725 3048869 3054608 3052306 3037324 3011533 2980505 2950246 2925461 
2185.582 2907547 2895673 2888535 2886233 2889936 2902444 2924493 2954850 
2189.439 2989813 3024445 3054308 3077600 3095086 3108501 3120415 3131595 
2193.297 3141841 3151419 3160831 3172947 3191338 3219277 3256965 3300767 
2197.154 3344906 3382004 3406816 3417402 3415632 3406081 3393659 3382105 
2201.012 3373355 3367178 3363138 3360834 3360132 3360733 3361869 3362169 
2204.869 3359765 3354890 3349514 3347277 3352419 3367679 3392390 3422679 
2208.727 3452002 3474747 3488341 3493418 3494453 3496658 3503505 3515931 
2212.584 3531397 3545695 3555282 3558389 3555282 3547231 3535139 3518771 
2216.441 3497560 3471139 3441114 3410924 3386145 3370050 3364874 3368681 
2220.299 3376261 3381670 3380535 3370384 3352719 3330682 3307277 3285042 
2224.156 3265011 3246883 3231528 3219811 3213569 3214337 3221981 3235066 
2228.014 3250689 3266246 3280368 3293622 3307444 3322736 3338963 3353688 
2231.871 3363639 3366310 3361368 3351584 3341701 3336492 3338495 3347744 
2235.729 3361835 3376962 3390620 3402742 3414764 3429826 3450065 3475715 
2239.586 3505576 3537644 3569981 3602655 3636601 3673256 3712621 3754096 
2243.443 3795641 3835418 3872659 3908030 3943237 3979885 4017706 4054627 
2247.301 4086334 4108443 4118043 4114498 4099914 4078575 4055497 4035263 
2251.158 4021284 4016201 4021451 4038006 4065296 4101352 4142362 4182740 
2255.016 4216832 4240687 4252097 4252264 4244268 4232155 4219207 4207397 
2258.873 4197059 4187792 4179495 4172403 4167552 4165377 4165411 4166548 
2262.730 4166782 4164173 4158486 4150692 4142864 4137244 4135572 4137579 
2266.588 4142730 4149119 4155275 4160727 4165143 4168355 4170194 4170161 
2270.445 4167552 4162433 4155709 4148918 4143566 4141191 4141258 4143466 
2274.303 4146744 4151126 4157716 4168857 4186253 4210843 4241725 4275654 
2278.160 4308548 4336759 4357777 4371800 4380402 4386225 4391715 4398911 
2282.018 4408718 4421572 4437873 4457590 4480087 4504493 4528498 4549458 
2285.875 4564794 4573265 4574872 4571021 4564190 4556389 4549190 4542862 
2289.732 4537605 4533453 4531344 4533152 4540719 4555552 4578087 4607153 
2293.590 4640575 4675941 4710976 4743736 4773383 4798844 4819080 4833419 
2297.447 4841326 4843270 4840656 4835698 4830772 4827422 4826082 4825680 
2301.305 4824775 4821358 4814624 4804807 4792947 4780552 4769296 4760117 
2305.162 4753484 4749464 4747957 4748627 4750670 4752881 4753484 4751106 
2309.020 4744473 4734256 4722365 4710976 4702971 4700057 4701698 4706555 
2312.877 4711881 4715632 4716302 4713823 4709067 4703071 4696808 4689841 
2316.734 4682204 4673396 4663616 4653803 4645397 4639871 4638431 4641814 
2320.592 4650186 4663047 4679190 4696406 4710708 4717240 4710440 4685119 
2324.449 4638800 4572361 4490465 4400183 4309753 4226802 4155910 4098710 
2328.307 4053791 4018475 3989916 3966442 3948052 3935346 3929261 3929495 
2332.164 3935212 3944875 3956913 3970455 3985736 4002858 4021819 4042487 
2336.021 4063691 4084662 4104764 4123930 4142697 4161965 4181937 4202847 
2339.879 4224661 4247312 4271371 4297371 4325649 4355735 4386125 4414810 
2343.736 4440384 4463081 4485878 4513833 4552806 4607789 4680631 4769698 
2347.594 4869573 4973526 5073883 5163266 5236435 5289828 5321860 5333164 
2351.451 5326656 5306363 5276982 5242941 5207528 5172587 5138957 5106872 
2355.309 5076699 5049714 5027288 5011266 5003020 5003121 5011366 5027054 
2359.166 5049311 5077739 5112336 5152905 5198776 5248575 5299823 5350170 
2363.023 5397605 5441187 5481283 5519034 5555681 5592364 5629520 5667351 
2366.881 5706260 5746783 5789225 5834323 5881912 5931252 5980699 6029580 
2370.738 6077022 6124167 6172627 6223917 6279515 6339256 6402098 6466531 
2374.596 6531713 6597308 6664529 6734687 6809064 6888301 6971560 7057461 
2378.453 7144457 7231707 7319041 7406797 7495751 7585937 7676917 7767579 
2382.311 7856472 7942482 8024896 8103241 8177853 8248526 8315327 8378322 
2386.168 8437170 8492004 8542757 8588887 8629545 8663480 8689339 8706342 
2390.025 8715132 8717397 8716045 8713949 8713375 8715369 8719223 8723347 
2393.883 8726728 8728655 8730041 8732407 8737850 8747722 8762090 8780213 
2397.740 8800973 8823121 8846487 8871410 8898939 8930020 8965367 9004639 
2401.598 9047535 9093007 9140819 9190938 9243634 9299687 9360150 9425903 
2405.455 9498033 9577593 9664960 9760207 9862659 9970358 10081439 10194043 
2409.313 10306607 10418827 10530601 10642098 10753488 10863955 10972616 
2412.688 11078415 11180499 11278764 11373515 11464918 11552665 11635632 
2416.063 11712316 11781321 11841585 11893310 11937208 11974741 12006963 
2419.438 12034418 12057481 12076252 12091584 12105075 12118840 12134819 
2422.813 12154105 12176765 12201607 12226997 12252046 12276825 12302968 
2426.189 12332930 12369679 12415603 12471693 12538669 12616298 12704245 
2429.564 12802241 12910193 13027629 13153601 13286988 13426227 13570330 
2432.939 13718585 13871235 14028455 14190285 14356835 14527558 14702428 
2436.314 14881587 15065655 15255739 15452703 15656937 15867934 16084364 
2439.690 16305270 16529694 16757680 16989816 17226490 17467880 17713408 
2443.065 17961492 18210514 18459606 18708464 18957742 19208476 19461748 
2446.440 19718010 19976852 20237724 20499516 20761674 21023400 21283962 
2449.815 21542206 21796914 22046088 22288706 22523958 22751482 22971476 
2453.191 23183994 23388504 23584158 23769712 23943932 24106172 24256106 
2456.566 24393720 24518406 24628642 24722074 24795876 24847238 24874010 
2459.941 24875376 24851660 24804014 24734244 24644318 24535620 24410404 
2463.316 24270578 24118608 23957552 23790082 23619492 23449108 23282078 
2466.692 23122136 22973606 22840632 22727218 22636938 22571598 22532300 
2470.067 22518272 22528532 22561196 22614806 22687626 22777880 22883662 
2473.442 23002638 23132306 23270016 23413332 23559600 23706476 23851336 
2476.817 23991412 24124038 24247208 24359340 24460072 24549224 24626820 
2480.193 24692752 24746134 24785668 24810470 24820152 24815768 24798858 
2483.568 24771846 24736980 24696048 24650036 24599714 24545436 24487872 
2486.943 24427860 24365892 24301800 24235052 24164250 24087820 24004894 
2490.318 23914838 23817942 23714524 23604832 23488068 23363294 23229154 
2493.694 23084536 22929626 22765380 22593760 22416488 22235172 22050132 
2497.069 21861266 21667538 21468048 21262110 21049588 20830672 20606236 
2500.444 20377334 20145428 19912396 19680566 19452150 19229428 19013608 
2503.819 18805128 18603594 18408130 18217804 18032532 17852796 17679656 
2507.195 17514208 17357136 17208874 17069004 16937170 16813094 16697040 
2510.570 16589209 16489839 16398886 16315795 16239738 16169714 16104959 
2513.945 16045202 15990091 15939388 15892748 15849892 15810786 15776183 
2517.320 15747391 15726089 15713962 15711866 15719287 15734816 15756186 
2520.696 15781337 15808826 15838483 15870169 15904158 15940282 15977373 
2524.071 16013950 16048880 16081166 16111322 16139690 16167272 16194407 
2527.446 16220098 16243281 16262235 16275616 16282702 16283562 16278196 
2530.821 16267050 16250299 16228216 16200941 16169678 16135702 16100662 
2534.197 16066037 16032824 16001092 15970565 15940901 15911823 15883708 
2537.572 15857453 15833706 15812848 15794739 15779002 15765119 15753061 
2540.947 15742959 15735365 15730727 15728494 15727945 15727740 15726708 
2544.322 15724165 15720353 15715715 15711008 15706336 15701182 15694518 
2547.698 15685346 15673116 15658140 15641514 15624821 15609605 15597034 
2551.073 15587075 15579725 15574230 15569971 15566399 15563377 15560630 
2554.448 15558432 15557093 15556680 15557539 15559324 15561591 15563034 
2557.823 15561935 15556440 15545141 15527284 15503212 15474129 15441305 
2561.198 15406149 15369554 15331761 15292770 15252890 15212911 15173896 
2564.574 15137218 15103494 15072859 15044867 15018353 14992354 14967008 
2567.949 14942762 14921227 14904081 14892868 14888582 14891359 14900858 
2571.324 14916048 14935766 14958401 14982237 15005868 15028026 15048229 
2574.699 15066992 15085585 15105929 15129567 15157118 15188651 15222862 
2578.075 15258004 15292770 15326303 15358536 15389980 15421495 15453871 
2581.450 15487864 15524194 15563789 15607716 15656937 15711935 15772233 
2584.825 15836557 15902715 15969019 16033959 16097602 16160496 16224088 
2588.200 16289340 16356805 16425898 16495690 16565183 16634068 16702412 
2591.576 16770767 16839512 16908682 16977482 17044674 17108878 17169370 
2594.951 17225868 17278722 17329066 17377688 17425386 17472950 17521212 
2598.326 17570960 17622854 17677480 17734944 17794970 17857008 17920538 
2601.701 17985460 18052428 18122376 18196552 18275754 18359842 18448198 
2605.077 18539340 18631882 18724654 18817204 18909528 19002046 19095416 
2608.452 19189948 19286164 19384584 19485694 19590120 19698212 19809766 
2611.827 19923878 20039098 20153620 20265566 20373514 20476486 20574134 
2615.202 20666278 20753020 20834566 20911050 20983094 21051188 21116092 
2618.578 21178362 21238484 21296524 21352346 21405774 21456770 21505684 
2621.953 21553000 21599348 21645632 21692234 21739780 21788762 21839628 
2625.328 21893116 21949468 22008754 22070698 22134396 22199250 22263838 
2628.703 22327946 22391472 22455146 22519352 22584966 22651880 22720128 
2632.079 22789018 22857850 22926064 22993206 23058644 23122834 23185462 
2635.454 23246910 23307914 23368994 23431028 23494504 23559914 23627118 
2638.829 23695628 23765092 23835338 23906436 23978840 24053078 24129850 
2642.204 24208844 24289430 24370906 24452466 24533446 24614232 24695172 
2645.580 24776934 24860396 24945592 25032526 25120846 25210028 25299650 
2648.955 25389886 25480740 25572594 25665840 25760654 25857210 25955724 
2652.330 26056088 26158342 26262132 26367076 26472536 26577954 26682794 
2655.705 26787134 26891216 26995536 27100620 27206964 27314818 27423966 
2659.081 27534380 27645492 27756950 27868472 27979528 28090014 28199288 
2662.456 28307634 28414628 28520694 28626006 28730814 28835470 28939724 
2665.831 29043260 29145938 29247254 29347142 29445528 29542838 29639282 
2669.206 29735854 29833016 29931298 30031272 30132974 30235942 30339540 
2672.582 30442702 30544642 30645114 30744148 30842746 30942148 31043706 
2675.957 31148102 31255622 31365338 31476222 31587138 31697438 31806984 
2679.332 31916518 32026868 32139276 32254644 32373786 32497070 32625142 
2682.707 32758358 32897584 33043184 33195448 33354886 33521220 33694312 
2686.083 33874172 34060484 34253512 34453044 34658484 34869620 35085816 
2689.458 35306468 35531336 35760344 35993720 36231692 36474516 36721692 
2692.833 36973124 37228380 37487652 37750804 38018416 38290972 38568984 
2696.208 38852392 39141316 39435260 39734084 40037368 40344608 40655336 
2699.583 40968984 41284648 41602100 41920924 42241292 42563800 42888560 
2702.959 43216048 43545580 43876132 44205984 44533224 44855968 45172408 
2706.334 45481056 45780316 46069100 46345944 46609796 46859676 47095072 
2709.709 47315924 47522588 47715700 47895840 48063916 48220504 48365924 
2713.084 48500168 48622636 48732084 48826916 48905376 48965752 49007256 
2716.460 49029920 49034260 49021908 48994384 48953440 48900332 48836520 
2719.835 48763592 48683120 48597880 48510876 48425040 48343704 48269860 
2723.210 48205692 48153380 48114216 48089568 48079940 48085792 48107520 
2726.585 48144944 48198216 48267380 48352740 48454160 48571456 48703688 
2729.961 48849048 49005292 49170196 49341212 49516904 49696344 49879312 
2733.336 50065520 50254448 50445100 50635792 50824372 51009200 51188700 
2736.711 51362228 51529708 51691732 51849188 52002964 52153916 52302640 
2740.086 52449396 52593960 52736028 52875108 53011428 53144948 53277528 
2743.462 53411352 53549564 53694832 53849824 54015792 54192296 54378108 
2746.837 54570500 54766624 54963136 55157296 55346308 55527648 55699188 
2750.212 55858744 56005048 56136964 56254204 56356696 56445168 56520260 
2753.587 56582800 56633532 56673284 56702732 56721952 56731240 56729652 
2756.963 56716284 56689668 56648068 56590008 56514376 56419960 56306184 
2760.338 56172860 56019676 55847440 55657040 55450652 55230284 54998640 
2763.713 54758208 54510844 54258480 54002656 53744816 53487048 53231796 
2767.088 52981820 52740180 52509184 52290980 52087192 51898808 51726892 
2770.464 51572320 51435592 51317256 51217404 51135132 51069312 51018072 
2773.839 50979688 50951628 50931848 50917948 50907220 50897200 50884908 
2777.214 50867696 50843484 50810296 50766760 50711568 50643536 50561452 
2780.589 50464416 50352256 50225324 50085452 49935436 49778416 49618148 
2783.965 49458380 49302200 49151940 49009336 48874972 48748392 48628228 
2787.340 48511728 48395668 48276524 48151460 48018320 47876272 47726056 
2790.715 47569204 47407936 47244476 47080888 46919028 46760292 46605996 
2794.090 46457296 46315276 46181148 46055764 45940248 45835252 45741696 
2797.466 45660604 45592292 45537240 45495516 45466600 45449892 45444376 
2800.841 45449196 45463580 45486648 45517444 45554756 45597596 45644700 
2804.216 45695020 45747808 45803108 45860184 45919104 45978992 46039036 
2807.591 46097356 46152776 46203484 46248224 46286116 46315940 46336396 
2810.967 46346052 46343032 46325924 46293784 46246716 46185276 46110916 
2814.342 46025256 45930116 45827152 45718136 45605248 45491172 45379632 
2817.717 45274740 45181048 45103364 45045836 45011696 45003756 45023236 
2821.092 45070872 45145972 45247344 45372828 45519800 45684896 45864488 
2824.468 46054732 46251544 46450732 46648088 46839856 47021960 47191468 
2827.843 47345816 47482852 47601112 47699800 47778504 47837132 47876380 
2831.218 47897656 47902688 47893844 47873496 47843532 47805912 47762232 
2834.593 47714040 47663264 47611832 47561628 47514120 47470580 47430964 
2837.969 47394784 47361672 47331924 47306540 47288032 47279312 47284560 
2841.344 47306836 47349368 47414996 47506028 47625400 47776692 47963476 
2844.719 48189884 48459268 48772636 49128528 49521064 49940492 50371532 
2848.094 50795248 51189928 51532024 51800092 51976820 52050768 52018984 
2851.469 51886336 51665496 51372968 51028872 50654224 50266916 49883328 
2854.845 49516496 49175540 48866888 48593508 48355888 48151828 47977576 
2858.220 47827992 47697508 47580668 47472984 47370020 47268892 47167308 
2861.595 47063496 46956756 46846828 46734240 46620128 46506008 46394352 
2864.970 46287920 46190324 46106088 46039844 45996672 45981352 45997524 
2868.346 46047768 46132508 46250956 46399848 46574720 46769404 46976468 
2871.721 47187628 47394708 47589280 47765444 47918932 48048444 48155384 
2875.096 48243348 48317260 48381704 48441376 48499316 48557784 48618556 
2878.471 48682488 48751028 48825172 48906672 48996648 49096584 49207304 
2881.847 49329448 49462468 49604964 49754152 49905552 50053772 50192632 
2885.222 50316056 50418864 50497800 50551996 50582964 50594764 50593836 
2888.597 50587396 50584156 50593132 50622840 50682372 50781024 50928384 
2891.972 51136436 51419404 51793184 52277712 52894272 53664052 54607396 
2895.348 55738216 57060120 58560976 60209476 61950956 63704668 65375848 
2898.723 66856304 68037648 68833208 69182152 69063112 68495256 67535960 
2902.098 66269824 64789676 63193740 61569136 59982804 58487460 57116876 
2905.473 55889984 54816056 53896864 53129480 52508400 52027052 51679192 
2908.849 51458832 51361520 51382740 51517700 51759924 52099892 52524032 
2912.224 53016184 53556120 54121128 54689012 55236344 55741640 56187228 
2915.599 56558608 56846680 57048068 57164460 57201576 57168464 57075764 
2918.974 56934084 56753440 56542944 56310216 56061896 55803880 55541276 
2922.350 55279584 55024664 54782452 54560168 54364928 54203444 54081424 
2925.725 54002248 53967352 53975868 54024684 54109760 54225556 54365564 
2929.100 54522976 54689240 54855568 55012552 55150524 55260768 55335620 
2932.475 55368400 55353572 55286580 55163652 54982808 54744072 54450520 
2935.851 54108144 53726176 53316076 52889780 52460052 52038556 51635640 
2939.226 51261140 50923580 50630132 50386824 50197580 50063552 49982684 
2942.601 49949564 49955180 49986700 50029160 50065520 50077084 50046932 
2945.976 49960008 49805880 49580224 49285536 48931116 48530368 48100632 
2949.352 47660012 47224380 46807380 46418684 46064160 45746116 45464500 
2952.727 45217152 45000924 44812176 44647704 44504368 44379756 44272020 
2956.102 44179500 44100456 44033528 43976988 43930024 43892592 43865064 
2959.477 43848828 43844792 43853516 43874632 43906340 43946632 43993120 
2962.853 44044276 44099504 44159032 44223924 44295648 44375388 44464024 
2966.228 44562080 44670288 44788884 44918500 45059588 45213144 45379888 
2969.603 45561748 45760508 45978700 46218848 46482588 46770364 47080520 
2972.978 47409416 47751132 48097780 48439676 48765816 49063232 49318420 
2976.354 49517944 49648792 49702176 49673608 49565404 49385648 49148488 
2979.729 48872152 48575164 48275788 47989936 47728608 47499264 47304916 
2983.104 47144408 47013240 46903560 46806160 46710328 46605740 46484508 
2986.479 46341412 46174700 45986064 45779652 45560352 45332844 45099760 
2989.854 44861332 44615464 44358360 44085968 43795424 43486212 43161152 
2993.230 42825696 42487976 42155852 41836380 41534212 41250648 40983772 
2996.605 40729424 40482684 40238668 39993840 39746904 39497852 39248584 
2999.980 39000980 38757576 38520172 38290104 38067568 37852700 37644844 
3003.355 37443332 37247728 37057844 36874136 36697208 36528108 36367716 
3006.731 36216676 36075156 35942680 35818524 35701776 35590920 35485060 
3010.106 35382992 35283792 35186984 35092532 35000760 34912420 34828404 
3013.481 34749180 34674812 34604656 34537776 34473276 34410972 34351476 
3016.856 34296216 34247132 34205580 34172132 34146108 34125896 34109192 
3020.232 34094032 34078980 34063820 34048872 34034756 34022464 34012536 
3023.607 34005764 34003364 34006732 34017952 34039380 34072524 34118224 
3026.982 34175824 34243508 34318124 34396340 34473884 34546856 34611544 
3030.357 34664332 34702592 34724376 34729512 34718708 34694336 34659416 
3033.733 34617180 34570820 34522636 34474496 34427828 34383140 34341220 
3037.108 34302524 34267136 34235228 34206904 34182600 34163064 34149228 
3040.483 34141736 34141236 34147256 34158692 34173960 34191564 34210384 
3043.858 34230100 34251216 34274524 34300772 34329852 34361660 34395264 
3047.234 34430304 34466748 34505168 34546604 34591776 34640864 34693332 
3050.609 34747888 34803096 34857912 34911628 34964416 35016744 35069404 
3053.984 35122820 35177568 35233804 35291984 35352260 35415056 35480564 
3057.359 35548700 35619372 35692676 35768548 35847420 35929940 36015968 
3060.735 36105544 36197768 36291412 36385080 36478008 36570060 36661984 
3064.110 36755120 36850796 36949996 37053148 37160048 37269824 37381796 
3067.485 37494768 37607880 37719792 37829132 37934556 38034872 38129240 
3070.860 38217804 38301212 38380328 38456128 38529844 38601864 38673356 
3074.236 38745516 38819744 38897728 38980720 39069092 39162128 39257652 
3077.611 39353376 39447016 39537008 39623140 39706200 39787572 39868700 
3080.986 39950500 40033588 40117928 40203264 40289488 40376204 40463588 
3084.361 40551576 40640200 40729932 40821432 40915464 41013300 41115968 
3087.737 41223724 41336536 41453572 41573624 41695648 41818976 41943368 
3091.112 42068964 42195760 42323472 42451696 42579772 42707012 42833520 
3094.487 42959664 43086244 43214076 43343624 43475260 43608920 43744924 
3097.862 43883356 44024804 44169412 44316896 44466264 44615868 44764016 
3101.238 44909168 45050836 45189136 45325048 45459900 45594612 45729916 
3104.613 45865964 46002752 46140396 46279184 46419792 46562696 46708152 
3107.988 46856168 47006156 47156896 47307796 47457608 47605692 47751836 
3111.363 47895548 48037120 48177076 48316444 48456788 48599692 48746204 
3114.739 48896552 49050324 49206152 49362004 49516348 49668148 49817324 
3118.114 49964400 50110700 50257204 50404984 50554636 50706352 50860320 
3121.489 51016240 51173972 51332804 51491808 51650120 51806664 51961168 
3124.864 52113604 52264744 52415752 52567592 52721324 52877280 53035428 
3128.240 53195240 53355936 53516732 53676836 53835872 53993392 54149652 
3131.615 54305184 54460808 54617920 54777376 54939560 55104404 55271116 
3134.990 55438604 55606008 55772720 55938900 56105104 56271744 56439132 
3138.365 56607072 56774924 56941676 57106940 57270452 57432740 57594708 
3141.740 57757308 57921292 58086852 58253312 58419568 58584560 58747304 
3145.116 58907372 59065148 59221804 59378976 59538668 59702756 59872044 
3148.491 60046872 60225692 60406564 60587816 60767392 60945024 61121124 
3151.866 61296956 61473808 61652908 61834112 62016576 62198884 62379280 
3155.241 62556460 62729692 62898940 63064532 63226776 63386744 63545004 
3158.617 63702748 63861048 64020900 64183088 64347400 64513272 64679904 
3161.992 64846144 65011868 65177380 65343804 65512144 65683364 65857000 
3165.367 66032364 66207648 66380644 66550000 66714600 66874236 67029284 
3168.742 67180176 67327752 67472368 67614744 67755456 67895016 68034080 
3172.118 68173112 68312336 68452080 68592216 68732664 68873000 69012616 
3175.493 69150560 69285752 69417024 69544048 69666640 69785688 69902712 
3178.868 70019328 70136488 70254656 70373272 70491504 70608328 70723264 
3182.243 70836600 70948896 71061120 71173840 71287168 71401072 71514856 
3185.619 71627808 71739536 71849272 71956632 72060944 72162024 72260192 
3188.994 72355928 72450656 72545600 72641792 72739168 72837112 72934504 
3192.369 73029984 73123256 73214584 73305264 73396208 73487672 73579032 
3195.744 73668536 73754448 73835704 73912728 73987160 74061624 74137976 
3199.120 74217176 74298512 74380192 74459824 74535576 74606832 74673760 
3202.495 74737272 74798792 74859496 74920040 74981944 75046288 75114032 
3205.870 75185848 75260992 75337272 75411536 75480400 75541512 75594504 
3209.245 75641160 75684432 75727736 75772976 75820448 75868536 75915024 
3212.621 75958400 75998416 76036512 76075432 76117792 76165096 76217816 
3215.996 76274248 76332544 76390496 76446240 76498720 76547440 76592696 
3219.371 76634832 76675152 76715280 76757264 76803256 76854824 76912448 
3222.746 76975312 77041928 77109984 77177704 77244120 77309040 77372592 
3226.122 77435352 77497248 77558096 77617272 77674448 77729176 77781720 
3229.497 77832176 77880896 77928544 77976048 78025056 78077480 78135392 
3232.872 78200408 78272816 78351104 78432824 78514920 78594440 78670608 
3236.247 78743288 78814240 78884600 78955888 79027664 79099376 79170216 
3239.623 79240120 79310072 79381760 79456904 79535960 79618152 79701376 
3242.998 79783624 79863192 79940136 80016184 80093752 80174720 80260568 
3246.373 80350544 80443248 80536600 80629552 80721672 80813656 80906696 
3249.748 81001200 81097152 81193896 81290208 81385192 81478360 81569824 
3253.124 81660224 81749448 81837728 81924552 82009344 82091912 82172296 
3256.499 82250976 82328552 82405608 82482000 82557336 82630992 82702336 
3259.874 82770768 82836280 82899200 82960312 83020440 83080216 83139800 
3263.249 83198904 83256336 83310280 83358776 83400608 83435296 83463928 
3266.625 83488584 83512160 83537696 83566256 83598344 83632528 83666352 
3270.000 83697688 83724896 83747432 83766080 83781752 83796088 83810160 
3273.375 83824792 83840304 83857104 83875064 83893952 83913368 83932384 
3276.750 83950152 83966080 83980104 83992488 84004792 84018216 84034056 
3280.125 84053112 84075672 84101856 84131936 84166448 84205736 84250312 
3283.501 84300032 84353824 84410408 84468192 84526360 84584328 84642584 
3286.876 84702016 84763272 84826832 84892816 84961432 85033000 85107968 
3290.251 85187656 85272896 85364272 85461768 85565208 85674320 85789688 
3293.626 85912272 86043856 86185504 86337944 86500312 86670824 86847352 
3297.002 87028008 87211728 87398368 87588360 87782016 87979328 88180016 
3300.377 88383472 88589832 88799824 89015048 89237248 89467632 89706480 
3303.752 89953168 90206528 90465200 90728536 90996640 91270184 91549672 
3307.127 91836008 92129376 92429832 92737552 93053032 93376312 93707144 
3310.503 94044160 94385264 94728200 95071040 95412784 95754512 96098280 
3313.878 96446296 96800480 97161288 97527656 97897744 98269976 98642936 
3317.253 99016520 99390952 99766552 100143104 100519728 100895000 101267600 
3320.628 101636448 102000920 102360496 102714736 103063192 103405400 
3323.521 103741608 104073112 104401800 104729544 105056824 105382912 
3326.415 105704760 106018232 106319432 106606240 106878016 107136432 
3329.308 107383720 107621728 107850640 108069488 108275592 108466872 
3332.201 108641640 108798640 108937304 109056752 109155368 109231888 
3335.094 109285280 109315584 109325256 109317336 109295168 109260568 
3337.987 109213312 109151112 109070216 108966816 108838232 108683008 
3340.880 108500984 108292304 108056992 107795056 107505936 107189784 
3343.773 106847120 106478728 106085776 105668592 105227432 104762144 
3346.666 104273376 103762520 103233104 102688760 102133528 101570416 
3349.559 101000896 100425232 99842936 99253720 98658288 98058264 97455328 
3352.934 96851160 96246800 95642048 95037224 94433032 93830792 93233288 
3356.310 92643536 92064456 91498328 90946344 90409016 89886328 89378272 
3359.685 88884432 88404632 87938424 87484720 87042744 86612208 86193184 
3363.060 85786544 85392792 85012648 84645888 84291664 83949472 83618752 
3366.435 83300248 82995048 82704384 82428488 82166176 81914992 81671664 
3369.811 81432912 81196448 80960912 80725816 80490224 80252832 80010920 
3373.186 79762008 79503728 79235232 78956960 78670248 78375832 78073200 
3376.561 77759608 77431352 77084232 76715752 76324928 75912896 75482136 
3379.936 75034944 74572520 74094592 73599800 73086512 72553360 71999928 
3383.312 71426888 70835344 70227072 69604016 68968848 68324984 67676032 
3386.687 67026348 66379136 65736784 65100044 64468608 63841284 63216852 
3390.062 62594964 61976524 61362972 60756228 60158400 59570744 58993940 
3393.437 58427828 57871168 57322512 56779268 56239120 55700092 55161172 
3396.813 54622464 54085552 53552564 53025840 52506344 51993960 51487032 
3400.188 50983600 50481612 49980308 49480028 48982260 48488572 48000260 
3403.563 47517268 47038464 46562544 46088148 45614484 45142148 44671904 
3406.938 44204920 43742432 43285156 42833592 42388052 41948808 41516528 
3410.313 41091420 40673496 40262404 39857552 39458340 39063912 38674660 
3413.689 38290608 37912100 37539992 37174232 36815380 36463668 36119372 
3417.064 35782688 35453708 35131800 34815948 34505344 34199020 33896740 
3420.439 33598968 33306730 33021302 32742708 32470468 32202754 31937022 
3423.814 31671454 31404876 31137708 30871382 30608028 30349704 30097212 
3427.190 29850510 29608810 29370754 29135272 28901830 28669716 28438966 
3430.565 28209400 27980660 27752676 27526084 27301620 27080624 26864884 
3433.940 26655244 26452076 26254916 26062492 25873564 25686826 25501188 
3437.315 25316122 25131204 24946120 24760096 24573066 24384152 24193852 
3440.691 24002546 23810870 23620260 23431796 23246456 23064758 22886420 
3444.066 22711192 22537780 22364960 22191650 22017294 21842416 21668654 
3447.441 21498164 21333448 21176066 21025904 20881358 20739884 20598246 
3450.816 20454466 20307368 20157854 20007522 19858320 19711216 19566342 
3454.192 19422316 19278164 19132570 18985984 18839590 18695076 18553966 
3457.567 18417052 18284118 18154056 18025868 17898890 17772982 17648632 
3460.942 17526318 17406038 17287410 17169266 17050878 16931590 16811750 
3464.317 16692013 16573926 16458143 16345762 16236505 16130233 16026394 
3467.693 15924644 15824461 15725678 15628049 15531405 15435297 15339965 
3471.068 15245100 15150461 15056256 14961761 14866705 14771190 14675318 
3474.443 14580255 14487304 14398208 14314404 14236266 14163720 14095261 
3477.818 14029345 13964260 13898603 13831964 13764274 13695980 13627835 
3481.194 13560792 13496085 13435010 13378625 13327748 13282376 13241554 
3484.569 13204047 13167911 13131675 13094896 13057506 13020323 12984236 
3487.944 12950165 12918351 12889338 12863262 12841180 12823843 12812445 
3491.319 12807394 12808247 12813708 12821966 12831590 12842375 12855378 
3494.695 12872580 12896540 12928558 12969112 13017694 13073042 13134339 
3498.070 13201349 13274246 13353817 13439624 13530539 13624518 13719235 
3501.445 13813390 13907567 14004535 14108370 14223290 14352519 14497068 
3504.820 14656091 14826967 15006726 15192563 15382187 15573955 15767079 
3508.196 15960908 16156163 16354363 16557679 16768975 16991194 17225490 
3511.571 17471330 17726144 17986460 18248038 18507770 18763504 19014786 
3514.946 19261710 19504616 19743046 19976644 20204260 20424772 20637300 
3518.321 20840508 21032094 21209604 21368914 21505824 21616728 21698886 
3521.697 21751034 21773676 21767650 21734730 21676002 21592698 21485386 
3525.072 21354434 21199932 21022080 20820278 20594910 20345944 20075152 
3528.447 19785142 19479318 19161830 18836544 18506388 18173784 17839918 
3531.822 17505686 17171680 16837894 16503846 16168166 15829101 15485631 
3535.198 15137150 14785416 14433967 14087594 13750970 13427286 13117230 
3538.573 12819646 12531404 12249490 11971709 11697373 11426885 11161834 
3541.948 10902959 10650995 10405184 10164804 9928624 9695758 9465996 9239674 
3545.805 9017392 8800635 8591218 8391327 8202873 8026719 7862242 7706495 
3549.663 7554378 7400528 7240163 7070427 6892678 6711771 6534101 6366860 
3553.520 6214976 6079710 5959368 5849704 5745944 5643988 5541283 5436456 
3557.378 5329575 5220237 5108481 4994038 4877112 4758542 4640340 4525251 
3561.235 4416015 4314940 4223356 4141124 4066366 3996236 3926285 3851598 
3565.093 3767598 3670416 3558957 3435737 3307110 3182226 3069758 2975967 
3568.950 2902477 2846442 2801320 2759703 2714989 2662779 2601542 2532481 
3572.807 2458900 2383931 2310575 2240761 2175054 2112853 2053658 1996601 
3576.665 1941115 1886169 1831330 1775666 1719045 1661233 1602897 1544702 
3580.522 1487645 1432424 1380169 1331276 1286975 1248029 1215166 1187987 
3584.380 1164963 1142771 1116726 1081681 1034018 972046 898696 819979 744662 
3588.719 679613 630036 596391 576185 563942 553558 539657 517995 485851 
3593.059 442962 390660 331732 269562 207932 150056 98551 55039 19648 -7885 
3597.881 -29090 -45556 -59339 -71596 -83224 -94322 -104094 -112077 -117709 
3602.220 -121088 -123208 -125725 -130594 -139538 -154211 -175276 -202997 
3606.078 -236777 -275455 -317341 -359752 -399445 -433475 -459193 -475411 
3609.935 -483388 -486631 -489081 -495799 -510692 -534983 -567678 -604805 
3613.792 -641332 -671935 -693769 -706306 -711632 -714080 -717653 -726320 
3617.650 -742826 -767931 -800211 -836921 -874222 -908875 -938434 -962140 
3621.507 -980058 -993711 -1003992 -1011166 -1014769 -1012984 -1003695 
3624.883 -985513 -958900 -927292 -897104 -877727 -878885 -907685 -965346 
3628.740 -1043924 -1128106 -1200211 -1248120 -1268835 -1266291 -1249276 
3632.115 -1226776 -1206720 -1193866 -1189736 -1192677 -1200012 -1208603 
3635.490 -1216137 -1221490 -1224992 -1226809 -1227536 -1227272 -1226776 
3638.866 -1226082 -1226545 -1229353 -1235333 -1245510 -1259584 -1276169 
3642.241 -1292687 -1306892 -1315811 -1317661 -1311253 -1297444 -1277623 
3645.616 -1254992 -1233615 -1218152 -1213328 -1222415 -1246435 -1284065 
3648.991 -1330511 -1378835 -1421771 -1452319 -1465990 -1461664 -1441123 
3652.367 -1409056 -1371305 -1335003 -1306760 -1292125 -1294537 -1313895 
3655.742 -1346168 -1383723 -1417841 -1441487 -1451427 -1448554 -1437491 
3659.117 -1423521 -1411632 -1405456 -1407008 -1415991 -1430853 -1449148 
3662.492 -1468599 -1486463 -1500695 -1509478 -1511030 -1504591 -1489732 
3665.868 -1467311 -1440034 -1411169 -1386267 -1370941 -1369752 -1385276 
3669.243 -1414934 -1450965 -1480420 -1490591 -1472627 -1424908 -1352609 
3672.618 -1266621 -1180252 -1106657 -1057873 -1041709 -1058798 -1101501 
3675.993 -1156691 -1212304 -1261137 -1302895 -1341577 -1380949 -1422795 
3679.369 -1465627 -1504988 -1535992 -1555537 -1563032 -1560853 -1552401 
3682.744 -1541043 -1528629 -1514596 -1497855 -1477680 -1455059 -1433065 
3686.119 -1416586 -1411037 -1420879 -1447596 -1488313 -1537081 -1585779 
3689.494 -1627605 -1658666 -1679031 -1690583 -1696854 -1700386 -1702894 
3692.870 -1705336 -1707383 -1708076 -1706293 -1701310 -1692134 -1678866 
3696.245 -1662264 -1643647 -1625294 -1609382 -1598159 -1592876 -1594890 
3699.620 -1604101 -1620078 -1641105 -1664442 -1686292 -1702960 -1710551 
3702.995 -1707548 -1693785 -1670978 -1642360 -1611264 -1580530 -1551741 
3706.371 -1525162 -1500398 -1476359 -1452814 -1431216 -1414340 -1406380 
3709.746 -1411335 -1432042 -1468368 -1516808 -1570724 -1621663 -1662330 
3713.121 -1687382 -1695567 -1688471 -1670416 -1645661 -1618791 -1593669 
3716.496 -1572111 -1555240 -1543123 -1534902 -1530016 -1527903 -1528398 
3719.872 -1531303 -1535893 -1541473 -1546458 -1549198 -1549000 -1546260 
3723.247 -1542859 -1541506 -1545501 -1556561 -1574785 -1597828 -1621564 
3726.622 -1640280 -1649358 -1645694 -1628859 -1601757 -1568248 -1533681 
3729.997 -1503073 -1479859 -1465462 -1458923 -1457371 -1457404 -1456909 
3733.373 -1456116 -1458395 -1468103 -1488544 -1520044 -1557882 -1593867 
3736.748 -1618229 -1624601 -1610934 -1579209 -1534704 -1482600 -1427220 
3740.123 -1371040 -1315613 -1263053 -1217260 -1184945 -1175560 -1198459 
3743.498 -1258196 -1348513 -1450865 -1538666 -1590566 -1599149 -1570856 
3746.874 -1519846 -1462357 -1413052 -1381345 -1371899 -1382072 -1405026 
3750.249 -1431943 -1454531 -1468764 -1472991 -1467476 -1452418 -1427847 
3753.624 -1394887 -1354723 -1310955 -1267910 -1229584 -1200078 -1182004 
3756.999 -1175957 -1181574 -1197501 -1221754 -1251919 -1284890 -1316472 
3760.375 -1341808 -1356573 -1358654 -1349009 -1331667 -1312772 -1298501 
3763.750 -1293050 -1297543 -1309039 -1322451 -1331700 -1333187 -1326745 
3767.125 -1316109 -1306562 -1303324 -1309237 -1324334 -1345111 -1366284 
3770.500 -1382501 -1390659 -1389768 -1381676 -1368860 -1354822 -1341610 
3773.875 -1330973 -1322814 -1316538 -1310526 -1303721 -1295528 -1286641 
3777.251 -1279043 -1275277 -1278184 -1289218 -1307916 -1331436 -1355978 
3780.626 -1377283 -1392707 -1401889 -1406017 -1407272 -1407966 -1409617 
3784.001 -1412259 -1415562 -1418468 -1420384 -1421143 -1420945 -1420219 
3787.376 -1418964 -1416751 -1413085 -1407966 -1401988 -1396538 -1392971 
3790.752 -1392245 -1394458 -1398751 -1403606 -1407636 -1410575 -1413349 
3794.127 -1417742 -1425205 -1436467 -1449512 -1461070 -1465990 -1460310 
3797.502 -1442510 -1414637 -1382171 -1353435 -1337679 -1342535 -1372262 
3800.877 -1423917 -1487223 -1545897 -1584062 -1592480 -1570361 -1525096 
3804.253 -1468302 -1413712 -1373980 -1356474 -1364071 -1391122 -1426196 
3807.628 -1455984 -1470778 -1467080 -1447662 -1418468 -1385903 -1354426 
3811.003 -1326118 -1300120 -1275376 -1251027 -1228990 -1212932 -1208174 
3814.378 -1219441 -1247822 -1289416 -1334343 -1369785 -1385837 -1378604 
3817.754 -1351949 -1315018 -1280794 -1261137 -1265267 -1295891 -1348282 
3821.129 -1408692 -1459782 -1487289 -1485110 -1456545 -1410608 -1359744 
3824.504 -1314622 -1282347 -1265630 -1262326 -1266819 -1272138 -1273262 
3827.879 -1268174 -1258461 -1248450 -1242041 -1241842 -1248285 -1258560 
3831.255 -1268108 -1272337 -1267744 -1253340 -1230543 -1202656 -1173478 
3834.630 -1147405 -1127841 -1117662 -1118951 -1132005 -1155766 -1187522 
3838.005 -1223109 -1257370 -1286707 -1308478 -1321691 -1327307 -1327043 
3841.380 -1322814 -1317033 -1311781 -1308874 -1309568 -1314060 -1321427 
3844.756 -1329850 -1336457 -1338571 -1334079 -1321889 -1301970 -1274913 
3848.131 -1241941 -1203515 -1161186 -1116902 -1073870 -1037908 -1017314 
3851.506 -1020984 -1057972 -1131311 -1234706 -1350066 -1453706 -1525459 
3854.881 -1556726 -1550948 -1518757 -1471967 -1420318 -1370215 -1324697 
3858.257 -1284626 -1249375 -1217723 -1189273 -1163565 -1140994 -1122256 
3861.632 -1108376 -1101038 -1101799 -1111813 -1130882 -1156394 -1183028 
3865.007 -1204044 -1212965 -1206257 -1185242 -1155964 -1128040 -1111218 
3868.382 -1113531 -1137855 -1179790 -1228197 -1269033 -1291861 -1293315 
3871.758 -1277656 -1253307 -1230113 -1215079 -1210751 -1214881 -1221853 
3875.133 -1225521 -1220829 -1207414 -1187687 -1166572 -1149256 -1140631 
3878.508 -1142746 -1155469 -1175230 -1195783 -1210123 -1212370 -1198988 
3881.883 -1170703 -1132534 -1092115 -1057972 -1038867 -1040090 -1062831 
3885.259 -1101501 -1145092 -1181442 -1200343 -1198162 -1177873 -1147108 
3888.634 -1115018 -1089834 -1077341 -1078993 -1092677 -1113002 -1133526 
3892.009 -1149421 -1157782 -1158410 -1152561 -1141920 -1126916 -1108210 
3895.384 -1085967 -1061112 -1035330 -1011463 -991860 -979000 -973777 -975364 
3899.242 -981579 -989480 -996918 -1002901 -1008058 -1014637 -1024818 
3902.617 -1040255 -1060749 -1084348 -1108012 -1127775 -1140796 -1145951 
3905.992 -1143671 -1135905 -1125032 -1113366 -1102228 -1091883 -1082133 
3909.367 -1072218 -1061376 -1049345 -1036024 -1021545 -1006108 -989579 
3912.743 -971859 -953147 -933673 -914926 -898857 -887548 -882952 -886060 
3916.600 -896377 -911818 -929904 -947361 -961644 -971661 -976422 -976355 
3920.458 -972157 -965181 -956684 -948717 -942898 -940881 -943195 -949345 
3924.315 -957511 -964884 -968917 -967793 -961544 -951362 -939724 -928879 
3928.172 -920712 -915554 -912975 -911521 -910231 -908313 -906032 -903883 
3932.030 -902791 -903089 -904875 -907917 -911488 -915125 -918662 -921903 
3935.887 -924548 -925937 -925771 -923258 -918662 -912711 -906759 -902262 
3939.745 -900609 -902163 -906759 -913637 -921704 -929706 -936781 -942270 
3943.602 -945939 -947163 -945873 -942005 -936219 -929144 -922167 -916183 
3947.459 -911950 -909107 -907024 -904279 -899915 -893401 -885432 -876636 
3951.317 -868435 -861028 -854745 -848991 -843105 -836821 -830703 -825544 
3955.174 -821972 -820583 -820881 -821609 -821510 -818930 -813440 -805437 
3959.032 -796143 -787147 -779904 -775372 -773355 -773520 -774645 -775372 
3962.889 -774843 -772065 -766475 -758041 -747423 -735118 -722615 -711533 
3966.747 -703329 -698466 -697276 -698665 -700749 -701609 -699657 -693670 
3970.604 -683778 -670810 -656187 -641795 -628892 -618437 -610827 -605036 
3974.461 -600338 -595937 -590775 -584951 -578565 -572840 -568075 -565130 
3978.319 -563807 -563012 -562020 -559670 -555004 -548088 -539749 -531111 
3982.176 -523963 -520091 -519959 -524228 -532204 -542959 -554938 -566686 
3986.034 -576447 -583529 -587433 -588360 -586804 -584058 -580650 -577705 
3989.891 -575223 -572840 -570259 -567116 -563211 -558975 -555203 -552787 
3993.749 -552357 -554442 -558611 -564038 -569796 -574594 -577605 -578433 
3997.606 -577043 -574131 -570557 -567347 -565461 -565329 -567248 
##END=
