
##TITLE=Z295_2_a
##JCAMP-DX=5.01  $$ Nicolet v. 1
##DATATYPE=INFRARED SPECTRUM
##ORIGIN=UniL
##OWNER=Nicolet
##LONGDATE=2011/09/09
##TIME=13:54:23
##SPECTROMETER/DATA SYSTEM=Nicolet iS5
##DATA PROCESSING=
Ratio against background
%Transmittance->Absorbance
Truncated
ElementMultiply or ElementDivide
##COMMENTS=
Number of sample scans: 32
Collection length: 51.20 sec
Sample gain: 2.0
Background collected on: Ven Sep 09 13:49:48 2011 (GMT+02:00);
Number of background scans: 32
Background gain: 2.0
Sample spacing:  1.000
Number of scan points: 12415
Resolution points: 8192
Number of FFT points: 65536
Apodization: N-B fort;
Phase correction: Mertz;
Laser frequency: 15798.0 cm-1
Number of rejected sample scans: 0
Number of rejected background scans: 0
Bench serial number: ASB1000141;
##RESOLUTION=4.000
##XUNITS=1/CM
##YUNITS=ABSORBANCE
##FIRSTX=649.893372
##LASTX=4000.122314
##FIRSTY=0.106927
##MAXX=4000.122314
##MINX=649.893372
##MAXY=0.284779
##MINY=-0.000938
##XFACTOR=1.000000
##YFACTOR=1.000000E-009
##NPOINTS=6950
##DELTAX=0.482117
##ZPD=6100
##XYDATA=(X++(Y..Y))
649.893 106927176 105892296 104947112 104111136 103372520 102704248 
652.786 102084904 101514992 101018584 100633504 100387312 100284832 
655.679 100300360 100390696 100510664 100632632 100755000 100895088 
658.571 101074232 101302360 101572224 101863904 102158632 102451640 
661.464 102757304 103102720 103516616 104013416 104586272 105209368 
664.357 105848152 106470856 107047944 107555080 107967464 108260888 
667.250 108426384 108490776 108525104 108608368 108793664 109081552 
670.142 109429128 109771064 110039752 110188928 110198152 110083000 
673.035 109883968 109652608 109426528 109216592 109009440 108779528 
675.928 108507280 108188488 107833320 107456880 107066896 106656816 
678.820 106208936 105706456 105143976 104533368 103899464 103265304 
681.713 102642848 102027032 101401192 100748440 100064536 99361336 98663560 
685.088 97996008 97371608 96786776 96225088 95667984 95104320 94537608 
688.463 93982280 93455688 92967776 92517560 92094880 91690256 91302368 
691.838 90942792 90632256 90392704 90238376 90170352 90178792 90250200 
695.212 90376576 90559600 90810736 91143424 91567592 92082352 92678936 
698.587 93343768 94066952 94846824 95688056 96596472 97572208 98603064 
701.962 99668336 100742296 101802584 102837080 103842896 104821192 105770152 
705.337 106679512 107531744 108309648 109002584 109612688 110153272 
708.229 110643792 111100496 111531856 111940912 112330144 112709280 
711.122 113099768 113529072 114021472 114587640 115216144 115873168 
714.015 116508944 117075072 117532336 117860280 118057656 118138160 
716.908 118126368 118052312 117956744 117891576 117915264 118095144 
719.800 118490752 119138536 120041760 121158656 122407792 123668288 
722.693 124806264 125696616 126235632 126371296 126109376 125519544 
725.586 124715288 123837736 123026000 122378800 121947344 121729728 
728.478 121686048 121757928 121892144 122057696 122244920 122459752 
731.371 122710696 122998200 123311992 123636704 123958856 124275584 
734.264 124594144 124926680 125281440 125656216 126038192 126410872 
737.156 126762200 127091152 127408128 127728464 128064336 128417432 
740.049 128778936 129135344 129478160 129808008 130136192 130476040 
742.942 130835888 131211384 131587816 131944120 132265344 132548544 
745.835 132803664 133046880 133291680 133542376 133793504 134034976 
748.727 134260464 134472976 134684464 134909344 135155520 135418832 
751.620 135684432 135934352 136156208 136349520 136525616 136700608 
754.513 136886304 137083376 137281904 137468640 137635120 137784144 
757.405 137928240 138081792 138253824 138440224 138625936 138792096 
760.298 138926576 139030480 139118656 139210768 139323936 139464192 
763.191 139626896 139802832 139988016 140189760 140430832 140742592 
766.083 141154624 141688896 142349392 143120528 143963408 144817696 
768.976 145608656 146247120 146654384 146781152 146629680 146266000 
771.869 145814128 145432208 145252144 145342416 145669664 146104608 
774.762 146441760 146458896 145993104 144967840 143415136 141442272 
777.654 139192832 136790944 134305728 131751864 129100368 126309064 
780.547 123344216 120199616 116897184 113483120 110015032 106554272 
783.440 103165200 99903904 96820224 93954104 91328816 88953920 86825784 
786.815 84933024 83262032 81802568 80549408 79501312 78657856 78016016 
790.189 77569704 77310656 77233392 77337584 77630112 78122616 78826984 
793.564 79748672 80881672 82203088 83675192 85244992 86843792 88397976 
796.939 89827000 91052904 92017888 92692304 93090768 93273128 93344472 
800.314 93435016 93663696 94122632 94839192 95764008 96761720 97631152 
803.689 98145760 98076904 97263120 95643280 93276200 90328928 87042128 
807.063 83684032 80468528 77528344 74892720 72500256 70233224 67964296 
810.438 65606476 63129588 60567440 57994596 55505844 53184940 51085112 
813.813 49230832 47618416 46228068 45032868 44006028 43124084 42364784 
817.188 41708776 41138772 40641036 40207516 39835180 39524456 39276732 
820.563 39091536 38965932 38895732 38877504 38910700 38998804 39147808 
823.938 39364184 39652324 40012844 40442496 40934028 41476028 42052060 
827.312 42641212 43215244 43744520 44201656 44568172 44842924 45045804 
830.687 45219688 45421936 45720196 46183696 46866908 47804284 48995760 
834.062 50400108 51923640 53421656 54722312 55629320 55968524 55628076 
837.437 54575308 52875300 50670308 48163452 45563920 43052840 40771388 
840.812 38797172 37155388 35832164 34791644 33989496 33381398 32930252 
844.186 32603782 32373824 32218956 32121900 32071244 32061112 32088506 
847.561 32150588 32243758 32362830 32502428 32659396 32833290 33026524 
850.936 33242196 33482100 33745376 34028984 34329744 34646680 34982408 
854.311 35342912 35735268 36166112 36639848 37159144 37727312 38350288 
857.686 39037592 39802860 40661924 41630436 42725000 43962908 45362896 
861.060 46946860 48734712 50736220 52940984 55307844 57761016 60184240 
864.435 62443740 64401276 65932544 66958384 67452584 67452128 67048616 
867.810 66382924 65628632 64954564 64524844 64474104 64891428 65829240 
871.185 67296144 69263440 71662744 74389776 77310344 80245304 82991480 
874.560 85336848 87066016 88010080 88066040 87212776 85515264 83111424 
877.935 80192976 76959208 73606432 70305248 67174728 64292952 61693008 
881.309 59372324 57305648 55458216 53799456 52307496 50974360 49803684 
884.684 48804928 47987196 47353836 46901200 46620016 46499184 46530204 
888.059 46709996 47040936 47528500 48176928 48987672 49957816 51082280 
891.434 52357248 53783440 55367236 57121416 59061924 61205160 63565180 
894.809 66148488 68949312 71939352 75057592 78205768 81231080 83944568 
898.183 86139928 87608632 88194912 87816328 86482520 84291984 81417760 
901.558 78085616 74522248 70948200 67551832 64464272 61774176 59524152 
904.933 57720144 56345260 55369004 54758920 54482932 54516328 54841804 
908.308 55447976 56328476 57479596 58898760 60583396 62528720 64723520 
911.683 67146728 69759936 72500416 75287072 78018984 80586824 82897752 
915.058 84881936 86510096 87797624 88802552 89616016 90338688 91073088 
918.432 91896888 92843888 93895976 94977176 95966432 96704296 97035448 
921.807 96840688 96064304 94742704 93008008 91087640 89253856 87803960 
925.182 87019136 87098168 88145312 90135488 92920952 96227536 99688936 
928.557 102922864 105539120 107219600 107764048 107082536 105203288 
931.450 102237832 98361224 93774696 88685856 83315496 77869008 72536592 
934.824 67495664 62883356 58802612 55321052 52466932 50243368 48634680 
938.199 47615936 47154236 47205580 47712524 48588060 49713248 50949620 
941.574 52133292 53106188 53742004 53952268 53708552 53039920 52026900 
944.949 50780724 49421624 48068580 46812472 45715192 44809896 44102656 
948.324 43581992 43225456 43008460 42905564 42892104 42946676 43047572 
951.698 43174036 43309064 43439080 43556424 43660284 43754852 43848056 
955.073 43948208 44063272 44199492 44361260 44552204 44775072 45031284 
958.448 45320784 45641280 45988348 46356820 46742356 47142824 47558596 
961.823 47991860 48444972 48919132 49413496 49925700 50453100 50994780 
965.198 51551164 52124400 52716760 53329560 53963000 54616604 55290760 
968.573 55987788 56711832 57468520 58262140 59095176 59967588 60878156 
971.947 61826512 62814736 63848032 64933708 66078656 67287400 68561408 
975.322 69900104 71302440 72769448 74305088 75915936 77609744 79394568 
978.697 81278184 83271184 85388192 87648688 90079416 92708504 95562880 
982.072 98664768 102026184 105648472 109517680 113603648 117850064 122164136 
985.447 126420584 130446240 134032536 136970960 139057504 140137008 
988.339 140129952 139037920 136950064 134023424 130480560 126570312 
991.232 122540896 118636432 115053744 111938856 109389696 107448392 
994.125 106117592 105372008 105173152 105478416 106246848 107445040 
997.017 109041984 111007432 113313312 115928808 118821784 121958928 
999.910 125296296 128774480 132314536 135805232 139113184 142097184 
1002.803 144612736 146545440 147823744 148428400 148397232 147821216 
1005.695 146842048 145624464 144352224 143212128 142360144 141925968 
1008.588 141999216 142625680 143819712 145571456 147860336 150661088 
1011.481 153948688 157700784 161890624 166487168 171457952 176764144 
1014.374 182367072 188223264 194268000 200406704 206495984 212324240 
1017.266 217639984 222162208 225618544 227814800 228659952 228205024 
1020.159 226633216 224260976 221499184 218771888 216515072 215102704 
1023.052 214796640 215759632 218029312 221540384 226135440 231603888 
1025.945 237713744 244207872 250842240 257382656 263590656 269253184 
1028.838 274180928 278224096 281298048 283381920 284516256 284778784 
1031.731 284272000 283103808 281369824 279159584 276547328 273584128 
1034.624 270296416 266678000 262696560 258301888 253449712 248122160 
1037.517 242339760 236164240 229688096 223026768 216294672 209600704 
1040.410 203048272 196721424 190688272 184993856 179648592 174628160 
1043.303 169873616 165309248 160854720 156449568 152071424 147742192 
1046.196 143526800 139515632 135820000 132548080 129789472 127617672 
1049.089 126076864 125183416 124928400 125280456 126191152 127596688 
1051.982 129431728 131630256 134127008 136863872 139776992 142789008 
1054.875 145809504 148721264 151386656 153668240 155429072 156556048 
1057.768 156976752 156661520 155633904 153967552 151793216 149283952 
1060.661 146636592 144073696 141802368 140001328 138820288 138356640 
1063.554 138663360 139750384 141588208 144109712 147207312 150747952 
1066.448 154561616 158452368 162229152 165701648 168707632 171132640 
1069.341 172899552 173972128 174345456 174036928 173079472 171516960 
1072.234 169405632 166807408 163788112 160422192 156788064 152975952 
1075.127 149097920 145277968 141656384 138384080 135595456 133409824 
1078.020 131918208 131169664 131174040 131894056 133249520 135105664 
1080.913 137279056 139559488 141701712 143470560 144680224 145209408 
1083.806 145038768 144248992 143017072 141574400 140175120 139079184 
1086.699 138500336 138602592 139490048 141193376 143672592 146813296 
1089.592 150448368 154352896 158267376 161944560 165146464 167680688 
1092.485 169420160 170291584 170280800 169420592 167784816 165474944 
1095.378 162605184 159301744 155681968 151848768 147895744 143898608 
1098.271 139922112 136022944 132242832 128607424 125121368 121767096 
1101.164 118508688 115301816 112110392 108916784 105733592 102602312 
1104.057 99593320 96793520 94289448 92166816 90496512 89328896 88699184 
1107.433 88622824 89099328 90112168 91631952 93616792 96009832 98746576 
1110.808 101750304 104928256 108179904 111386280 114412104 117124880 
1113.701 119392760 121103952 122185912 122603032 122363784 121510208 
1116.594 120114760 118267736 116063664 113604080 110980984 108270280 
1119.487 105533208 102808688 100118272 97472912 94879296 92347400 89895984 
1122.862 87549696 85339072 83296600 81449304 79821136 78431552 77296176 
1126.238 76430872 75852128 75575072 75613048 75973440 76654480 77642944 
1129.613 78912688 80425896 82128144 83951968 85819248 87637008 89314576 
1132.988 90770880 91945896 92816680 93400800 93757344 93970512 94141688 
1136.363 94372088 94739208 95293640 96047152 96972760 98004568 99045696 
1139.739 99986776 100706864 101096320 101071096 100572136 99573280 98075952 
1143.114 96104200 93697608 90908152 87801488 84449608 80931496 77332080 
1146.489 73728328 70191672 66783800 63549840 60524320 57730780 55181900 
1149.864 52883420 50834992 49031144 47462228 46115784 44978288 44035876 
1153.240 43276372 42690560 42271460 42014208 41915344 41971760 42181152 
1156.615 42542276 43056280 43726600 44558956 45560316 46736452 48090676 
1159.990 49623012 51329748 53203144 55229948 57391216 59657216 61985584 
1163.365 64324608 66608056 68764616 70724632 72418832 73788568 74787848 
1166.740 75382328 75555080 75306736 74656952 73640744 72306104 70710040 
1170.116 68908224 66955016 64901740 62791416 60664968 58559876 56507808 
1173.491 54538492 52676436 50939524 49341028 47889148 46587664 45438528 
1176.866 44442148 43598624 42907356 42367448 41977196 41734124 41636236 
1180.241 41682628 41873740 42211716 42699004 43338204 44130712 45076200 
1183.617 46173080 47417472 48801704 50311032 51922592 53599380 55291284 
1186.992 56940428 58479460 59842948 60975184 61830368 62381192 62619956 
1190.367 62558532 62227104 61670820 60948416 60120724 59249604 58394400 
1193.742 57603864 56919540 56374460 55990424 55781576 55751888 55895484 
1197.118 56194508 56619152 57129880 57674584 58193640 58625668 58904488 
1200.493 58969004 58768696 58265320 57443140 56310896 54904932 53281912 
1203.868 51514488 49684196 47865024 46122264 44506864 43050756 41771480 
1207.243 40673712 39753000 38998664 38396472 37931192 37586960 37348788 
1210.619 37205420 37148352 37173008 37278272 37464500 37732224 38080516 
1213.994 38506668 39006092 39572652 40198280 40873708 41586276 42320180 
1217.369 43057816 43780140 44468904 45109356 45690416 46204220 46645952 
1220.744 47012728 47303808 47521292 47672212 47769480 47830472 47878636 
1224.120 47938872 48034972 48189072 48417596 48730636 49131496 49615620 
1227.495 50170576 50775732 51405904 52032356 52626460 53166028 53635444 
1230.870 54028888 54349604 54610176 54831432 55040684 55274464 55575956 
1234.245 55990688 56568572 57355820 58390836 59704772 61317328 63238508 
1237.621 65470032 68006024 70832808 73925216 77248072 80751800 84372136 
1240.996 88040272 91680560 95215704 98575752 101690672 104494976 106933192 
1244.371 108957784 110536592 111654720 112313368 112526264 112314824 
1247.264 111706744 110732928 109427808 107831528 105984304 103922400 
1250.157 101674592 99255888 96670312 93915848 90993824 87917256 84719176 
1253.532 81449256 78175608 74976664 71925936 69093760 66534824 64281428 
1256.908 62345736 60716292 59361460 58228800 57252872 56362316 55480168 
1260.283 54539132 53487348 52289972 50935984 49434840 47814416 46113276 
1263.658 44377408 42655324 40988392 39412256 37952780 36624236 35431776 
1267.033 34372204 33437184 32614640 31892162 31259004 30705846 30225712 
1270.409 29812714 29461130 29165144 28919218 28718530 28560360 28444274 
1273.784 28371792 28345230 28366168 28434156 28546170 28695522 28871728 
1277.159 29061400 29246864 29407342 29521806 29570466 29538582 29419858 
1280.534 29217200 28941530 28608170 28234256 27834098 27417968 26993032 
1283.910 26565130 26140782 25730278 25346362 25003782 24718180 24502664 
1287.285 24368838 24326398 24383520 24548452 24829380 25233028 25763924 
1290.660 26422636 27204954 28100122 29089670 30147712 31235932 32306716 
1294.035 33306300 34176256 34866352 35342268 35590488 35622104 35470028 
1297.411 35184940 34821656 34436292 34079624 33789856 33595388 33512808 
1300.786 33545378 33683964 33905840 34179268 34462912 34712856 34891556 
1304.161 34966968 34920104 34744440 34445296 34037804 33543878 32991878 
1307.536 32411128 31830550 31277090 30770894 30326038 29950148 29645632 
1310.912 29412518 29250586 29160714 29144272 29202386 29334276 29536984 
1314.287 29806186 30137982 30530706 30984988 31503726 32089722 32744888 
1317.662 33468678 34259176 35114556 36033428 37015264 38058128 39155640 
1321.037 40293560 41449084 42589312 43672152 44654020 45490252 46142752 
1324.413 46589916 46830440 46889756 46816308 46681848 46567488 46546576 
1327.788 46679372 46997292 47500372 48160008 48929260 49755976 50590224 
1331.163 51397212 52158772 52872676 53550204 54211552 54883876 55594368 
1334.538 56368916 57227396 58179092 59220516 60333652 61490144 62651224 
1337.914 63773772 64816408 65737480 66501424 67081444 67460872 67636616 
1341.289 67617800 67424952 67083916 66621764 66065228 65436208 64751936 
1344.664 64026512 63269132 62486668 61683996 60863444 60025792 59170084 
1348.039 58294120 57396208 56476300 55538604 54594284 53662812 52770784 
1351.415 51954484 51255284 50715624 50379716 50285516 50460656 50918656 
1354.790 51651760 52627920 53786288 55048056 56318444 57496316 58493716 
1358.165 59236200 59672000 59778568 59561052 59055244 58319436 57439848 
1361.540 56519812 55664008 54976188 54534096 54376008 54497468 54852636 
1364.916 55367348 55945232 56486940 56897252 57089520 57004728 56616508 
1368.291 55938788 55020340 53937152 52776884 51616052 50518496 49528340 
1371.666 48670296 47959852 47408492 47027568 46829300 46821956 47004384 
1375.041 47361968 47869020 48495576 49212608 49999712 50846056 51748764 
1378.417 52710848 53739940 54848008 56050660 57366108 58809632 60383144 
1381.792 62063552 63790888 65474152 66987568 68189776 68950824 69152856 
1385.167 68717488 67622288 65921784 63757160 61334576 58902744 56677440 
1388.542 54800040 53330424 52252072 51504228 51005104 50676940 50448596 
1391.917 50256680 50047936 49773252 49391216 48876820 48226280 47460528 
1395.293 46615476 45730360 44832196 43930352 43022660 42105392 41185580 
1398.668 40288396 39454272 38726384 38139408 37706928 37423576 37270908 
1402.043 37227728 37276680 37406208 37611456 37890660 38241396 38659196 
1405.418 39136352 39663908 40234376 40842688 41487036 42167388 42883696 
1408.794 43634196 44415208 45220388 46042760 46876024 47715256 48556564 
1412.169 49396156 50228936 51048924 51850268 52629604 53388196 54132352 
1415.544 54872596 55620320 56386800 57180636 58008572 58875384 59782980 
1418.919 60725360 61687052 62640928 63551604 64381488 65098076 65680548 
1422.295 66120328 66427632 66630112 66772668 66904260 67066984 67287360 
1425.670 67571576 67912256 68296368 68713496 69157088 69623736 70111056 
1429.045 70616152 71137496 71678136 72249200 72869208 73557680 74330440 
1432.420 75193176 76140696 77159456 78235200 79359040 80527712 81746008 
1435.796 83021000 84358256 85754248 87196856 88669400 90148736 91605312 
1439.171 92995488 94264592 95339608 96136200 96578296 96598368 96149840 
1442.546 95210824 93779104 91874776 89538808 86840312 83868880 80722632 
1445.921 77510280 74332800 71282760 68449752 65907016 63704668 61859328 
1449.297 60353104 59145292 58190456 57458532 56942772 56657012 56619416 
1452.672 56834856 57278656 57897516 58605264 59294796 59855076 60173928 
1456.047 60177008 59861620 59322072 58713844 58184848 57831000 57680748 
1459.422 57722944 57933600 58288928 58767292 59342696 59982992 60642524 
1462.798 61262080 61782236 62150024 62340344 62366316 62279148 62148376 
1466.173 62033088 61971480 61972396 62022996 62095316 62153084 62154384 
1469.548 62046008 61766840 61251892 60444112 59322944 57929772 56379632 
1472.923 54824740 53408280 52219300 51280672 50573172 50064408 49731228 
1476.299 49564960 49566336 49732752 50049980 50489388 51015868 51592952 
1479.674 52193668 52805468 53429376 54078196 54770236 55526476 56366388 
1483.049 57310188 58382912 59613464 61033600 62669672 64531496 66598208 
1486.424 68805024 71048560 73177056 75003360 76334328 76977088 76783288 
1489.800 75690968 73746864 71108656 67997264 64650380 61255940 57927388 
1493.175 54723288 51655160 48719256 45927244 43313456 40940404 38885404 
1496.550 37213180 35955172 35101908 34617324 34452976 34563252 34911596 
1499.925 35466540 36197296 37072744 38056248 39108904 40192796 41261180 
1503.301 42259116 43117824 43735580 43981752 43706596 42780096 41167368 
1506.676 38985684 36484068 33926508 31491968 29245164 27173206 25239070 
1510.051 23415886 21695892 20093578 18632714 17330754 16194785 15216892 
1513.426 14380192 13664316 13050403 12521890 12062455 11656972 11293557 
1516.802 10965990 10676667 10433455 10243265 10105450 10008263 9928963 
1520.177 9842696 9731437 9596562 9460205 9355241 9306323 9316681 9370442 
1524.034 9442698 9511343 9564247 9603676 9642228 9696503 9776472 9880760 
1527.892 9999787 10122746 10244655 10368431 10503410 10658364 10836744 
1531.267 11033686 11236803 11431817 11610583 11776758 11945722 12135195 
1534.642 12356589 12607975 12877665 13148478 13404117 13634159 13831211 
1538.017 13992216 14115251 14197373 14235272 14228254 14184500 14120247 
1541.393 14054601 14000873 13960736 13923783 13872364 13790919 13672899 
1544.768 13525686 13367485 13220068 13098413 13003491 12924325 12843364 
1548.143 12745324 12623393 12483457 12340430 12212751 12112672 12040925 
1551.518 11989114 11945620 11902130 11857350 11817138 11791330 11787687 
1554.894 11807196 11843117 11882685 11910711 11910167 11862731 11751872 
1558.269 11570734 11334231 11080929 10859539 10703189 10618058 10590624 
1561.644 10597177 10613577 10617142 10592254 10532570 10442822 10337348 
1565.019 10234207 10148625 10085305 10038576 9994802 9940353 9864862 9766543 
1568.877 9651951 9534238 9428477 9345118 9289803 9262927 9262622 9285572 
1572.734 9326363 9376977 9424549 9454076 9452146 9412664 9343527 9266650 
1576.592 9210363 9194355 9223732 9289329 9376672 9472397 9568312 9662555 
1580.449 9757156 9855168 9958728 10067773 10180441 10295343 10411428 
1583.824 10528293 10643932 10753216 10847411 10917263 10954368 10956305 
1587.199 10927796 10881214 10832803 10799683 10797475 10836812 10925112 
1590.575 11066484 11262408 11509589 11797901 12109436 12416796 12686981 
1593.950 12889611 13000179 13006973 12912787 12733757 12494642 12221850 
1597.325 11941839 11675930 11440968 11251356 11117981 11048606 11047620 
1600.700 11114717 11246120 11436818 11682533 11979850 12325226 12713081 
1604.076 13132597 13566501 13994098 14391084 14733791 15002301 15180279 
1607.451 15257420 15229623 15098930 14872706 14563329 14188506 13769849 
1610.826 13331779 12900908 12499314 12142044 11835285 11575668 11352903 
1614.201 11152859 10961368 10766327 10561257 10348987 10141468 9958186 
1617.577 9817242 9730963 9701856 9723712 9784402 9868828 9962899 10054718 
1621.434 10138653 10216329 10296632 10391168 10509996 10656836 10828556 
1624.809 11017984 11217558 11422735 11631615 11843355 12057004 12269906 
1628.185 12478649 12681114 12878040 13073315 13272196 13478517 13692116 
1631.560 13908559 14118297 14309644 14470758 14590604 14661540 14681350 
1634.935 14655509 14597765 14528004 14466921 14427322 14412628 14417047 
1638.310 14429651 14437530 14428589 14395879 14339095 14265506 14187000 
1641.686 14116688 14062987 14026847 14001558 13974491 13931413 13859569 
1645.061 13751860 13609919 13445058 13276330 13125324 13011650 12946684 
1648.436 12933098 12965835 13034834 13124402 13212416 13271786 13267447 
1651.811 13165793 12952760 12657233 12353589 12119555 11995314 11969597 
1655.187 12006350 12066850 12124019 12163374 12180616 12178333 12162010 
1658.562 12136728 12104700 12064635 12012958 11945483 11858576 11750749 
1661.937 11622903 11479377 11327599 11176894 11037016 10915802 10816022 
1665.312 10735488 10666853 10598908 10517769 10410512 10268031 10088425 
1668.688 9878794 9653306 9430508 9226676 9052542 8911317 8800568 8712699 
1672.545 8636304 8558235 8463286 8338498 8178562 7990571 7794667 7615374 
1676.402 7472120 7370061 7301552 7250405 7200274 7141021 7071201 6998194 
1680.260 6933009 6884329 6851306 6821787 6773456 6681251 6527038 6313671 
1684.117 6070235 5843323 5672084 5568534 5521048 5506181 5502155 5493296 
1687.975 5471317 5434409 5384354 5325214 5262259 5201425 5149351 5111967 
1691.832 5092489 5089673 5096177 5098758 5081460 5030037 4939442 4820017 
1695.689 4697913 4604541 4558666 4558934 4585822 4611540 4605378 4543699 
1699.547 4419530 4250759 4076902 3938288 3856913 3828699 3835151 3853670 
1703.404 3865571 3858785 3827529 3773113 3703632 3630720 3565338 3515163 
1707.262 3482496 3465528 3459884 3460351 3462689 3464627 3465829 3467499 
1711.119 3471106 3477118 3484800 3492182 3496958 3497827 3494654 3487806 
1714.977 3477653 3461754 3435804 3394928 3336792 3266112 3194676 3138804 
1718.834 3111004 3116210 3149984 3202787 3262073 3316859 3360667 3391054 
1722.691 3410423 3423881 3437206 3454740 3478521 3508315 3542721 3579870 
1726.549 3617289 3651938 3680140 3698385 3704568 3699622 3687859 3675094 
1730.406 3666172 3661728 3655981 3636835 3587754 3495389 3356092 3184996 
1734.264 3012200 2872058 2784646 2749633 2751633 2769873 2786213 2787380 
1738.121 2767706 2728660 2678581 2628809 2589709 2567877 2563777 2574443 
1741.979 2594609 2619542 2645244 2669013 2689917 2708454 2725826 2743864 
1745.836 2763971 2786080 2809123 2829934 2844675 2849811 2842407 2820996 
1749.693 2785346 2737329 2680715 2621109 2565644 2520883 2491457 2478360 
1753.551 2478193 2484392 2487957 2480393 2456000 2414650 2362409 2310208 
1757.408 2269271 2246289 2240961 2246922 2254516 2253683 2237497 2204426 
1761.266 2158637 2107992 2061548 2026693 2006487 2000195 2004423 2014642 
1765.123 2025561 2031952 2030188 2017771 1996234 1970105 1946740 1933094 
1768.980 1932295 1942014 1954495 1959354 1946906 1912593 1860280 1801950 
1772.838 1752944 1724500 1720242 1735977 1763323 1793932 1822845 1848433 
1776.695 1871793 1894289 1916021 1934991 1947705 1951400 1946041 1934359 
1780.553 1921878 1913791 1912427 1916553 1921878 1923542 1918118 1905172 
1784.410 1887700 1870629 1858716 1854989 1859747 1871660 1888665 1908766 
1788.268 1930199 1950468 1966510 1973900 1968408 1947339 1911295 1865471 
1792.125 1818520 1779259 1753742 1742664 1742398 1747355 1752345 1754341 
1795.982 1752478 1747654 1741000 1733216 1724035 1712691 1698653 1681989 
1799.840 1663994 1646565 1631200 1618961 1610247 1604560 1601833 1602265 
1803.697 1606023 1613240 1623583 1635590 1648162 1659869 1670147 1678463 
1807.555 1684583 1687710 1686546 1679727 1666921 1649359 1630501 1614205 
1811.412 1604693 1603862 1610513 1621089 1630701 1635689 1634060 1627840 
1815.270 1620856 1618528 1625047 1642541 1670081 1704841 1742564 1779559 
1819.127 1813329 1843176 1869297 1892925 1915422 1937354 1958922 1979125 
1822.984 1996234 2008717 2015508 2017305 2016873 2018470 2025761 2041307 
1826.842 2064078 2090446 2114518 2130567 2134962 2128270 2115384 2103397 
1830.699 2099802 2108292 2128569 2156406 2187009 2216349 2242826 2267139 
1834.557 2292121 2320668 2355013 2395592 2441772 2492423 2546512 2604009 
1838.414 2665480 2731627 2802620 2878028 2956785 3037191 3117545 3195410 
1842.271 3269050 3336993 3399670 3459082 3519539 3585817 3660859 3744370 
1846.129 3832410 3918160 3994197 4053791 4093258 4112424 4113795 4101486 
1849.986 4078742 4047236 4006336 3954672 3891514 3818069 3737519 3654444 
1853.844 3572387 3493518 3417469 3342535 3267181 3190971 3115042 3041428 
1857.701 2971931 2907014 2845709 2786313 2727726 2669980 2614908 2564477 
1861.559 2520183 2481859 2447903 2416149 2385564 2356712 2331194 2311108 
1865.416 2297117 2287224 2277998 2265041 2245490 2220178 2193270 2170858 
1869.273 2158404 2158404 2169327 2187076 2206857 2225207 2240794 2253583 
1873.131 2264042 2272002 2276699 2276932 2272402 2263975 2253251 2242493 
1876.988 2232534 2222510 2210587 2194469 2173389 2149147 2124674 2103797 
1880.846 2088848 2079426 2072800 2064577 2051660 2032718 2009449 1984817 
1884.703 1962217 1942846 1926138 1909931 1891627 1870629 1847701 1825441 
1888.561 1806309 1792435 1784084 1780158 1779526 1780989 1784616 1790172 
1892.418 1797159 1804046 1809137 1811200 1810335 1809004 1810335 1817688 
1896.275 1832561 1853525 1877783 1901877 1923542 1942280 1959387 1976496 
1900.133 1993804 2010182 2023031 2029622 2029622 2024396 2017438 2012578 
1903.990 2011713 2014609 2018570 2020468 2018038 2011913 2004057 1997399 
1907.848 1993738 1992939 1992839 1991341 1987480 1981988 1977794 1977927 
1911.705 1984052 1995369 2009383 2022898 2033950 2042039 2047832 2052126 
1915.563 2053625 2049663 2036613 2011746 1975297 1931696 1887134 1846869 
1919.420 1812930 1783119 1752411 1715685 1671079 1620291 1570108 1527844 
1923.277 1499116 1485584 1484254 1490638 1500546 1512781 1528675 1550920 
1927.135 1580450 1615635 1651654 1683386 1707003 1721939 1730422 1736044 
1930.992 1740834 1744627 1744227 1736110 1718379 1692566 1662763 1634359 
1934.850 1611444 1594783 1582778 1572701 1563058 1555576 1553747 1561362 
1938.707 1579253 1604095 1629304 1647330 1653084 1646665 1633162 1620923 
1942.564 1616965 1625246 1644304 1669416 1694462 1715552 1731120 1741533 
1946.422 1748053 1751014 1750149 1745991 1740468 1737840 1743562 1761627 
1950.279 1792801 1833460 1876585 1913259 1938253 1948770 1945608 1931031 
1954.137 1906469 1871128 1823477 1762758 1691136 1615269 1545234 1491003 
1957.994 1459286 1450177 1458721 1476674 1496290 1512848 1526979 1540446 
1961.852 1554811 1569010 1579519 1582112 1574996 1559732 1539615 1519664 
1965.709 1502208 1487014 1471953 1455263 1437910 1425111 1423881 1438674 
1969.566 1469360 1508858 1546332 1570573 1574763 1558968 1530969 1501377 
1973.424 1480464 1476275 1492732 1532166 1598541 1696724 1830831 1999263 
1977.281 2192804 2392893 2575676 2720791 2815093 2857182 2855281 2823964 
1981.139 2777610 2727859 2681082 2638576 2600542 2566677 2536880 2511585 
1984.996 2490357 2470396 2448536 2422480 2392027 2360510 2332927 2314006 
1988.854 2306011 2307843 2315971 2325831 2334759 2343354 2353814 2369439 
1992.711 2390994 2416582 2442672 2464264 2478027 2484225 2483392 2478160 
1996.568 2469729 2458400 2443105 2424346 2403288 2383198 2368106 2359111 
2000.426 2354713 2349683 2336325 2308176 2262676 2201762 2132698 2064244 
2004.283 2005721 1964280 1944277 1947173 1972269 2018238 2080924 2153776 
2008.141 2227705 2292587 2340022 2366540 2374669 2371171 2365174 2364175 
2011.998 2371538 2385564 2401822 2415350 2423646 2428211 2431643 2438373 
2015.855 2450602 2467297 2486791 2507019 2527582 2550645 2578543 2613075 
2019.713 2652945 2694718 2734395 2768506 2796684 2821096 2844308 2868255 
2023.570 2892337 2913552 2928696 2936035 2936902 2934167 2932165 2932699 
2027.428 2935235 2935702 2929897 2916387 2897441 2879295 2870623 2879395 
2031.285 2910350 2963824 3036390 3122551 3216540 3312352 3404044 3486337 
2035.143 3555082 3608168 3646257 3674893 3701059 3732606 3774149 3826059 
2039.000 3883524 3939392 3986305 4019646 4039009 4047203 4048808 4047002 
2042.857 4044059 4039611 4034494 4029444 4027905 4033992 4051684 4083859 
2046.715 4131524 4193814 4267924 4350614 4436836 4518521 4586559 4629925 
2050.572 4640441 4615726 4560474 4486883 4411496 4351451 4319022 4317717 
2054.430 4342850 4382812 4425421 4461005 4486314 4503053 4516043 4529268 
2058.287 4544067 4559235 4571390 4578756 4581435 4582071 4584951 4592887 
2062.145 4606450 4624332 4643488 4661439 4677382 4691549 4704813 4717876 
2066.002 4729969 4739381 4744942 4746717 4746048 4744640 4744305 4744841 
2069.859 4744171 4740352 4731107 4716670 4699286 4682406 4668908 4660301 
2073.717 4655277 4651593 4647541 4642651 4638900 4639637 4647507 4663348 
2077.574 4685085 4708498 4729097 4744373 4753384 4757504 4759246 4760385 
2081.432 4762194 4764137 4766180 4768927 4773617 4782260 4795627 4812714 
2085.289 4830538 4845448 4853054 4851278 4839986 4821157 4796968 4769396 
2089.146 4739147 4706655 4672023 4636623 4603068 4574069 4552639 4539916 
2093.004 4535697 4538576 4547214 4561110 4580297 4604876 4633910 4664621 
2096.861 4693057 4714862 4727524 4731375 4729566 4726988 4727858 4735060 
2100.719 4748325 4766080 4785912 4806583 4828427 4852853 4881066 4913269 
2104.576 4948088 4982273 5013679 5040495 5062619 5081158 5097250 5111297 
2108.434 5123199 5132452 5138756 5143584 5148948 5156895 5168396 5182345 
2112.291 5195993 5205952 5209808 5206891 5198675 5187509 5175572 5164238 
2116.148 5153207 5141572 5129200 5117332 5108279 5104927 5109151 5120450 
2120.006 5135973 5152436 5166384 5176242 5182613 5187643 5193377 5200888 
2123.863 5209775 5218662 5226341 5232712 5238649 5245322 5252902 5260112 
2127.721 5263634 5259240 5243813 5216415 5178657 5133860 5085985 5039557 
2131.578 4997926 4965046 4945373 4943296 4963035 5005132 5065804 5134699 
2135.436 5198910 5245691 5266552 5260448 5234322 5200318 5170408 5153576 
2139.293 5152168 5163567 5181574 5199715 5213933 5222384 5224865 5221344 
2143.150 5210915 5192203 5165177 5131983 5097082 5065636 5041870 5026417 
2147.008 5017232 5009489 4997993 4980732 4956936 4927511 4893028 4851110 
2150.865 4796499 4723939 4629925 4513733 4380268 4236003 4086903 3937252 
2154.723 3789123 3644052 3510152 3402308 3342235 3355658 3461120 3661828 
2158.580 3940027 4261098 4582507 4863307 5078409 5218426 5289157 5305022 
2162.438 5284327 5245490 5202733 5166753 5143919 5136543 5141069 5149082 
2166.295 5150759 5135537 5097116 5035132 4954959 4865619 4775225 4689640 
2170.152 4608794 4529168 4445573 4355668 4261600 4171499 4096569 4047403 
2174.010 4031049 4049109 4094897 4156747 4220411 4270166 4292820 4279736 
2177.867 4228609 4144771 4039577 3930431 3835385 3769637 3741563 3751221 
2181.725 3789925 3844110 3899772 3946848 3980754 4002222 4015365 4024795 
2185.582 4033591 4042755 4051918 4060982 4069578 4078875 4089813 4103225 
2189.439 4118746 4136474 4156312 4178658 4204486 4233728 4265247 4296100 
2193.297 4322971 4342114 4352187 4353627 4349142 4342449 4336157 4331806 
2197.154 4328761 4326083 4322168 4317148 4311961 4306874 4302792 4298609 
2201.012 4293188 4285625 4276289 4266820 4259927 4258354 4262804 4273412 
2204.869 4288269 4305804 4325214 4347268 4372536 4401354 4431982 4460603 
2208.727 4482631 4494583 4495654 4488523 4478480 4471115 4470178 4476906 
2212.584 4488858 4501714 4512293 4518152 4520161 4519927 4520396 4522505 
2216.441 4526925 4532248 4536735 4539380 4538911 4534859 4526389 4512930 
2220.299 4494148 4471249 4446276 4422609 4403363 4390175 4382109 4375549 
2224.156 4365541 4348305 4322168 4289105 4254172 4223222 4201341 4190736 
2228.014 4190602 4197661 4207966 4217802 4225129 4229445 4230784 4230114 
2231.871 4228709 4227940 4229813 4236104 4248149 4266418 4289306 4313333 
2235.729 4335454 4352422 4362831 4368085 4370997 4374678 4382276 4395196 
2239.586 4413371 4436367 4462813 4491637 4522003 4552739 4582038 4608760 
2243.443 4631901 4651660 4670181 4690344 4714929 4745846 4782327 4821894 
2247.301 4861028 4895743 4923657 4943865 4957036 4964074 4966152 4964276 
2251.158 4959918 4955093 4953316 4958109 4972822 4998764 5034093 5074353 
2255.016 5113342 5144892 5164440 5170341 5163366 5145830 5121087 5092120 
2258.873 5061781 5032551 5006808 4986631 4972889 4965381 4961963 4959818 
2262.730 4955763 4948021 4937062 4925064 4915849 4912096 4915078 4923825 
2266.588 4935588 4946949 4955562 4960622 4963170 4964845 4966957 4970174 
2270.445 4973727 4976441 4976944 4975201 4971615 4968331 4966756 4968599 
2274.303 4974598 4984820 4998395 5014216 5030774 5046697 5061379 5074353 
2278.160 5086555 5099294 5114281 5132519 5154481 5178891 5203806 5227615 
2282.018 5248910 5268228 5286742 5306330 5327763 5350808 5373418 5392506 
2285.875 5405489 5411092 5409582 5402873 5393714 5383918 5375028 5367648 
2289.732 5361274 5356343 5353257 5352753 5355705 5361676 5369694 5378181 
2293.590 5386065 5392942 5399920 5408408 5419781 5434242 5450548 5466352 
2297.447 5479136 5487289 5490746 5491316 5491148 5492155 5495041 5499303 
2301.305 5503564 5506450 5507927 5508464 5509571 5512390 5517088 5522725 
2305.162 5527692 5530276 5529504 5525578 5519504 5512859 5506685 5501517 
2309.020 5497222 5493833 5491148 5489873 5490477 5493531 5498866 5505746 
2312.877 5512792 5519168 5524336 5528732 5533397 5539471 5547660 5557963 
2316.734 5569609 5581490 5592264 5601393 5608676 5614852 5621364 5630326 
2320.592 5643619 5662584 5686721 5713545 5736879 5749100 5741814 5708207 
2324.449 5645532 5555781 5446320 5327495 5210881 5106637 5021288 4956936 
2328.307 4911761 4881535 4861531 4847726 4838378 4832917 4831845 4835563 
2332.164 4844309 4857443 4874565 4895173 4918865 4945206 4973626 5003490 
2336.021 5033858 5063927 5093495 5122461 5150893 5178388 5204275 5227884 
2339.879 5248575 5266585 5283019 5299320 5316493 5334673 5352820 5368386 
2343.736 5379859 5386702 5390929 5397203 5411159 5438536 5482961 5545277 
2347.594 5623243 5712840 5808466 5904012 5993935 6072956 6136903 6183147 
2351.451 6210808 6221732 6219009 6207447 6191347 6174207 6158109 6144297 
2355.309 6133408 6126519 6125276 6131056 6144599 6165637 6191717 6219682 
2359.166 6246572 6270102 6290071 6307384 6323589 6340399 6358488 6377989 
2363.023 6398231 6419887 6443662 6470937 6503291 6541265 6584491 6631523 
2366.881 6680578 6730312 6779412 6827475 6873490 6916681 6955634 6989102 
2370.738 7016714 7039444 7059414 7079587 7102725 7130748 7164297 7202565 
2374.596 7244374 7288849 7335182 7383542 7434570 7488537 7545882 7606539 
2378.453 7670847 7738976 7811467 7888661 7970086 8054429 8139735 8223437 
2382.311 8303202 8377579 8446426 8510319 8570299 8627145 8681227 8732171 
2386.168 8779435 8822377 8860623 8894271 8923324 8947744 8967261 8981637 
2390.025 8990972 8995979 8998347 8999565 9001290 9004132 9007717 9010830 
2393.883 9012250 9010931 9007040 9001730 8996791 8994288 8995946 9002576 
2397.740 9014551 9031668 9053490 9079473 9109180 9142139 9177942 9216489 
2401.598 9257849 9302869 9352126 9406636 9466944 9532781 9603100 9676513 
2405.455 9751667 9827478 9903674 9980223 10058006 10137805 10220535 10307150 
2409.313 10398634 10495705 10598943 10708420 10822713 10939655 11056457 
2412.688 11169551 11276281 11374807 11464136 11544193 11615722 11679334 
2416.063 11735873 11785883 11830417 11870494 11907068 11940954 11972425 
2419.438 12000764 12025119 12044842 12059525 12069882 12077138 12082691 
2422.813 12088245 12094309 12101532 12110151 12120611 12134309 12152708 
2426.189 12177685 12210979 12253512 12306103 12368725 12441481 12524414 
2429.564 12617458 12720109 12831248 12949005 13071266 13195919 13321973 
2432.939 13449295 13578774 13712019 13850094 13993448 14141744 14294440 
2436.314 14450375 14609622 14772150 14938441 15109120 15284465 15464583 
2439.690 15649587 15839823 16035438 16237194 16444962 16658580 16877470 
2443.065 17100606 17327652 17558368 17792968 18031600 18273368 18516172 
2446.440 18757276 18993704 19223266 19446120 19663508 19878402 20093752 
2449.815 20311290 20530674 20750030 20966126 21175786 21377162 21569264 
2453.191 21752392 21927302 22094404 22253272 22403264 22542908 22670764 
2456.566 22785248 22884918 22968016 23032998 23078176 23102496 23106130 
2459.941 23089392 23054136 23001940 22934552 22853310 22758884 22652088 
2463.316 22533592 22404520 22266628 22121808 21972782 21822418 21673704 
2466.692 21530614 21397592 21278880 21178814 21100300 21044720 21012272 
2470.067 21001596 21010882 21038704 21083674 21145208 21222478 21314132 
2473.442 21418270 21531972 21652354 21776882 21903152 22029982 22155874 
2476.817 22279428 22398938 22512094 22617076 22712238 22796946 22870878 
2480.193 22934202 22986706 23027792 23056618 23072410 23075242 23065422 
2483.568 23044772 23014970 22977798 22934760 22886734 22834626 22779312 
2486.943 22722120 22664654 22607722 22551738 22495344 22436304 22371658 
2490.318 22298786 22215954 22123238 22021896 21913780 21801198 21685442 
2493.694 21566930 21445108 21318970 21187442 21049588 20905172 20754028 
2497.069 20596266 20431856 20261330 20084556 19902406 19715582 19525444 
2500.444 19332998 19139564 18945626 18751706 18557978 18364786 18172818 
2503.819 17983146 17797802 17618818 17448564 17288412 17139210 17000600 
2507.195 16871578 16750345 16635273 16525358 16420392 16320646 16226977 
2510.570 16139863 16059298 15984626 15914470 15847692 15783297 15721211 
2513.945 15661918 15606171 15554482 15507470 15464824 15426816 15393584 
2517.320 15365641 15343877 15329358 15322151 15322219 15328295 15339038 
2520.696 15353455 15371030 15392005 15417032 15446695 15480756 15518768 
2524.071 15559187 15600744 15642406 15683284 15723342 15761822 15797865 
2527.446 15830407 15857933 15879344 15893951 15902199 15904708 15902337 
2530.821 15895842 15885152 15870409 15851645 15829548 15805081 15779722 
2534.197 15754435 15729664 15705133 15679918 15653055 15624272 15594321 
2537.572 15564751 15537655 15514887 15497581 15486215 15480069 15477803 
2540.947 15478558 15480962 15483949 15486730 15488447 15488687 15486765 
2544.322 15482850 15477288 15470627 15463691 15456618 15449854 15442781 
2547.698 15435399 15427228 15418611 15409685 15400656 15391525 15381844 
2551.073 15371476 15360011 15347654 15334988 15323077 15312539 15304062 
2554.448 15297713 15293078 15289510 15286318 15283194 15279934 15276708 
2557.823 15273551 15270359 15266652 15261401 15254023 15243315 15228490 
2561.198 15209000 15184499 15155436 15122637 15087370 15050905 15014785 
2564.574 14980041 14947049 14915808 14886250 14858510 14832933 14810305 
2567.949 14791518 14777086 14766562 14759260 14754015 14749696 14746234 
2571.324 14744246 14745034 14749902 14760048 14775475 14795632 14819322 
2574.699 14845516 14873562 14903532 14935526 14969615 15005216 15041335 
2578.075 15076427 15109772 15140683 15169779 15198328 15227770 15259548 
2581.450 15294109 15331932 15372884 15416688 15463107 15511797 15562346 
2584.825 15614001 15665868 15717089 15767217 15816627 15866112 15916944 
2588.200 15970360 16026739 16086219 16148048 16211396 16275167 16339052 
2591.576 16402327 16465025 16526459 16586283 16643673 16698143 16749484 
2594.951 16797836 16843678 16887906 16931314 16974898 17019380 17065694 
2598.326 17114772 17167266 17223628 17283204 17345306 17408694 17471812 
2601.701 17533666 17594284 17654014 17714340 17776504 17841818 17910906 
2605.077 17983870 18060302 18139652 18220948 18303712 18387390 18471984 
2608.452 18557736 18645336 18735622 18829796 18928426 19031506 19138074 
2611.827 19246192 19353508 19457416 19555668 19647456 19732850 19812678 
2615.202 19888392 19961276 20032158 20101456 20168752 20233592 20295458 
2618.578 20354104 20409664 20462384 20513168 20562740 20611866 20661344 
2621.953 20711350 20762056 20812944 20863592 20913412 20962162 21010116 
2625.328 21057622 21105588 21154636 21205464 21258316 21313124 21369956 
2628.703 21428712 21489494 21551990 21616344 21681854 21748036 21814228 
2632.079 21879666 21944032 22007430 22069618 22131396 22192452 22252958 
2635.454 22312844 22371936 22430408 22488680 22547272 22607130 22668984 
2638.829 22733048 22799530 22868152 22938568 23010148 23082544 23155020 
2642.204 23227300 23298964 23369588 23439106 23507514 23575130 23642582 
2645.580 23710604 23780212 23852036 23926742 24004368 24084772 24167366 
2648.955 24251448 24336034 24420990 24505856 24590982 24677074 24764656 
2652.330 24854150 24945874 25039300 25134082 25229658 25325396 25421258 
2655.705 25517422 25614136 25711610 25810020 25909226 26009086 26109290 
2659.081 26209690 26310112 26410314 26510184 26608916 26706050 26800950 
2662.456 26893366 26983264 27070856 27156628 27241042 27324344 27406816 
2665.831 27488560 27569754 27650754 27732368 27814880 27898928 27984230 
2669.206 28070500 28157214 28243662 28329772 28415584 28501410 28587678 
2672.582 28674780 28762852 28851862 28941850 29032600 29124288 29216564 
2675.957 29309070 29401208 29492372 29582030 29669968 29757000 29843874 
2679.332 29931902 30022324 30115678 30212392 30312466 30415798 30522958 
2682.707 30634302 30751084 30874122 31004276 31141624 31286032 31437072 
2686.083 31594228 31757322 31926148 32100744 32280874 32466006 32655324 
2689.458 32848048 33043216 33240586 33440228 33642212 33847452 34056148 
2692.833 34268784 34485652 34707040 34933140 35164388 35400784 35642320 
2696.208 35888588 36138780 36392504 36648824 36907280 37167448 37429068 
2699.583 37692220 37956508 38222292 38489508 38758408 39028820 39300596 
2702.959 39572760 39844296 40113892 40380204 40641692 40897844 41147732 
2706.334 41390764 41626024 41852472 42068812 42273616 42466052 42645564 
2709.709 42812384 42967016 43110652 43243868 43367532 43482036 43587596 
2713.084 43684316 43771860 43849776 43917228 43973468 44017360 44048272 
2716.460 44065800 44070456 44062680 44043796 44015120 43978344 43934456 
2719.835 43885260 43832220 43776880 43721032 43666400 43614892 43568512 
2723.210 43529572 43499688 43481156 43475260 43482840 43504340 43539356 
2726.585 43587376 43647860 43720556 43805356 43902640 44012116 44133284 
2729.961 44264832 44405044 44551872 44703600 44859492 45019008 45182040 
2733.336 45348552 45517740 45688356 45858412 46025812 46188852 46346052 
2736.711 46496788 46641044 46778704 46909984 47035396 47155304 47270740 
2740.086 47382624 47492832 47602404 47712780 47825108 47939944 48058364 
2743.462 48181148 48309188 48443712 48585352 48734272 48889800 49050992 
2746.837 49215728 49382604 49549328 49713992 49874740 50029232 50175484 
2750.212 50311556 50436056 50548308 50648492 50737336 50816108 50885724 
2753.587 50947420 51001336 51047620 51085860 51115300 51135168 51144264 
2756.963 51141356 51124620 51092752 51044044 50977676 50892840 50789660 
2760.338 50668524 50529956 50375028 50204940 50020796 49824052 49615996 
2763.713 49397864 49171200 48937416 48698612 48457344 48216840 47980572 
2767.088 47752056 47534712 47330596 47141568 46967792 46809704 46666832 
2770.464 46539052 46426208 46328508 46246052 46178536 46125360 46085200 
2773.839 46056352 46036680 46024044 46016196 46011040 46006804 46001868 
2777.214 45994760 45983856 45967208 45942788 45907800 45859556 45796004 
2780.589 45715816 45619272 45508096 45385444 45255284 45121932 44988724 
2783.965 44858796 44733788 44614916 44502644 44397260 44297996 44203820 
2787.340 44112892 44022380 43929616 43831528 43726160 43612912 43491708 
2790.715 43364236 43232520 43098724 42964896 42832788 42703796 42579076 
2794.090 42459584 42346008 42238960 42139420 42047496 41963948 41889652 
2797.466 41825292 41771408 41728508 41696668 41675480 41664500 41663152 
2800.841 41671064 41688172 41714028 41748316 41789828 41837112 41888336 
2804.216 41941616 41995628 42049868 42104332 42159572 42216096 42274016 
2807.591 42332820 42391340 42447636 42499740 42545380 42582844 42610180 
2810.967 42626480 42630760 42623268 42603896 42573596 42533504 42484176 
2814.342 42426264 42359924 42285884 42204520 42117916 42028480 41940120 
2817.717 41856960 41783552 41724168 41682408 41661036 41662308 41687476 
2821.092 41737336 41812120 41911036 42032240 42173192 42330632 42500400 
2824.468 42678824 42861936 43045888 43227616 43403708 43571368 43727628 
2827.843 43870120 43996676 44105520 44195896 44267360 44320492 44356344 
2831.218 44377076 44384564 44381336 44369520 44350912 44326988 44298880 
2834.593 44267876 44235116 44201948 44169964 44140324 44113732 44089856 
2837.969 44068588 44049260 44031768 44017360 44007936 44006868 44018276 
2841.344 44045592 44092792 44162992 44258664 44383092 44539132 44729972 
2844.719 44959032 45228992 45541072 45893656 46281768 46696124 47122176 
2848.094 47541848 47933876 48274972 48544000 48723480 48801852 48775640 
2851.469 48649352 48434820 48148716 47810832 47442160 47061464 46685684 
2854.845 46328360 45999032 45703704 45445112 45222668 45033744 44873860 
2858.220 44737720 44619688 44514900 44419060 44328456 44240580 44153420 
2861.595 44066056 43977904 43889404 43801288 43714436 43630312 43550124 
2864.970 43475628 43409124 43353656 43313348 43292808 43296872 43329744 
2868.346 43394112 43490680 43618112 43772520 43948760 44140728 44341000 
2871.721 44542948 44739848 44925336 45094544 45243924 45371796 45478664 
2875.096 45566720 45639956 45702712 45759776 45815368 45872592 45934060 
2878.471 46000908 46074180 46154100 46241000 46335104 46436904 46546980 
2881.847 46665796 46793540 46929512 47071952 47217324 47360820 47497308 
2885.222 47620300 47724984 47807356 47865948 47901800 47918484 47922036 
2888.597 47919632 47919704 47931064 47962256 48021688 48118252 48260828 
2891.972 48460676 48731008 49086752 49546616 50130820 50859200 51750556 
2895.348 52816996 54060560 55467668 57006128 58622444 60238480 61765772 
2898.723 63104340 64156308 64845988 65121828 64969072 64408504 63494420 
2902.098 62304428 60921464 59433756 57918604 56436604 55035872 53748524 
2905.473 52593512 51581236 50714620 49991756 49407404 48955516 48629528 
2908.849 48423932 48334296 48356848 48487200 48719032 49042536 49443196 
2912.224 49903844 50402748 50916684 51423392 51901124 52330972 52699216 
2915.599 52995444 53214640 53356052 53423080 53422140 53361220 53249920 
2918.974 53097804 52913808 52706924 52484392 52252524 52016296 51779672 
2922.350 51545604 51317740 51099796 50897276 50716632 50564872 50449044 
2925.725 50374472 50344372 50359068 50415884 50510044 50634568 50781616 
2929.100 50942876 51109152 51271948 51422796 51553552 51656952 51726632 
2932.475 51756564 51742120 51679156 51564332 51396056 51174236 50901184 
2935.851 50581664 50222832 49833860 49424708 49006736 48591284 48189144 
2939.226 47810980 47466180 47162580 46906036 46699552 46543440 46434764 
2942.601 46367584 46333704 46321648 46318480 46309704 46279520 46213432 
2945.976 46098944 45927096 45694504 45403728 45063260 44685344 44285488 
2949.352 43879616 43481192 43101832 42749312 42427652 42138284 41880712 
2952.727 41652792 41451892 41275352 41120340 40984572 40865844 40762544 
2956.102 40673020 40596068 40530336 40474684 40428276 40390420 40360788 
2959.477 40339116 40325152 40318900 40319952 40328132 40343440 40366024 
2962.853 40396568 40436020 40485012 40544192 40613532 40692744 40781212 
2966.228 40878512 40984496 41099472 41224164 41359388 41506572 41666760 
2969.603 41841452 42032240 42240860 42469012 42717724 42987356 43276592 
2972.978 43582540 43900436 44223264 44542292 44847112 45124980 45362672 
2976.354 45547324 45666896 45713388 45683200 45578828 45408804 45186304 
2979.729 44928972 44654608 44380860 44122832 43891272 43692744 43529028 
2983.104 43398288 43295040 43211512 43138904 43067768 42989440 42897152 
2986.479 42786128 42654260 42502192 42332964 42150552 41959352 41762688 
2989.854 41561884 41356104 41142232 40916300 40674840 40416240 40141732 
2993.230 39855992 39565936 39279160 39003156 38742724 38499792 38273020 
2996.605 38058884 37853280 37651852 37451712 37251448 37051024 36851408 
2999.980 36653908 36459848 36270236 36085668 35906652 35732820 35564452 
3003.355 35401324 35243292 35090380 34942728 34800472 34664048 34533544 
3006.731 34409428 34291948 34181096 34077436 33981076 33892372 33811200 
3010.106 33737068 33669320 33606520 33547382 33490546 33435326 33381328 
3013.481 33328518 33277250 33228104 33181072 33136758 33095136 33056840 
3016.856 33022340 32992382 32967534 32948266 32934576 32926000 32921568 
3020.232 32920066 32920208 32920710 32920674 32919672 32918066 32917134 
3023.607 32918348 32923962 32936294 32957132 32987554 33028058 33078224 
3026.982 33137084 33203314 33275462 33351344 33428990 33505220 33576700 
3030.357 33640176 33692596 33732124 33758232 33771804 33774456 33768224 
3033.733 33755188 33736924 33714832 33690088 33664092 33638168 33613788 
3037.108 33592024 33573656 33558984 33548244 33541658 33539616 33542696 
3040.483 33551428 33565604 33584504 33606484 33630184 33654568 33679380 
3043.858 33705448 33734132 33766864 33804112 33845336 33889252 33933928 
3047.234 33978068 34021676 34065216 34110804 34160052 34214472 34273984 
3050.609 34337920 34404444 34471340 34536772 34599600 34659128 34715764 
3053.984 34770644 34825388 34881972 34942044 35007120 35077412 35152492 
3057.359 35231256 35311680 35392480 35472580 35551832 35630552 35709436 
3060.735 35789092 35869912 35952112 36035628 36120884 36208428 36299156 
3064.110 36394160 36494120 36599148 36708784 36822160 36938236 37055820 
3067.485 37173656 37290548 37405304 37516440 37622948 37723984 37819696 
3070.860 37910548 37997584 38082072 38165016 38247004 38328352 38409468 
3074.236 38490556 38572276 38655104 38739864 38826376 38914324 39002688 
3077.611 39090812 39177976 39263636 39347752 39430400 39511316 39590692 
3080.986 39668444 39745268 39822252 39901136 39983308 40070212 40162084 
3084.361 40258004 40357004 40457228 40557724 40658320 40759704 40862712 
3087.737 40968076 41076196 41186748 41299148 41413000 41528048 41644620 
3091.112 41763272 41884104 42006872 42130584 42254148 42376948 42498788 
3094.487 42620232 42742696 42867568 42995988 43128288 43263964 43401728 
3097.862 43540016 43677540 43813128 43946264 44077352 44206972 44336380 
3101.238 44466960 44599712 44735000 44872608 45011476 45150052 45286836 
3104.613 45420980 45552144 45681216 45809328 45937776 46067700 46199576 
3107.988 46333372 46468836 46605556 46743464 46882264 47021808 47161548 
3111.363 47301072 47440088 47578408 47716516 47855108 47994672 48135316 
3114.739 48276564 48417040 48555192 48690052 48821500 48950508 49078884 
3118.114 49208568 49341100 49477468 49617332 49759688 49903548 50047672 
3121.489 50191664 50335104 50477852 50620008 50761804 50903124 51044416 
3124.864 51185940 51328292 51471660 51616312 51761976 51908256 52054952 
3128.240 52201664 52348276 52494900 52641160 52786648 52930876 53073164 
3131.615 53213408 53351928 53489484 53627196 53766040 53906728 54049112 
3134.990 54193044 54337852 54483272 54629040 54775080 54921588 55068704 
3138.365 55216512 55365240 55515180 55666380 55818800 55971916 56125008 
3141.740 56276420 56425132 56570460 56712284 56852232 56992108 57134336 
3145.116 57280432 57431112 57585968 57743380 57901944 58059812 58215880 
3148.491 58369612 58520788 58669960 58817372 58964336 59111612 59260276 
3151.866 59411528 59565536 59721996 59879760 60037396 60193644 60347472 
3155.241 60498648 60647592 60794912 60940640 61085084 61227516 61367856 
3158.617 61506220 61643404 61780900 61919812 62061600 62206380 62353960 
3161.992 62503732 62654748 62806420 62958652 63111240 63263684 63415656 
3165.367 63566372 63715144 63861660 64006156 64148672 64289688 64428756 
3168.742 64565248 64698444 64827600 64952752 65074444 65194012 65312536 
3172.118 65430820 65548636 65665596 65780968 65894136 66005208 66114464 
3175.493 66222200 66328684 66433424 66535868 66635632 66733108 66829400 
3178.868 66926144 67024760 67126112 67229960 67335264 67440128 67543200 
3182.243 67643232 67740232 67834464 67926744 68017416 68107488 68197256 
3185.619 68287208 68378112 68470392 68564352 68659544 68755064 68849712 
3188.994 68942208 69031960 69119048 69203952 69286872 69368232 69447808 
3192.369 69525304 69600824 69674696 69747792 69821176 69895352 69970352 
3195.744 70045296 70119240 70191008 70260728 70329016 70397088 70465784 
3199.120 70535312 70605320 70674248 70741080 70805080 70866864 70927176 
3202.495 70987016 71047184 71107640 71167632 71226848 71284864 71342584 
3205.870 71400456 71459512 71519736 71580264 71639888 71697096 71751776 
3209.245 71804112 71855016 71905448 71955696 72005128 72052184 72095992 
3212.621 72136200 72173880 72211128 72250216 72292800 72339328 72388376 
3215.996 72438208 72486640 72532720 72576464 72618800 72661216 72704888 
3219.371 72750608 72798600 72848944 72902168 72958368 73017984 73080984 
3222.746 73146856 73214272 73282360 73349592 73416016 73481272 73545872 
3226.122 73609848 73673520 73736456 73798072 73858240 73916968 73974360 
3229.497 74030896 74086928 74142576 74198472 74255232 74314400 74377792 
3232.872 74446928 74522320 74603288 74687448 74772224 74854496 74932920 
3236.247 75007304 75078512 75148224 75217448 75286720 75355368 75422656 
3239.623 75487968 75551848 75615288 75679856 75746792 75816496 75888072 
3242.998 75960136 76031928 76102520 76172632 76243520 76316552 76392912 
3246.373 76473272 76557528 76645352 76736040 76828920 76923168 77017872 
3249.748 77111808 77203424 77291384 77375160 77454560 77530360 77603336 
3253.124 77674528 77745136 77815216 77885016 77954400 78022792 78089256 
3256.499 78152688 78211672 78264880 78312016 78353728 78391936 78429288 
3259.874 78468392 78511064 78557752 78607032 78656824 78704640 78748888 
3263.249 78788656 78824408 78856624 78885984 78912416 78935696 78955208 
3266.625 78971064 78983624 78993800 79002464 79010176 79017088 79023008 
3270.000 79027824 79031520 79034616 79037760 79041296 79045392 79049208 
3273.375 79051912 79053056 79052904 79052032 79051864 79053696 79058144 
3276.750 79065072 79073928 79083712 79094280 79105656 79118096 79131776 
3280.125 79146680 79162152 79177576 79193000 79209272 79228152 79251736 
3283.501 79281800 79318832 79361984 79409480 79458688 79508192 79557336 
3286.876 79606528 79657192 79710608 79767584 79828144 79892304 79959536 
3290.251 80030280 80105424 80185680 80271928 80364736 80464024 80569992 
3293.626 80682688 80802360 80929936 81066160 81210632 81362728 81520576 
3297.002 81682136 81845288 82008824 82172464 82336632 82502920 82672072 
3300.377 82845584 83024376 83208976 83400000 83597784 83802480 84014152 
3303.752 84232488 84457088 84687280 84922392 85161656 85404440 85650512 
3307.127 85899712 86152768 86410592 86675072 86947608 87229056 87518688 
3310.503 87814424 88113488 88412672 88709960 89005408 89300536 89598592 
3313.878 89902384 90213456 90531768 90855504 91182056 91508968 91834616 
3317.253 92159112 92483000 92807248 93131368 93455280 93777336 94096376 
3320.628 94411784 94723624 95032024 95336848 95637584 95932832 96221328 
3324.004 96502448 96776176 97043568 97306184 97564864 97819664 98069968 
3327.379 98314224 98551008 98779104 98997576 99205632 99401744 99584240 
3330.754 99751128 99900776 100032744 100147648 100246720 100331120 100400928 
3334.129 100454536 100489872 100504864 100498720 100472288 100428232 
3337.022 100369736 100298944 100215632 100118112 100002792 99866624 99706816 
3340.398 99523152 99316696 99089224 98842744 98578152 98295488 97994056 
3343.773 97673016 97331272 96968328 96584016 96177416 95748360 95297312 
3347.148 94825552 94335352 93830256 93313952 92789976 92261136 91729264 
3350.523 91195664 90660760 90125208 89589424 89053776 88517800 87981392 
3353.899 87443992 86905872 86367864 85832448 85302368 84780752 84269944 
3357.274 83771344 83284952 82810496 82347488 81895736 81456016 81029144 
3360.649 80615584 80215576 79828072 79451616 79084304 78724696 78371976 
3364.024 78025808 77686888 77355792 77034096 76722712 76422896 76135560 
3367.400 75860840 75598056 75345312 75100096 74859528 74620952 74382264 
3370.775 74142736 73901720 73659040 73413696 73164776 72910512 72649696 
3374.150 72381056 72104440 71819512 71526576 71224816 70912888 70589104 
3377.525 70251528 69899008 69530632 69146640 68747456 68332968 67903072 
3380.901 67457000 66993676 66513008 66014968 65500928 64972496 64432248 
3384.276 63882692 63326284 62765376 62201904 61637140 61072076 60506380 
3387.651 59939932 59371528 58800828 58227660 57653240 57078860 56506752 
3391.026 55939352 55378260 54825264 54281680 53748264 53225724 52713884 
3394.402 52211976 51718008 51229596 50744148 50259508 49775368 49292068 
3397.777 48812048 48338000 47871532 47413260 46961740 46514488 46067996 
3401.152 45620224 45169504 44716344 44262336 43809644 43360684 42916612 
3404.527 42478292 42045708 41618364 41195528 40776300 40360388 39946940 
3407.903 39535704 39126416 38719216 38314964 37914488 37519332 37130596 
3411.278 36749240 36375784 36009776 35650408 35296552 34947144 34601500 
3414.653 34259572 33921888 33589980 33265342 32949306 32642752 32345336 
3418.028 32056260 31773828 31495958 31221690 30949974 30680920 30415442 
3421.404 30154426 29898640 29648044 29402094 29159756 28919856 28681398 
3424.779 28444026 28208266 27974156 27742786 27514752 27290506 27070078 
3428.154 26853218 26639214 26427496 26217398 26008314 25800138 25593190 
3431.529 25387990 25185204 24986022 24791036 24600590 24414328 24231758 
3434.905 24051678 23873388 23696046 23519094 23342700 23167148 22992854 
3438.280 22820622 22650586 22482748 22316646 22151550 21986692 21821930 
3441.655 21657474 21494682 21334980 21179580 21028930 20882366 20737206 
3445.030 20590568 20439254 20281778 20118078 19951110 19784518 19622498 
3448.406 19468262 19322848 19184996 19052554 18922264 18792118 18661146 
3451.781 18529762 18398590 18268636 18139894 18011844 17883352 17753756 
3455.156 17622750 17491406 17361272 17234040 17111256 16993606 16880984 
3458.531 16773108 16668703 16566800 16466057 16365098 16262544 16157504 
3461.906 16049430 15938668 15826523 15714822 15605312 15499229 15396777 
3465.282 15297506 15200078 15103528 15007205 14911351 14816647 14724056 
3468.657 14634261 14547568 14463837 14382624 14303309 14225652 14149172 
3472.032 14073186 13997178 13919814 13840721 13759658 13677310 13594774 
3475.407 13514030 13436377 13362907 13293514 13227446 13163812 13101555 
3478.783 13039818 12978569 12917805 12858005 12799477 12743038 12689711 
3482.158 12640415 12596651 12559303 12528369 12503202 12481821 12461906 
3485.533 12441175 12418296 12392726 12365350 12337123 12309581 12284289 
3488.908 12261794 12242980 12228667 12219431 12216262 12219158 12227917 
3492.284 12241242 12257465 12274814 12292095 12309308 12327408 12348101 
3495.659 12373498 12405102 12443698 12489971 12543682 12604462 12672618 
3499.034 12747747 12829645 12917566 13010558 13107736 13208795 13313910 
3502.409 13424177 13541479 13667360 13803232 13949615 14106008 14271738 
3505.785 14445100 14624494 14808317 14995167 15183642 15373090 15563583 
3509.160 15756084 15952175 16153790 16362447 16578469 16801144 17028478 
3512.535 17258310 17488750 17718274 17946022 18171504 18393682 18611304 
3515.910 18822288 19024756 19217654 19400624 19574278 19739542 19896578 
3519.286 20044512 20180276 20299762 20398898 20473534 20520878 20539706 
3522.661 20530258 20493264 20430292 20343304 20233732 20103294 19952984 
3526.036 19783442 19594836 19387286 19160928 18916520 18656094 18381444 
3529.411 18095432 17800598 17498856 17191982 16881052 16567042 16250435 
3532.787 15931621 15610257 15285837 14957784 14625557 14290091 13953687 
3536.162 13619560 13291942 12974335 12668763 12375748 12094037 11821530 
3539.537 11556136 11296482 11041877 10792618 10549578 10313359 10084423 
3542.912 9862829 9648122 9438872 9233885 9031465 8830086 8629004 8428859 
3546.770 8231811 8041030 7859778 7690340 7532767 7385092 7243128 7102590 
3550.627 6959540 6812093 6660525 6507664 6356504 6210304 6071041 5939213 
3554.485 5814577 5696087 5583302 5475881 5373216 5274936 5179260 5084175 
3558.342 4987703 4888974 4787855 4685420 4583712 4485042 4391246 4303762 
3562.199 4223155 4149922 4083290 4021652 3962864 3902513 3836120 3758775 
3566.057 3667609 3562464 3447794 3330682 3219277 3120582 3037758 2970296 
3569.914 2915153 2867288 2822630 2777443 2729993 2679615 2626776 2572010 
3573.772 2516084 2460099 2404488 2350283 2298016 2247855 2199264 2151545 
3577.629 2103497 2054024 2002626 1949269 1894589 1839516 1785082 1732384 
3581.487 1682920 1637485 1597277 1562526 1532665 1505433 1477970 1446254 
3585.344 1406894 1357633 1298740 1233375 1167156 1106362 1057267 1022858 
3589.201 1003861 997950 1002101 1011566 1021961 1029002 1028637 1017046 
3593.059 992138 952985 901418 840894 776925 715024 660133 615237 580996 
3597.398 556378 538165 523070 507844 489897 467739 441967 413742 385619 
3601.738 360316 340154 326526 319794 319397 323508 330041 335744 338098 
3606.078 333920 321287 298839 267109 228353 186651 146510 111709 84036 62660 
3610.899 44998 27468 7024 -17858 -46120 -75108 -101510 -122678 -138246 
3615.239 -149475 -159213 -170805 -186405 -207303 -232704 -261117 -289528 
3619.096 -315420 -336445 -350913 -358230 -358461 -352800 -342338 -328995 
3622.954 -314030 -298004 -280521 -260487 -237042 -210085 -183093 -161034 
3626.811 -152555 -166102 -207965 -277210 -364420 -453070 -525122 -569333 
3630.669 -584422 -576447 -555037 -530483 -510262 -498381 -495270 -498910 
3634.526 -506092 -514101 -521250 -527438 -533130 -539021 -545441 -552159 
3638.384 -558876 -565693 -573039 -581576 -591933 -603812 -616385 -627635 
3642.241 -635608 -638619 -635807 -627734 -616154 -603183 -592132 -584885 
3646.098 -583859 -590113 -603977 -624855 -651853 -683315 -717785 -752749 
3649.956 -784567 -808347 -819459 -814135 -791347 -753410 -705248 -654367 
3653.813 -609536 -578201 -566752 -577142 -606128 -646030 -687186 -720994 
3657.671 -742859 -752980 -754733 -752385 -749904 -749375 -751492 -755428 
3661.528 -759827 -763432 -765615 -765450 -762605 -756255 -745141 -728966 
3665.385 -707365 -681562 -653805 -627833 -608213 -599411 -605268 -626543 
3669.243 -660455 -698301 -727444 -735846 -714345 -661547 -582470 -487691 
3673.100 -390243 -304064 -242473 -215384 -225716 -267905 -328995 -395936 
3676.958 -458763 -515094 -566388 -615293 -662539 -706770 -743785 -769882 
3680.815 -783277 -785229 -778945 -769287 -759099 -749772 -739749 -726617 
3684.673 -708424 -685532 -660819 -638851 -625980 -627138 -644806 -677956 
3688.530 -721788 -769981 -816251 -856564 -889102 -913538 -930136 -938335 
3692.387 -938038 -929408 -913240 -891483 -866154 -840624 -817177 -797400 
3696.245 -781723 -769981 -761415 -755163 -750566 -748085 -748746 -753609 
3700.102 -764094 -780499 -801633 -825544 -848991 -868832 -883051 -890590 
3703.960 -891417 -886457 -876438 -862020 -843468 -821146 -795614 -768195 
3707.817 -740841 -715999 -696349 -683580 -678783 -681496 -690659 -703825 
3711.675 -718347 -731347 -740179 -743057 -739716 -731017 -719505 -708424 
3715.532 -701113 -700021 -706009 -718017 -732737 -746927 -757115 -761944 
3719.389 -762175 -760025 -758504 -759397 -763333 -768427 -773156 -775637 
3723.247 -775670 -774909 -775670 -780631 -790521 -803948 -817574 -827165 
3727.104 -828653 -819955 -801765 -776960 -750036 -726154 -709383 -701774 
3730.962 -703892 -712559 -724037 -733597 -738823 -740378 -742594 -750863 
3734.819 -770147 -801997 -842245 -882886 -914199 -928945 -924383 -902527 
3738.677 -867906 -825147 -778250 -729098 -678717 -629090 -584058 -550802 
3742.534 -538855 -557023 -608477 -684969 -766376 -826007 -844626 -818467 
3746.391 -757942 -680900 -605566 -548551 -519992 -523599 -554806 -603283 
3750.249 -656220 -702436 -735945 -754733 -759562 -751789 -732472 -703627 
3754.106 -667667 -628429 -590113 -555765 -527604 -506125 -490934 -481071 
3757.964 -476768 -478821 -488750 -506721 -530284 -554541 -573668 -582867 
3761.821 -580550 -568770 -552787 -538657 -531409 -532402 -539385 -548022 
3765.678 -552887 -551033 -543224 -533229 -526214 -526247 -535149 -551530 
3769.536 -571351 -589286 -601628 -606128 -603183 -594746 -583396 -570888 
3773.393 -558247 -545970 -533759 -521150 -507780 -493780 -479813 -467336 
3777.251 -458928 -457075 -463430 -478456 -499671 -522375 -541006 -551232 
3781.108 -551033 -541668 -527339 -513340 -504636 -504239 -513108 -529920 
3784.966 -551232 -573932 -595176 -613804 -628925 -640571 -648545 -652812 
3788.823 -653540 -651224 -646659 -640770 -634219 -626973 -618801 -609503 
3792.680 -599775 -591238 -586705 -588360 -597591 -613209 -631406 -646030 
3796.538 -650497 -640670 -615922 -580451 -541337 -507945 -489643 -493152 
3800.395 -521382 -570160 -629454 -684208 -721060 -733134 -720828 -692115 
3804.253 -657510 -629289 -617245 -626907 -657676 -702171 -748349 -782814 
3808.110 -797631 -790983 -766905 -731645 -691652 -650662 -610165 -569432 
3811.968 -528100 -486234 -446516 -413415 -392527 -388389 -402193 -430727 
3815.825 -465548 -496196 -514399 -517344 -508210 -494773 -487327 -494542 
3819.682 -522673 -572212 -636899 -704057 -758305 -788139 -789694 -766773 
3823.540 -728238 -684142 -643251 -610363 -586473 -568704 -551629 -530218 
3827.397 -501492 -465846 -427682 -392262 -364983 -349125 -345020 -350184 
3831.255 -359819 -369088 -374451 -374650 -370545 -364785 -361308 -363195 
3835.112 -373425 -394116 -425265 -465383 -510858 -556361 -595606 -623466 
3838.969 -636965 -636237 -623764 -603547 -580021 -556824 -536440 -520356 
3842.827 -508971 -501856 -497719 -495071 -491497 -485241 -474452 -458564 
3846.684 -437877 -413614 -387329 -360613 -334260 -308666 -284097 -262143 
3850.542 -246016 -242175 -258534 -303269 -381073 -487624 -607683 -719538 
3854.399 -803154 -848065 -855605 -833614 -792472 -741370 -686822 -633524 
3858.257 -583297 -537201 -495435 -457638 -423379 -392096 -363924 -339325 
3862.114 -319824 -307673 -304825 -312242 -328101 -347768 -364685 -372796 
3865.971 -368559 -353661 -334260 -320089 -320619 -342967 -388687 -451746 
3869.829 -518900 -574396 -607187 -613904 -599676 -573932 -547294 -527140 
3873.686 -516054 -511685 -507780 -497355 -475147 -440525 -395870 -347701 
3877.544 -303170 -269196 -250984 -250553 -265719 -290653 -317440 -338001 
3881.401 -346841 -343199 -330916 -317241 -310255 -318135 -345549 -391798 
3885.259 -449727 -507184 -550702 -569829 -561060 -527901 -478920 -424438 
3889.116 -374451 -337173 -316513 -312540 -320619 -333895 -345285 -349589 
3892.973 -344854 -331942 -312937 -290554 -267011 -244294 -223530 -206376 
3896.831 -194519 -189121 -191472 -201308 -216609 -234293 -251215 -264825 
3900.688 -274925 -283468 -293534 -308500 -329558 -355051 -380808 -401101 
3904.546 -410667 -406728 -389514 -362666 -331147 -299925 -272508 -250619 
3908.403 -234194 -221643 -210548 -199222 -186405 -171633 -155536 -139405 
3912.260 -124764 -113104 -105717 -103432 -106280 -114131 -126255 -141525 
3916.118 -158815 -177131 -195811 -214026 -231247 -246414 -257905 -264064 
3919.975 -263501 -255454 -240784 -221212 -200480 -181304 -166830 -158351 
3923.833 -156265 -158749 -163618 -167957 -170209 -169248 -165340 -159378 
3927.690 -152456 -145765 -140333 -136656 -135430 -137087 -141624 -148978 
3931.548 -158285 -168420 -177396 -183457 -185246 -182132 -174846 -164512 
3935.405 -153648 -143844 -136855 -133045 -131754 -131489 -130660 -127712 
3939.262 -121849 -113568 -104293 -95680 -89651 -87133 -87862 -90545 -93394 
3943.602 -94024 -91639 -85941 -78156 -70337 -64772 -63314 -67356 -76499 
3947.942 -89717 -104989 -119796 -132515 -141790 -147156 -148315 -145765 
3951.799 -139670 -130197 -117676 -101941 -83754 -63977 -43834 -24551 -7554 
3956.139 6361 17329 25679 32340 38337 43971 49008 52719 54078 52023 46423 
3961.443 37940 28264 19781 14446 13916 18886 28728 42214 57590 73066 87515 
3966.747 100308 111212 120525 128711 136135 143195 149957 156785 163878 
3971.086 171568 179656 188010 196131 203391 209026 212706 214164 213601 
3975.426 211744 209092 206573 205313 206076 209623 216187 225767 237636 
3979.765 250764 263595 274569 281896 284913 282791 276127 265915 253284 
3984.105 239923 227093 216419 208695 204518 204319 207336 213071 220098 
3988.445 227193 233293 238033 241083 243271 245095 247018 249338 251493 
3992.784 252654 252289 249803 245460 240155 234983 231237 229580 230508 
3997.124 233591 238100 243139 247482 250731 252554 252554 250897 
##END=
