
##TITLE=Z295_2_b
##JCAMP-DX=5.01  $$ Nicolet v. 1
##DATATYPE=INFRARED SPECTRUM
##ORIGIN=UniL
##OWNER=Nicolet
##LONGDATE=2011/09/09
##TIME=14:05:40
##SPECTROMETER/DATA SYSTEM=Nicolet iS5
##DATA PROCESSING=
Ratio against background
%Transmittance->Absorbance
Truncated
ElementMultiply or ElementDivide
##COMMENTS=
Number of sample scans: 32
Collection length: 51.21 sec
Sample gain: 2.0
Background collected on: Ven Sep 09 13:49:48 2011 (GMT+02:00);
Number of background scans: 32
Background gain: 2.0
Sample spacing:  1.000
Number of scan points: 12415
Resolution points: 8192
Number of FFT points: 65536
Apodization: N-B fort;
Phase correction: Mertz;
Laser frequency: 15798.0 cm-1
Number of rejected sample scans: 0
Number of rejected background scans: 0
Bench serial number: ASB1000141;
##RESOLUTION=4.000
##XUNITS=1/CM
##YUNITS=ABSORBANCE
##FIRSTX=649.893372
##LASTX=4000.122314
##FIRSTY=0.101607
##MAXX=4000.122314
##MINX=649.893372
##MAXY=0.280143
##MINY=0.000173
##XFACTOR=1.000000
##YFACTOR=1.000000E-009
##NPOINTS=6950
##DELTAX=0.482117
##ZPD=6100
##XYDATA=(X++(Y..Y))
649.893 101606800 100582168 99639416 98798192 98050568 97374224 96747520 
653.268 96164728 95636880 95185504 94826040 94559768 94368872 94227176 
656.643 94112344 94017872 93955744 93949456 94019720 94171232 94390128 
660.018 94649208 94923376 95200192 95486592 95802344 96170600 96603552 
663.393 97096600 97629448 98176208 98713512 99219912 99677432 100064624 
666.767 100356712 100536520 100614208 100639728 100679200 100784120 
669.660 100965232 101194304 101420280 101587672 101657216 101610992 
672.553 101461592 101242872 100998016 100757720 100529416 100300360 
675.446 100047384 99753880 99417160 99048024 98661152 98265400 97856112 
678.820 97418920 96939216 96412336 95847128 95262688 94675576 94091728 
682.195 93501872 92888864 92236672 91544192 90826992 90113912 89433960 
685.570 88803568 88222272 87674920 87141984 86609096 86075488 85550848 
688.945 85049240 84580544 84144440 83733376 83339104 82959760 82604464 
692.320 82290224 82036280 81855216 81748728 81709296 81726288 81793728 
695.694 81914384 82099960 82364312 82717768 83161384 83687768 84285032 
699.069 84944024 85662264 86443336 87291760 88206768 89175648 90176264 
702.444 91180984 92164200 93110392 94014536 94877984 95702552 96484536 
705.819 97214792 97882840 98483456 99020968 99508192 99963048 100400344 
709.194 100827128 101244296 101651520 102054144 102467624 102914584 
712.086 103416288 103983776 104608240 105259696 105891320 106454768 
714.979 106908608 107228120 107408968 107463408 107417624 107305320 
717.872 107171504 107071472 107066472 107225152 107609032 108257056 
720.765 109175224 110323552 111618384 112932184 114120704 115046784 
723.657 115596088 115711160 115398920 114736144 113846944 112882848 
726.550 111991728 111276456 110789072 110525992 110445224 110485648 
729.443 110592240 110731944 110893512 111082184 111305864 111566808 
732.335 111857008 112163584 112474792 112787336 113106128 113439920 
735.228 113793544 114163416 114536952 114899520 115241984 115565560 
738.121 115881816 116206008 116549072 116911232 117281808 117644840 
741.013 117988784 118311024 118619576 118926992 119243344 119569880 
743.906 119899024 120218840 120521008 120805448 121081000 121359056 
746.799 121646728 121941856 122234248 122511152 122765024 122998904 
749.692 123224896 123457920 123706136 123966704 124225752 124466680 
752.584 124677848 124859888 125024584 125189576 125368368 125563832 
755.477 125767960 125967192 126151456 126319080 126478392 126641136 
758.370 126816672 127005336 127198920 127386360 127560512 127723488 
761.262 127886520 128063216 128263112 128486784 128727328 128976208 
764.155 129233568 129512128 129840536 130256088 130793128 131476760 
767.048 132311120 133276952 134326320 135386416 136367920 137168432 
769.940 137701424 137917312 137827008 137510880 137109456 136795984 
772.833 136709920 136918944 137378784 137943696 138388448 138473072 
775.726 138025200 136968816 135348496 133291456 130967032 128523576 
778.619 126047048 123561528 121037136 118422640 115670032 112758680 
781.511 109698072 106525096 103291608 100055856 96879696 93817792 90919384 
784.886 88225400 85762040 83543000 81569344 79833200 78322136 77024840 
788.261 75934048 75045976 74359264 73872264 73581424 73482840 73574048 
791.636 73858128 74344288 75046960 75981920 77159376 78577848 80217288 
795.010 82038960 83983000 85967840 87903056 89688600 91227424 92447624 
798.385 93312224 93838152 94095840 94210336 94336968 94619544 95172752 
801.760 96037432 97164520 98403032 99522232 100257616 100338176 99569648 
805.135 97874408 95315056 92081696 88450080 84728232 81160824 77899448 
808.510 74978312 72329544 69823120 67318896 64723328 62005800 59205776 
811.885 56406456 53711632 51210768 48959224 46980312 45266576 43794176 
815.259 42531680 41449084 40520040 39720144 39028312 38425976 37898796 
818.634 37438564 37043048 36713576 36452640 36260364 36134280 36069972 
822.009 36063740 36115088 36227336 36407240 36662344 36998016 37415920 
825.384 37913328 38482812 39111404 39780744 40466244 41135672 41754920 
828.759 42292972 42729316 43063304 43317812 43541808 43800040 44168496 
832.133 44724016 45525984 46610428 47974432 49568748 51286308 52963816 
835.508 54409504 55405552 55760668 55353984 54153708 52236868 49765672 
838.883 46968200 44078124 41295868 38776708 36604340 34803956 33357822 
842.258 32223880 31351626 30690734 30199534 29841604 29585364 29406242 
845.633 29284790 29208306 29170742 29169466 29202954 29268946 29362884 
849.008 29480030 29617216 29774530 29954692 30161280 30396644 30659726 
852.382 30946666 31252842 31575770 31916446 32280516 32675010 33107470 
855.757 33583076 34105964 34680232 35313012 36014924 36801528 37690628 
859.132 38700304 39849560 41158404 42647720 44341920 46262416 48419224 
862.507 50798784 53352756 55992612 58583536 60970148 62992820 64508548 
865.882 65428196 65724336 65442876 64690792 63628860 62450744 61341336 
869.256 60477016 59999504 60001292 60535976 61612856 63203856 65242992 
872.631 67630224 70237632 72895976 75414096 77592992 79230264 80166032 
876.006 80300664 79609472 78147728 76039072 73458240 70588280 67610552 
879.381 64681948 61910836 59365636 57071456 55020000 53182356 51522812 
882.756 50012280 48633084 47382660 46270228 45310596 44516628 43894136 
886.131 43440580 43147468 43004732 43005096 43147500 43436552 43879836 
889.505 44483116 45248004 46170612 47243992 48461380 49820184 51323740 
892.880 52981556 54807296 56814956 59016524 61417468 64011232 66771008 
896.255 69639840 72526696 75291016 77759560 79744496 81057136 81557992 
899.630 81175480 79922528 77892512 75245384 72188592 68928648 65665668 
903.005 62570236 59761192 57318616 55281724 53656664 52428944 51572096 
906.379 51057384 50857264 50950588 51323368 51966920 52876456 54049300 
909.754 55482764 57174060 59118144 61305272 63716756 66319808 69059112 
913.129 71862720 74640312 77293240 79738128 81913304 83795496 85402632 
916.504 86793128 88054352 89280920 90565152 91971528 93518728 95169328 
919.879 96825616 98342976 99536024 100225976 100276488 99624120 98311520 
923.254 96491648 94427312 92432656 90850728 90005592 90127616 91339248 
926.628 93617240 96798856 100578368 104543824 108261816 111285616 113245272 
930.003 113901728 113139104 110978080 107539552 103023456 97667408 91722584 
933.378 85458776 79127120 72957464 67158520 61885844 57250340 53318772 
936.753 50112636 47625292 45831496 44698052 44185000 44241168 44800752 
940.128 45763636 46993272 48330484 49588136 50587172 51186612 51291116 
943.502 50875892 49981160 48705876 47180752 45543864 43928260 42433280 
946.877 41123764 40031956 39160464 38493380 38004060 37664828 37447884 
950.252 37327628 37282388 37290656 37332284 37390712 37452652 37510628 
953.627 37563584 37615068 37671944 37740756 37827032 37934120 38063228 
957.002 38215416 38391368 38592088 38818008 39068696 39342276 39635844 
960.377 39947052 40274804 40619716 40983476 41367808 41772904 42196704 
963.751 42635984 43087488 43549576 44022860 44509984 45014048 45537572 
967.126 46081444 46645544 47229588 47834872 48464160 49121624 49811452 
970.501 50535764 51294992 52088312 52915344 53777664 54679920 55628492 
973.876 56630212 57689984 58809784 59989804 61229424 62529564 63893676 
977.251 65327472 66838408 68433808 70121104 71910072 73813936 75850944 
980.625 78046152 80426776 83020040 85849728 88931272 92269624 95856264 
984.000 99666552 103651160 107726168 111776856 115642352 119127512 122035008 
987.375 124168680 125375432 125571448 124747616 122977528 120400368 
990.268 117219048 113664048 109967784 106361384 103033280 100124832 97732848 
993.643 95901048 94634872 93912104 93697152 93949696 94631368 95711344 
997.017 97162320 98959088 101078872 103497232 106188080 109123848 112266720 
1000.392 115564048 118944424 122304768 125519768 128454312 130967352 
1003.285 132943288 134305824 135027344 135135568 134710896 133884576 
1006.178 132812440 131670680 130639880 129871816 129493776 129595000 
1009.070 130222320 131392984 133100312 135326832 138049824 141247008 
1011.963 144897936 148978688 153462592 158322528 163528176 169051728 
1014.856 174862672 180912240 187122128 193363600 199436320 205092272 
1017.748 210043936 214000992 216742752 218146000 218228832 217148720 
1020.641 215204032 212797632 210354160 208316400 207068832 206884720 
1023.534 207939616 210283712 213863984 218536080 224101072 230337024 
1026.427 236994048 243831424 250613920 257097392 263059376 268298416 
1029.320 272650400 276016192 278361344 279713952 280142944 279744416 
1032.213 278624448 276880640 274609760 271897600 268808896 265386128 
1035.106 261638784 257546816 253069488 248167616 242824112 237057120 
1037.999 230924288 224513712 217936912 211305488 204726688 198302336 
1040.892 192114752 186228912 180684848 175485744 170596928 165946672 
1043.785 161445424 156998960 152535120 148025248 143490048 139000000 
1046.678 134655504 130581248 126899568 123712080 121102112 119120096 
1049.571 117786096 117093288 117011768 117495640 118484536 119916888 
1052.464 121731304 123867352 126270816 128882752 131631080 134430704 
1055.357 137170704 139718928 141941552 143702368 144885776 145414016 
1058.250 145248704 144402720 142938176 140972688 138665920 136202992 
1061.144 133794976 131641208 129915568 128766240 128292440 128550976 
1064.037 129557400 131288440 133683680 136643184 140041808 143718160 
1066.930 147485904 151163360 154568720 157547664 159991136 161826400 
1069.823 163018928 163563712 163474192 162776608 161504768 159701152 
1072.716 157413056 154692176 151599872 148205440 144593216 140872640 
1075.609 137167664 133620128 130383416 127594832 125376552 123823464 
1078.502 122988384 122886984 123489136 124723152 126464872 128542376 
1081.395 130755512 132867736 134648816 135912336 136530960 136475392 
1084.288 135814016 134710944 133387672 132091000 131077040 130558952 
1087.181 130701752 131612184 133323880 135800928 138933104 142557488 
1090.074 146453280 150364512 154046848 157264592 159826848 161608928 
1092.967 162539616 162606816 161844768 160327472 158154512 155437120 
1095.860 152297872 148851248 145199024 141435472 137638176 133873624 
1098.753 130199280 126655024 123261992 120017296 116893928 113845264 
1101.646 110816096 107761584 104657776 101514288 98373320 95309440 92416344 
1105.022 89787920 87517752 85683248 84339384 83524440 83256096 83534808 
1108.397 84345984 85662296 87445488 89643104 92195656 95031824 98063944 
1111.772 101195936 104312728 107280888 109968424 112241320 113983736 
1114.665 115117576 115601144 115436568 114661592 113345616 111577088 
1117.558 109450448 107067656 104521784 101890216 99236024 96599784 94004368 
1120.934 91461352 88976864 86559512 84225488 81996616 79900704 77966848 
1124.309 76219000 74677224 73356384 72267904 71423576 70837296 70523936 
1127.684 70498904 70774224 71353944 72231904 73388832 74792968 76395472 
1131.059 78134520 79936232 81711936 83373784 84841568 86053592 86982984 
1134.435 87641024 88080120 88378480 88633232 88943512 89387312 90017656 
1137.810 90850432 91863232 92995032 94153168 95230720 96107136 96670272 
1141.185 96831864 96526032 95719408 94407008 92607152 90356056 87704280 
1144.560 84717480 81468760 78039488 74516896 70980816 67505576 64155540 
1147.936 60977740 58008152 55270400 52776772 50531560 48532848 46773868 
1151.311 45243704 43929252 42816480 41891220 41141028 40556380 40130028 
1154.686 39856932 39733648 39756996 39925000 40236628 40693292 41298928 
1158.061 42059616 42982744 44074052 45337004 46771176 48372888 50134280 
1161.437 52043004 54081724 56223316 58429272 60651820 62828972 64892732 
1164.812 66776416 68412592 69743672 70724584 71321256 71516464 71310520 
1168.187 70721736 69783544 68541968 67052096 65367804 63541932 61624196 
1171.562 59655844 57675792 55719344 53815920 51993364 50274836 48677668 
1174.938 47215328 45896492 44725784 43706044 42838348 42123392 41560824 
1178.313 41149880 40889068 40775936 40809312 40988868 41316204 41794976 
1181.688 42429224 43223332 44180232 45301144 46585528 48030052 49626508 
1185.063 51358200 53199060 55106508 57023544 58884984 60614792 62139892 
1188.438 63397980 64337448 64927012 65156364 65036924 64600392 63895516 
1191.814 62987148 61943388 60834132 59727012 58677208 57731344 56925392 
1195.189 56282192 55815712 55529600 55418052 55464956 55643444 55918584 
1198.564 56243760 56565324 56827380 56968764 56931668 56667812 56138884 
1201.939 55327452 54238468 52902920 51371628 49710720 47995708 46295328 
1205.315 44669996 43166936 41814744 40628556 39611416 38758444 38059320 
1208.690 37501128 37070508 36753172 36535424 36406592 36357880 36384684 
1212.065 36485540 36661300 36913272 37242024 37646576 38124032 38669736 
1215.440 39276948 39936988 40638380 41366020 42103384 42832424 43536096 
1218.816 44200736 44816288 45375880 45875648 46313612 46689780 47006932 
1222.191 47272588 47499708 47705716 47913492 48147164 48429412 48781016 
1225.566 49217176 49746540 50370972 51084328 51871736 52709204 53567480 
1228.941 54412284 55208688 55928536 56551136 57066468 57476120 57792696 
1232.317 58039740 58249144 58464412 58737364 59122472 59679376 60463152 
1235.692 61519656 62886528 64588168 66637760 69039224 71788088 74871264 
1239.067 78263648 81928592 85814120 89851368 93965664 98072920 102085992 
1242.442 105923544 109502200 112742272 115573952 117935184 119781088 
1245.335 121087224 121847488 122072272 121782840 121010600 119793096 
1248.229 118174168 116205880 113940104 111423400 108691560 105763344 
1251.122 102642424 99325480 95812344 92117656 88279112 84354792 80424584 
1254.497 76580488 72908824 69491904 66393188 63650800 61278944 59265780 
1257.872 57577192 56157812 54939220 53848060 52805660 51743876 50609660 
1261.247 49366492 48000592 46517996 44941540 43304012 41645100 40006484 
1264.623 38424020 36928640 35543344 34280724 33145808 32135672 31242588 
1267.998 30454996 29761046 29150226 28614222 28146856 27743564 27399862 
1271.373 27110882 26871654 26677652 26526316 26417250 26352182 26333806 
1274.748 26364330 26443906 26569992 26736142 26932144 27144070 27353738 
1278.124 27538864 27676956 27745718 27728590 27618020 27416696 27136630 
1281.499 26795418 26413130 26006694 25588128 25165296 24743258 24327064 
1284.874 23925096 23548266 23209614 22923374 22701556 22554600 22491366 
1288.249 22519178 22646014 22879958 23228034 23694926 24281580 24983952 
1291.625 25791736 26687868 27648422 28638428 29614522 30527508 31323314 
1295.000 31955284 32390744 32616746 32643788 32502818 32242186 31914272 
1298.375 31572066 31263382 31023706 30878746 30842816 30917882 31093890 
1301.750 31347636 31647220 31951040 32215316 32402168 32479930 32429728 
1305.125 32245684 31933886 31510032 30996910 30423688 29820628 29217804 
1308.501 28643278 28118186 27657074 27267116 26949666 26703160 26525646 
1311.876 26416300 26375702 26404432 26501942 26665670 26891640 27176134 
1315.251 27517470 27916418 28375648 28898396 29486450 30139472 30855658 
1318.626 31632964 32470186 33367194 34322640 35331236 36379892 37447596 
1322.002 38503228 39507288 40419368 41198148 41809492 42234024 42471388 
1325.377 42545056 42499596 42400616 42322520 42333004 42487828 42816188 
1328.752 43317960 43965912 44715240 45516268 46321392 47097472 47827512 
1332.127 48509804 49154872 49781612 50415180 51080564 51802408 52600396 
1335.503 53484684 54454876 55497148 56587860 57693464 58775792 59797164 
1338.878 60719452 61509080 62139624 62593392 62864856 62960408 62897212 
1342.253 62698612 62389264 61993796 61531568 61016856 60460296 59868200 
1345.628 59245084 58594612 57919248 57219948 56495468 55742060 54954188 
1349.004 54127060 53259700 52358372 51439284 50527948 49661388 48883648 
1352.379 48240684 47781128 47547024 47570352 47869056 48439488 49254176 
1355.754 50257052 51373716 52514380 53582700 54495404 55182464 55595540 
1359.129 55713804 55542252 55113468 54480908 53723516 52936228 52215824 
1362.505 51658144 51334744 51279592 51486624 51910272 52478972 53100088 
1365.880 53678784 54123944 54351972 54305072 53955612 53314164 52425360 
1369.255 51360552 50204088 49030624 47904132 46870268 45956008 45180052 
1372.630 44556976 44101152 43827748 43747452 43860956 44154516 44602464 
1376.006 45174720 45842100 46584532 47392452 48264492 49206228 50227816 
1379.381 51345072 52577732 53949044 55479752 57175684 59014320 60930496 
1382.756 62822008 64545260 65937868 66849536 67144944 66734260 65591448 
1386.131 63776464 61444344 58821012 56178292 53751492 51695128 50075300 
1389.507 48875896 48033160 47460788 47077084 46808524 46590576 46371052 
1392.882 46102440 45744756 45273304 44681708 43986152 43217036 42409020 
1396.257 41587228 40761888 39932884 39098604 38265748 37456876 36707232 
1399.632 36054672 35530112 35146060 34898452 34771148 34745156 34803956 
1403.008 34935868 35135248 35399708 35727428 36115052 36556796 37045248 
1406.383 37573880 38137632 38734972 39366072 40032100 40732844 41465928 
1409.758 42225484 43004072 43794328 44589908 45386916 46182440 46973444 
1413.133 47756312 48526548 49280972 50020312 50749812 51479608 52222592 
1416.509 52992300 53800320 54654856 55558936 56508036 57487580 58472788 
1419.884 59430720 60326416 61126352 61804696 62346540 62749260 63027024 
1423.259 63211104 63348748 63490464 63678236 63937052 64271480 64672336 
1426.634 65126524 65624624 66162536 66738980 67352440 67998272 68670840 
1430.010 69367376 70093776 70864480 71697680 72610064 73609848 74695480 
1433.385 75858088 77089056 78386304 79755168 81208192 82756688 84404408 
1436.760 86137776 87930928 89754880 91580320 93377088 95103296 96704504 
1440.135 98102152 99200096 99906568 100135136 99822464 98935992 97468976 
1443.510 95444616 92912704 89956760 86683888 83210056 79662880 76159600 
1446.886 72806432 69703560 66930012 64536804 62535456 60900076 59579944 
1450.261 58520708 57686464 57068508 56682272 56549924 56681892 57058684 
1453.636 57631144 58317272 59014548 59617188 60017992 60143672 59985200 
1457.011 59621672 59190668 58826932 58622976 58611712 58789448 59140016 
1460.387 59644480 60283628 61031540 61855128 62706112 63520424 64231596 
1463.762 64776020 65115632 65252304 65230548 65119908 64985156 64873308 
1467.137 64802484 64767748 64748212 64713480 64626804 64439668 64094172 
1470.512 63527128 62681468 61535004 60126588 58568900 57013872 55606084 
1473.888 54437748 53534720 52880088 52442740 52198636 52137476 52256972 
1477.263 52551400 53003232 53580788 54246276 54960280 55693464 56431996 
1480.638 57177652 57946468 58762440 59653908 60648124 61772496 63059168 
1484.013 64543836 66264996 68254872 70526696 73057776 75772744 78549336 
1487.389 81206480 83519384 85255224 86180728 86115040 84979800 82824728 
1490.764 79831928 76259712 72388568 68443160 64562292 60821632 57240624 
1494.139 53819220 50572728 47539184 44786756 42398868 40445260 38959916 
1497.514 37932384 37323872 37081912 37157016 37509580 38105256 38910156 
1500.890 39889692 41002996 42205544 43453620 44692836 45859740 46875544 
1504.265 47625144 47961112 47714004 46733904 44975900 42563948 39772536 
1507.640 36897144 34142524 31587280 29222658 27011332 24925836 22958898 
1511.015 21127362 19458388 17971922 16676588 15564029 14615241 13807131 
1514.391 13117127 12525539 12012345 11559233 11152009 10783446 10456569 
1517.766 10180813 9964730 9808803 9700840 9616752 9529294 9417878 9281984 
1521.623 9143424 9036067 8985797 8996791 9053016 9128739 9200650 9255615 
1525.481 9295355 9332525 9384222 9460714 9560928 9674989 9791452 9904657 
1529.338 10016977 10137432 10274815 10432708 10606242 10783887 10952431 
1532.713 11105845 11250098 11402835 11582610 11800387 12052950 12327170 
1536.089 12605314 12871282 13115488 13331233 13515568 13665513 13775151 
1539.464 13837129 13848076 13815305 13756750 13694442 13644109 13608004 
1542.839 13575116 13526540 13445091 13323272 13168116 12998438 12836743 
1546.214 12699195 12587851 12492699 12397636 12288583 12159932 12018068 
1549.590 11877611 11755584 11661668 11594623 11544567 11499858 11452365 
1552.965 11402053 11356202 11325525 11318383 11336442 11373073 11416407 
1556.340 11452569 11465088 11436172 11347733 11189236 10969830 10724042 
1559.715 10500253 10335075 10239193 10202319 10202421 10215379 10218093 
1563.091 10194382 10137296 10051123 9949609 9850356 9767662 9705550 9657710 
1566.948 9610858 9551647 9471245 9369190 9253686 9138416 9038434 8963337 
1570.805 8917540 8900867 8911013 8944700 8996385 9057753 9115441 9153610 
1574.663 9158077 9122344 9054775 8978220 8922242 8907969 8940607 9011303 
1578.520 9105391 9209314 9314989 9420350 9527261 9638399 9755529 9878455 
1582.378 10005788 10136856 10271525 10409562 10548593 10681863 10798290 
1585.753 10886175 10935306 10942679 10913866 10862971 10808752 10770743 
1589.128 10766837 10809296 10906696 11064241 11283968 11563078 11890824 
1592.503 12247650 12603131 12919989 13163027 13302977 13324297 13227958 
1595.879 13030565 12759484 12445301 12119419 11808150 11531909 11307806 
1599.254 11148100 11060944 11050339 11115737 11252989 11456856 11723244 
1602.629 12048624 12428695 12856367 13318557 13794988 14262185 14693072 
1606.004 15061573 15346384 15530031 15602083 15558775 15403334 15144870 
1609.380 14797278 14380329 13917283 13433950 12958597 12514592 12118295 
1612.755 11776929 11487747 11241088 11022674 10817789 10613033 10400161 
1616.130 10179626 9961508 9764306 9606657 9502335 9455498 9461256 9508092 
1619.988 9581083 9665875 9750278 9828088 9900352 9974968 10062822 10173148 
1623.845 10309457 10469297 10646785 10836234 11035079 11242923 11459270 
1627.220 11682669 11908294 12129539 12341691 12543614 12738875 12933916 
1630.595 13134818 13343977 13558912 13772107 13972608 14149207 14290331 
1633.971 14386940 14433899 14431844 14388960 14320534 14245441 14177961 
1637.346 14125142 14086157 14053438 14017162 13967169 13897679 13808636 
1640.721 13706991 13603868 13510851 13435249 13376745 13327952 13275715 
1644.096 13205927 13106029 12969522 12798556 12605519 12409978 12234290 
1647.472 12098363 12013673 11982438 11999946 12055778 12134922 12216330 
1650.847 12274575 12276757 12191180 12003386 11738324 11462605 11247344 
1654.222 11129878 11101087 11128723 11177677 11223100 11251935 11259926 
1657.597 11249248 11224937 11191616 11151431 11103737 11045887 10974723 
1660.973 10887737 10783955 10664442 10533012 10396394 10262941 10141740 
1664.348 10039899 9959780 9898928 9849745 9800635 9737638 9647410 9520859 
1668.205 9355918 9159464 8945512 8732542 8536506 8368357 8231743 8124510 
1672.063 8039949 7967521 7894633 7806879 7691656 7543488 7368612 7186092 
1675.920 7018970 6886046 6792471 6731120 6686803 6643904 6593170 6533495 
1679.778 6472282 6420862 6387606 6372273 6362993 6337608 6270439 6141373 
1683.635 5949794 5720998 5499840 5326388 5216113 5161187 5140734 5134430 
1687.492 5126216 5106637 5072643 5024942 4967158 4904690 4844677 4794690 
1691.350 4761390 4748627 4754857 4772244 4786817 4782227 4743334 4663985 
1695.207 4553543 4437438 4346933 4301855 4302591 4331271 4361626 4363567 
1699.065 4313099 4201375 4043791 3877406 3741930 3660625 3632090 3639541 
1702.922 3661494 3679004 3679004 3653642 3602521 3532366 3454473 3380735 
1706.780 3320198 3276562 3249154 3233965 3225986 3221347 3217775 3215639 
1710.637 3216506 3222214 3233631 3249755 3268583 3287379 3304439 3319130 
1714.494 3331650 3341968 3347110 3341901 3320131 3277764 3217641 3150351 
1718.352 3092015 3056310 3050170 3071426 3112372 3161799 3209430 3248887 
1722.209 3277396 3296560 3310683 3324906 3343337 3368013 3399002 3434835 
1726.067 3473812 3513192 3549803 3579836 3600049 3608869 3607800 3601385 
1729.924 3595104 3593133 3595138 3594102 3577130 3527255 3430527 3283873 
1733.781 3103462 2920357 2770807 2676148 2636776 2637643 2658079 2679182 
1737.639 2687016 2674247 2640677 2592975 2541646 2497255 2467930 2456067 
1741.496 2460232 2476061 2498521 2522816 2544979 2563410 2577876 2590009 
1745.354 2602275 2617375 2636410 2658745 2682015 2702520 2716190 2719224 
1749.211 2709388 2685449 2648177 2600308 2547112 2495689 2453101 2424446 
1753.069 2411252 2410752 2416516 2419681 2411984 2387729 2346851 2295085 
1756.926 2242859 2200963 2175487 2166563 2167861 2170825 2166196 2147582 
1760.783 2113586 2067141 2015008 1964879 1923376 1894289 1878116 1873524 
1764.641 1877717 1886535 1895321 1899581 1895720 1883673 1866602 1850862 
1768.498 1842943 1846603 1860080 1876585 1886402 1880079 1853059 1808837 
1772.356 1758666 1716583 1693198 1691269 1706038 1729324 1752977 1772805 
1776.213 1788475 1802516 1817954 1836288 1855621 1872559 1882708 1883840 
1780.071 1876519 1864539 1852693 1844241 1840148 1838750 1837053 1832761 
1783.928 1824775 1814194 1803447 1794996 1790605 1791337 1797525 1809935 
1787.785 1828868 1854556 1885104 1916953 1944277 1960553 1960220 1941348 
1791.643 1906469 1862809 1818786 1782021 1755938 1739703 1730655 1725332 
1795.500 1721673 1718546 1716117 1714188 1712026 1708633 1702712 1693730 
1799.358 1681989 1668717 1655479 1643239 1632563 1623051 1614304 1606489 
1803.215 1600370 1596811 1597044 1601634 1610447 1623051 1638650 1656676 
1807.073 1675902 1695028 1711726 1722970 1726363 1721041 1708367 1692367 
1810.930 1677864 1669582 1670147 1678230 1690205 1701148 1707103 1706171 
1814.787 1700150 1692932 1689639 1694861 1710662 1736410 1769278 1805144 
1818.645 1840181 1871494 1898150 1920747 1940982 1961385 1983685 2008884 
1822.502 2036080 2062913 2086451 2103730 2113752 2118347 2121710 2128170 
1826.360 2141389 2161501 2185477 2207690 2222377 2225707 2218147 2204692 
1830.217 2192204 2188441 2197000 2217248 2245157 2275633 2304712 2330961 
1834.074 2355247 2380400 2409419 2444638 2486424 2534181 2586776 2643210 
1837.932 2703853 2769507 2841306 2920157 3006328 3098957 3196112 3295158 
1841.789 3391989 3482429 3563066 3632291 3692404 3748982 3809479 3879612 
1845.647 3960958 4050280 4140422 4222921 4290277 4338064 4365742 4375482 
1849.504 4370294 4352623 4322704 4279033 4219809 4145205 4058005 3963634 
1853.362 3868513 3777692 3693373 3614683 3538679 3462522 3385043 3306843 
1857.219 3230026 3156626 3087143 3020641 2955751 2891437 2828166 2767973 
1861.076 2713089 2664579 2622042 2583409 2546046 2509252 2474428 2444405 
1864.934 2422347 2409685 2404554 2402722 2398457 2387396 2369206 2347085 
1868.791 2326964 2314705 2313339 2322233 2337657 2355413 2371837 2385830 
1872.649 2397291 2406054 2412051 2414017 2410818 2402222 2389695 2375036 
1876.506 2360877 2348317 2336424 2322933 2305411 2282827 2256681 2230270 
1880.364 2207456 2190805 2180082 2172224 2162666 2147749 2125939 2098670 
1884.221 2069471 2042206 2019536 2002159 1988945 1978127 1968574 1959487 
1888.078 1950601 1941781 1932295 1921179 1908766 1896818 1888399 1887633 
1891.936 1896985 1916620 1943412 1971803 1996367 2012978 2021300 2023464 
1895.793 2024063 2026759 2033217 2042905 2053857 2064144 2072667 2079692 
1899.651 2085918 2091045 2094441 2094608 2091145 2085285 2080558 2081357 
1903.508 2091811 2112254 2140123 2170325 2196933 2215283 2224841 2227372 
1907.365 2226473 2225174 2224575 2223475 2220512 2214117 2204826 2194735 
1911.223 2186576 2182680 2183279 2188274 2196467 2207923 2222643 2241194 
1915.080 2262143 2281795 2294153 2293053 2274267 2237730 2189440 2138758 
1918.938 2093642 2059284 2035581 2018004 2001061 1981122 1957590 1933926 
1922.795 1914789 1903807 1901844 1906802 1915888 1926571 1938985 1954728 
1926.653 1975531 2001460 2029689 2055555 2074698 2085152 2088648 2089414 
1930.510 2092011 2098836 2108725 2117448 2120145 2114285 2100967 2084453 
1934.367 2070370 2062846 2062447 2066741 2071569 2073866 2073500 2073000 
1938.225 2075830 2084087 2097604 2113353 2127204 2136627 2141422 2144519 
1942.082 2149580 2158837 2171890 2186010 2197766 2205192 2209055 2212585 
1945.940 2219412 2232101 2250553 2271936 2293453 2313206 2330795 2348251 
1949.797 2366540 2385730 2403755 2418115 2425812 2427978 2426878 2425878 
1953.655 2426845 2428211 2424812 2410918 2382932 2341521 2293020 2247255 
1957.512 2213451 2196966 2196400 2206025 2218347 2227439 2231136 2232001 
1961.369 2233300 2236065 2239062 2239295 2233400 2222976 2213018 2209555 
1965.227 2219013 2242459 2274967 2309109 2336658 2353847 2362676 2369539 
1969.084 2379467 2395425 2414184 2429077 2433275 2423913 2403222 2380100 
1972.942 2363142 2359977 2373536 2403688 2448470 2509486 2590209 2694151 
1976.799 2821663 2965692 3111037 3238905 3333153 3384776 3394627 3372287 
1980.656 3330916 3283239 3238171 3199349 3167006 3140306 3118613 3101660 
1984.514 3088879 3079235 3069658 3056677 3038892 3017538 2996619 2981105 
1988.371 2974299 2975567 2981072 2984909 2981973 2970596 2954383 2938971 
1992.229 2931465 2935301 2949979 2972798 2999255 3025980 3053307 3081504 
1996.086 3111404 3142141 3170277 3190504 3200250 3198949 3189135 3176652 
1999.944 3165705 3158328 3153289 3146513 3133297 3111771 3082672 3050204 
2003.801 3018973 2993483 2975967 2967093 2966326 2973332 2989713 3015303 
2007.658 3049203 3088245 3126989 3159530 3183094 3197780 3206225 3213636 
2011.516 3223984 3238538 3257199 3278565 3300733 3324272 3350516 3379567 
2015.373 3410523 3439711 3462155 3474312 3476817 3473812 3473444 3483631 
2019.231 3508248 3546229 3591229 3634396 3667576 3686155 3689162 3678937 
2023.088 3658754 3631622 3600918 3569447 3541352 3521610 3514628 3521676 
2026.946 3540082 3563366 3582008 3588656 3581106 3563634 3545160 3535573 
2030.803 3543924 3573155 3620864 3681176 3747311 3813457 3875266 3929963 
2034.660 3975170 4009981 4034929 4053290 4071317 4096335 4134434 4187925 
2038.518 4253201 4321365 4381808 4425589 4447581 4448987 4434124 4409187 
2042.375 4378963 4345862 4310255 4273679 4238278 4208467 4188728 4182606 
2046.233 4190635 4211512 4242695 4282011 4328828 4383280 4443062 4503221 
2050.090 4554481 4586760 4593624 4574069 4535328 4490365 4454276 4438442 
2053.948 4446611 4474295 4509849 4542025 4562416 4569280 4567707 4565497 
2057.805 4568745 4579962 4597040 4614252 4626743 4631633 4629825 4624868 
2061.662 4620782 4620046 4623696 4630628 4639536 4649818 4661372 4673898 
2065.520 4686425 4696808 4702067 4700526 4691449 4676377 4657822 4637862 
2069.377 4617467 4596336 4573901 4549793 4525518 4503990 4487954 4478647 
2073.235 4475567 4474730 4471885 4464688 4453339 4441522 4434693 4437706 
2077.092 4452937 4478815 4510988 4543866 4573298 4596437 4612611 4622223 
2080.949 4625103 4621519 4611540 4596269 4578958 4563521 4553877 4551902 
2084.807 4556389 4563085 4567137 4564124 4553108 4535931 4516847 4499772 
2088.664 4486649 4476270 4466361 4454076 4438007 4419597 4401221 4385958 
2092.522 4375114 4367918 4362395 4356706 4350916 4347234 4349109 4359149 
2096.379 4377557 4402057 4427697 4449489 4464955 4473760 4477911 4480221 
2100.237 4482966 4486180 4489796 4493612 4498734 4508443 4526757 4556020 
2104.094 4596872 4646301 4698951 4749531 4794053 4830672 4860392 4884651 
2107.951 4904522 4920138 4930862 4936124 4937163 4936325 4936559 4940280 
2111.809 4947921 4957271 4965080 4968532 4966722 4961158 4955226 4952411 
2115.666 4955427 4964477 4977681 4992932 5008518 5024238 5041098 5060709 
2119.524 5083773 5109252 5135671 5160650 5182613 5201022 5216582 5229896 
2123.381 5241600 5251761 5260682 5269100 5278793 5292008 5310422 5333935 
2127.239 5360368 5385327 5403812 5412266 5409952 5398947 5383481 5368319 
2131.096 5357718 5353927 5358221 5371203 5393278 5424579 5463667 5507020 
2134.953 5547794 5578335 5592498 5587464 5565950 5535444 5505880 5486048 
2138.811 5480914 5490477 5511349 5538263 5566253 5592901 5616362 5635529 
2142.668 5648419 5652078 5643518 5622471 5591290 5555110 5519806 5490679 
2146.526 5467727 5450045 5433134 5412837 5387977 5358825 5326220 5291706 
2150.383 5253706 5208635 5153374 5086723 5008652 4923054 4832883 4739147 
2154.240 4639503 4530875 4411831 4289239 4178357 4101018 4082387 4140087 
2158.098 4276591 4476906 4712115 4948088 5153777 5310590 5410824 5456856 
2161.955 5456554 5419748 5358456 5285635 5212726 5151128 5107441 5081091 
2165.813 5064999 5048171 5018808 4970073 4902545 4823569 4743870 4672023 
2169.670 4611674 4559570 4508644 4450862 4382845 4307076 4232022 4168287 
2173.528 4124767 4105533 4109848 4131724 4162534 4194416 4219341 4230549 
2177.385 4222988 4193111 4141492 4072588 3996103 3924714 3870285 3840767 
2181.242 3838026 3856412 3885463 3914483 3935914 3946814 3949255 3948219 
2185.100 3948386 3952566 3961527 3973899 3988946 4005266 4022120 4038774 
2188.957 4053791 4065765 4075063 4083290 4094462 4112892 4142262 4182138 
2192.815 4229445 4277728 4319424 4350280 4368487 4375850 4376687 4374277 
2196.672 4370027 4363299 4352656 4335956 4314036 4289139 4263641 4239617 
2200.530 4217702 4196223 4174610 4152966 4133297 4119415 4115367 4122659 
2204.387 4140823 4166582 4196323 4227304 4259492 4293957 4332944 4376419 
2208.244 4421438 4462879 4495755 4516110 4523844 4522706 4517751 4513867 
2212.102 4513867 4517148 4520965 4522170 4518956 4511523 4501513 4491436 
2215.959 4482731 4476103 4470178 4463717 4455448 4444301 4430074 4412300 
2219.817 4390342 4364203 4334852 4304331 4276055 4253335 4237944 4229445 
2223.674 4224426 4218705 4208401 4192074 4171298 4150624 4134200 4125168 
2227.531 4123696 4126941 4130520 4130888 4125770 4115602 4102355 4088441 
2231.389 4075865 4065330 4057136 4051785 4050213 4053992 4064795 4082956 
2235.246 4107574 4136709 4167652 4197862 4226133 4252130 4275085 4295396 
2239.104 4312664 4326652 4338265 4349376 4362395 4380067 4403698 4432350 
2242.961 4463917 4495186 4523811 4549558 4574169 4600389 4630896 4665793 
2246.819 4703005 4738510 4767051 4784706 4789128 4780887 4761725 4735898 
2250.676 4707426 4680999 4661372 4652765 4657923 4677884 4710842 4751307 
2254.533 4792009 4825881 4846520 4851613 4841795 4819984 4790200 4755996 
2258.391 4719384 4681803 4644493 4609463 4579828 4558666 4547917 4547750 
2262.248 4555920 4568108 4579828 4587697 4589606 4585922 4577886 4566468 
2266.106 4552672 4537069 4520228 4503321 4488322 4476940 4470646 4469106 
2269.963 4471115 4474027 4476170 4476605 4476136 4475902 4477944 4482932 
2273.821 4490230 4498634 4506468 4512729 4517818 4522739 4528833 4537304 
2277.678 4548353 4561646 4576647 4592720 4609363 4626677 4643924 4660200 
2281.535 4674635 4686258 4695133 4701765 4707459 4713287 4720355 4728696 
2285.393 4737271 4745344 4752412 4758274 4763165 4767386 4770033 4770602 
2289.250 4768224 4761993 4753015 4743234 4735094 4730907 4731241 4735496 
2293.108 4741894 4748593 4755025 4761959 4771507 4785544 4805075 4829164 
2296.965 4855064 4879357 4899127 4912766 4921177 4926170 4929790 4933443 
2300.823 4937464 4940849 4942659 4942759 4941251 4939107 4937129 4935453 
2304.680 4933309 4929455 4922987 4913805 4903082 4892559 4884015 4878586 
2308.537 4876073 4875436 4875906 4876844 4878787 4883177 4890985 4902713 
2312.395 4917826 4934013 4949161 4960958 4968197 4970878 4969872 4966856 
2316.252 4963304 4960689 4959818 4961025 4964577 4970107 4977179 4985558 
2320.110 4995479 5007244 5021255 5037713 5055479 5071402 5080521 5077403 
2323.967 5056887 5016394 4956668 4881937 4799078 4715665 4638197 4571323 
2327.824 4516478 4472956 4439146 4413404 4394259 4381774 4375716 4375248 
2331.682 4379297 4386594 4395597 4406309 4419631 4436568 4457959 4483669 
2335.539 4512226 4541556 4569481 4595131 4618204 4639871 4660904 4682071 
2339.397 4703005 4723102 4741827 4759012 4775192 4791104 4806817 4821659 
2343.254 4833821 4842231 4846687 4849469 4855198 4869573 4897921 4944033 
2347.112 5007981 5087427 5177919 5273662 5368486 5456655 5532793 5592331 
2350.969 5632474 5652178 5653219 5639489 5616832 5591022 5567192 5548264 
2354.826 5535310 5528330 5526484 5529706 5538095 5552090 5571522 5595720 
2358.684 5622707 5651373 5680175 5708979 5738155 5768138 5798727 5828782 
2362.541 5856958 5881845 5903878 5924836 5948081 5976970 6013521 6057836 
2366.399 6107634 6159016 6208254 6252219 6289399 6319689 6343996 6363834 
2370.256 6380713 6396483 6413532 6434414 6461486 6496531 6539954 6590580 
2374.114 6645788 6702887 6759422 6813843 6866286 6917758 6969506 7022944 
2377.971 7079015 7138529 7202363 7271463 7346673 7428604 7517192 7610855 
2381.828 7707574 7804180 7897804 7985947 8067088 8140445 8206047 8264770 
2385.686 8317387 8365114 8408927 8449298 8486599 8519982 8548570 8571009 
2389.543 8586284 8594396 8596525 8594902 8591929 8589495 8588751 8588717 
2393.401 8588312 8586183 8581283 8574050 8566312 8560195 8558099 8561580 
2397.258 8571347 8587298 8609097 8636068 8668010 8704585 8745457 8790120 
2401.115 8838371 8889774 8944733 9003996 9068478 9139094 9215508 9296506 
2404.973 9380057 9464066 9546635 9627084 9706058 9785351 9867201 9954016 
2408.830 10047596 10149371 10259413 10377288 10501578 10629807 10758922 
2412.206 10885801 11006905 11119714 11222795 11315832 11399264 11474274 
2415.581 11542253 11604016 11660307 11711466 11758034 11799773 11836682 
2418.956 11868485 11894536 11913947 11926412 11932031 11931452 11926344 
2422.331 11918409 11909792 11901993 11896886 11895932 11900564 11912448 
2425.707 11932814 11962309 12001070 12048215 12102792 12164055 12231904 
2429.082 12307467 12392487 12488742 12597367 12718301 12850258 12990790 
2432.457 13137754 13288800 13442973 13599662 13758666 13920156 14084138 
2435.832 14250886 14420779 14594818 14773829 14958469 15149432 15346074 
2439.208 15548163 15755156 15966991 16183952 16407007 16636545 16872750 
2442.583 17115322 17363548 17616816 17875444 18139788 18410412 18687260 
2445.958 18968644 19252046 19534212 19812020 20084208 20351152 20614644 
2449.333 20877360 21140998 21405460 21669176 21929044 22181538 22424372 
2452.708 22656382 22877828 23089986 23293614 23489224 23676102 23852454 
2456.084 24015818 24163514 24292548 24400486 24484926 24543964 24576326 
2459.459 24581970 24561038 24515076 24445560 24354888 24244930 24117698 
2462.834 23974920 23818222 23648984 23469078 23280120 23084676 22885650 
2466.209 22686754 22492760 22309216 22141718 21995892 21875692 21783744 
2469.585 21720658 21685022 21674680 21686940 21719332 21770052 21837852 
2472.960 21921414 22019664 22130874 22252644 22382436 22517086 22653658 
2476.335 22789612 22922466 23050468 23172146 23286762 23393750 23492266 
2479.710 23581114 23658712 23722642 23770446 23800092 23810696 23802856 
2483.086 23778146 23739474 23690064 23632542 23569498 23502864 23434104 
2486.461 23364414 23295188 23227336 23161032 23095474 23029118 22959318 
2489.836 22883590 22799776 22706688 22604824 22495100 22379122 22258644 
2493.211 22134360 22006454 21874160 21736194 21590958 21437484 21274776 
2496.587 21102700 20921654 20732272 20535502 20332366 20123736 19910766 
2499.962 19694504 19476164 19257380 19039642 18824330 18612654 18405124 
2503.337 18201772 18002174 17806052 17613262 17424800 17241900 17066590 
2506.712 16900654 16745351 16601155 16467193 16342528 16225945 16116444 
2510.088 16013779 15917907 15828963 15746703 15670437 15599267 15531576 
2513.463 15466747 15404192 15343706 15285665 15231030 15179696 15132998 
2516.838 15091658 15056393 15028437 15008544 14996539 14992183 14994309 
2520.213 15001374 15011973 15025281 15040854 15059275 15081401 15107508 
2523.589 15138041 15172730 15210577 15250385 15290711 15329736 15366087 
2526.964 15398287 15425546 15447828 15465923 15480618 15493185 15504208 
2530.339 15512827 15517429 15515952 15506543 15488310 15462008 15429632 
2533.714 15394030 15357815 15322493 15288549 15255499 15222039 15187759 
2537.090 15152829 15118314 15086100 15057663 15034028 15015643 15002061 
2540.465 14992149 14985084 14979801 14975274 14970919 14966221 14961144 
2543.840 14955794 14950753 14946740 14943997 14942522 14941288 14939127 
2547.215 14934704 14927296 14917249 14905658 14894513 14885255 14878604 
2550.591 14873803 14869482 14863585 14854224 14840887 14824190 14805608 
2553.966 14787233 14770949 14758198 14749045 14743149 14739619 14737185 
2557.341 14735025 14732180 14728307 14722960 14715762 14706816 14695505 
2560.716 14681213 14663631 14641800 14615447 14584779 14550206 14512827 
2564.092 14474114 14435338 14397352 14360910 14326287 14293619 14263212 
2567.467 14235272 14211067 14191176 14176216 14166527 14162180 14162557 
2570.842 14167042 14174778 14185048 14196311 14207883 14218668 14228459 
2574.217 14237943 14248317 14261602 14279990 14304234 14334472 14369335 
2577.593 14406394 14443045 14477609 14509195 14538419 14566789 14595812 
2580.968 14626928 14660649 14697150 14736156 14777703 14821790 14868522 
2584.343 14917900 14969307 15022263 15075912 15129807 15184225 15239884 
2587.718 15297609 15358432 15422456 15489443 15558294 15628187 15697954 
2591.094 15767079 15835080 15901718 15966613 16029248 16088868 16145261 
2594.469 16198328 16248614 16296703 16343594 16390009 16436428 16483368 
2597.844 16531244 16580604 16632173 16686503 16743699 16803898 16866618 
2601.219 16931108 16996744 17063386 17130970 17200118 17271172 17344582 
2604.594 17420074 17497754 17577172 17657984 17739916 17823106 17907762 
2607.970 17994334 18083722 18176688 18274200 18376746 18484396 18596468 
2611.345 18711300 18826752 18940538 19050512 19154938 19253188 19345192 
2614.720 19431116 19511270 19586030 19655430 19719986 19779872 19835916 
2618.095 19888878 19939490 19988058 20034760 20079906 20123424 20165592 
2621.471 20207036 20247964 20288932 20330180 20371466 20412858 20454536 
2624.846 20497154 20541582 20588866 20639488 20693418 20749788 20807138 
2628.221 20864254 20920368 20975480 21030250 21085934 21143294 21202784 
2631.596 21264440 21327286 21390596 21453776 21516442 21578804 21641174 
2634.972 21703450 21765664 21827468 21888690 21949258 22009522 22070314 
2638.347 22132688 22197298 22264640 22334644 22406892 22480478 22554636 
2641.722 22628526 22701730 22773656 22844300 22913838 22982200 23050258 
2645.097 23118258 23187244 23257956 23331232 23407564 23487264 23570094 
2648.473 23655388 23742448 23830438 23919180 24008396 24098852 24191294 
2651.848 24286522 24384994 24486748 24590842 24696398 24802298 24907588 
2655.223 25011784 25115230 25218736 25323182 25429584 25538438 25649848 
2658.598 25763538 25879192 25996528 26114848 26233694 26352466 26470670 
2661.974 26587180 26701610 26813532 26922414 27028470 27131904 27232998 
2665.349 27332318 27430498 27527954 27625224 27723044 27821310 27920164 
2668.724 28019570 28119280 28219334 28319800 28421032 28523806 28628378 
2672.099 28735062 28843720 28953998 29065260 29176908 29288582 29400002 
2675.475 29510990 29621366 29730958 29839580 29947486 30054990 30162878 
2678.850 30272142 30383566 30498112 30615958 30737178 30861386 30988724 
2682.225 31119412 31253982 31393334 31538356 31690062 31849052 32015630 
2685.600 32190338 32373254 32564708 32764324 32971754 33186008 33406016 
2688.976 33630580 33858804 34090124 34324616 34562392 34803956 35049572 
2692.351 35299640 35554276 35813628 36078180 36347936 36623088 36903784 
2695.726 37189428 37479488 37773680 38071872 38374248 38681292 38993368 
2699.101 39310244 39631636 39956132 40282796 40610476 40938652 41267084 
2702.477 41595904 41924976 42253932 42581820 42907432 43229228 43545876 
2705.852 43855864 44157492 44449308 44729272 44995524 45246348 45480724 
2709.227 45697928 45898664 46083688 46254308 46411420 46555980 46688376 
2712.602 46808780 46916812 47011768 47092744 47158556 47208016 47240116 
2715.978 47254632 47251752 47232396 47197892 47149768 47089088 47017344 
2719.353 46935048 46843840 46745384 46641888 46536284 46431996 46331896 
2722.728 46239268 46156572 46085680 46028392 45985992 45959068 45948348 
2726.103 45953652 45975272 46012992 46066704 46136120 46220988 46320876 
2729.479 46434800 46561588 46699592 46847528 47004236 47168900 47341128 
2732.854 47520300 47705604 47895396 48087864 48280488 48471124 48657916 
2736.229 48839596 49015344 49185036 49348524 49505836 49657560 49804280 
2739.604 49947224 50087348 50226144 50364164 50502004 50639628 50777000 
2742.979 50914896 51054404 51197496 51346344 51502628 51667696 51841308 
2746.355 52022644 52209848 52400908 52593288 52784628 52972536 53154308 
2749.730 53327276 53489148 53637620 53771928 53891572 53997332 54090428 
2753.105 54172216 54244212 54307624 54363276 54411268 54451608 54483348 
2756.480 54504836 54514072 54508588 54486392 54445600 54385580 54305900 
2759.856 54207048 54089644 53954036 53800844 53630832 53444480 53242992 
2763.231 53027568 52799408 52560076 52310900 52053684 51791056 51526352 
2766.606 51263708 51007412 50761544 50529136 50312224 50111628 49927224 
2769.981 49758688 49606188 49469856 49350640 49249092 49165372 49098808 
2773.357 49047764 49009408 48980920 48959336 48941832 48926108 48910568 
2776.732 48893768 48874300 48850792 48821500 48783688 48734532 48670964 
2780.107 48590244 48490760 48372368 48236572 48086716 47927072 47762080 
2783.482 47595824 47431956 47272364 47118852 46971892 46831920 46697968 
2786.858 46568928 46442468 46315608 46185536 46049608 45906216 45755612 
2790.233 45598404 45436612 45272164 45106676 44941096 44776068 44612308 
2793.608 44450516 44292016 44138636 43992352 43854984 43727848 43612104 
2796.983 43508664 43418352 43341392 43278128 43228568 43191820 43167080 
2800.359 43153212 43148932 43153652 43166860 43188052 43216928 43252432 
2803.734 43293396 43338204 43385360 43433660 43482696 43532212 43582320 
2807.109 43632768 43683144 43732136 43777832 43818144 43850660 43873312 
2810.484 43884456 43882880 43868032 43839956 43799492 43747636 43685744 
2813.860 43614892 43535656 43448528 43353948 43252580 43146148 43037072 
2817.235 42929268 42826940 42735016 42658028 42600312 42564968 42554992 
2820.610 42571912 42616688 42689428 42788908 42912988 43058732 43222640 
2823.985 43400448 43588548 43783256 43980616 44177040 44368600 44551284 
2827.361 44720896 44873896 45006916 45117996 45206268 45271980 45316184 
2830.736 45341048 45349288 45342960 45324716 45296804 45260508 45217188 
2834.111 45167956 45113844 45056312 44996700 44936872 44878048 44821140 
2837.486 44766404 44713660 44662944 44614692 44570780 44533512 44506644 
2840.862 44494164 44499336 44525072 44573644 44646896 44747120 44877352 
2844.237 45041320 45243296 45487348 45775788 46107896 46479012 46879420 
2847.612 47293724 47702392 48082536 48409852 48661844 48821060 48876380 
2850.987 48825024 48673408 48434932 48127504 47772068 47389864 46999028 
2854.363 46615736 46252280 45917080 45615624 45350464 45120972 44925040 
2857.738 44758248 44615464 44490672 44378804 44274880 44174840 44075960 
2861.113 43975816 43872944 43766656 43656436 43542688 43426008 43307856 
2864.488 43189808 43074428 42964896 42865192 42779952 42714580 42674368 
2867.864 42664168 42687272 42745104 42837252 42960324 43109372 43278276 
2871.239 43459108 43644416 43826944 43999756 44157748 44297336 44417156 
2874.614 44517288 44600224 44669516 44728868 44782604 44834508 44887528 
2877.989 44944148 45006072 45074476 45150052 45233148 45323688 45421528 
2881.365 45526716 45638884 45757748 45882684 46012440 46144336 46274652 
2884.740 46399180 46512200 46609132 46686160 46741472 46775676 46792028 
2888.115 46796156 46795088 46796788 46809848 46842104 46901456 46995744 
2891.490 47133184 47324164 47580812 47917596 48352368 48904672 49593892 
2894.865 50438700 51451444 52635400 53978908 55452684 57006920 58568144 
2898.241 60051476 61360796 62400896 63096828 63397096 63285148 62779888 
2901.616 61933076 60819796 59521112 58123292 56701976 55315556 54010504 
2904.991 52816620 51750928 50822212 50032356 49378484 48855316 48457120 
2908.366 48177592 48011844 47956080 48007328 48162008 48414856 48757108 
2911.742 49175428 49653736 50171432 50706092 51235860 51738948 52196024 
2915.117 52592128 52915380 53158616 53319560 53400112 53405656 53344400 
2918.492 53226812 53063244 52864184 52639704 52397656 52144836 51886712 
2921.867 51627392 51370880 51121488 50884200 50665280 50471896 50310848 
2925.243 50188392 50108580 50072844 50079764 50125128 50203192 50306644 
2928.618 50427980 50560108 50695704 50828212 50951368 51058948 51145196 
2931.993 51204580 51231384 51220984 51168828 51071436 50927156 50736144 
2935.368 50500704 50225960 49918636 49587396 49241408 48890916 48546000 
2938.744 48216396 47911900 47641044 47411152 47227592 47093336 47007708 
2942.119 46967424 46965656 46993084 47037020 47083700 47117448 47122068 
2945.494 47083032 46988136 46829080 46603488 46314944 45973024 45590896 
2948.869 45185276 44773424 44370028 43987952 43635952 43318216 43035864 
2952.245 42787372 42569284 42377568 42208832 42060164 41930120 41817812 
2955.620 41722528 41643312 41578728 41526192 41483024 41446936 41416136 
2958.995 41390400 41370284 41356912 41351552 41354756 41366240 41385224 
2962.370 41410992 41442780 41481056 41526552 41580404 41643532 41716508 
2965.746 41799316 41891440 41992488 42102544 42221648 42350864 42491408 
2969.121 42644468 42811616 42994380 43194200 43412460 43650132 43907292 
2972.496 44182836 44474340 44777460 45085796 45391328 45684344 45953060 
2975.871 46184872 46367436 46488896 46540824 46518656 46423404 46261604 
2979.247 46044712 45788232 45508908 45223660 44947896 44693092 44467440 
2982.622 44274516 44114208 43982488 43872392 43775232 43680728 43579208 
2985.997 43462884 43326376 43167740 42988416 42792932 42586240 42373624 
2989.372 42158224 41940120 41716508 41482076 41231228 40959412 40665092 
2992.748 40350352 40021232 39686524 39355224 39035924 38734284 38452544 
2996.123 38189620 37941680 37703744 37470460 37238016 37003572 36766300 
2999.498 36526808 36286444 36047324 35811472 35580456 35355352 35136724 
3002.873 34924988 34720180 34522888 34333544 34152992 33981760 33820264 
3006.249 33668140 33525336 33390700 33263336 33142660 33028058 32919030 
3009.624 32815352 32716270 32621176 32529354 32440192 32353438 32269380 
3012.999 32188658 32111376 32038174 31968836 31902894 31840068 31779814 
3016.374 31722498 31668246 31617854 31571742 31529948 31492364 31458520 
3019.750 31427812 31399958 31374774 31352304 31332430 31314910 31299132 
3023.125 31284962 31272464 31262316 31256442 31256724 31265732 31285602 
3026.500 31317510 31361706 31417232 31481850 31551898 31623628 31692200 
3029.875 31752794 31801492 31835042 31852014 31852476 31838000 31811152 
3033.250 31774576 31731050 31682574 31630862 31577696 31524532 31472948 
3036.626 31424570 31380296 31340908 31306256 31276166 31250528 31229378 
3040.001 31213002 31202036 31196696 31196374 31200398 31207732 31217168 
3043.376 31228490 31241912 31258076 31277556 31300414 31325844 31352482 
3046.751 31378980 31404588 31429630 31455528 31484276 31517908 31557598 
3050.127 31603172 31653528 31706598 31759676 31810902 31858646 31902324 
3053.502 31942122 31979214 32015168 32052156 32092184 32137100 32187446 
3056.877 32243222 32303038 32364898 32427088 32488428 32548602 32608460 
3060.252 32669398 32732810 32799986 32871280 32946554 33025234 33107114 
3063.628 33191550 33278934 33369378 33462952 33559520 33658648 33759664 
3067.003 33861492 33963056 34063316 34160948 34254696 34343620 34427328 
3070.378 34505920 34579936 34650592 34719104 34786512 34853464 34920140 
3073.753 34986968 35053812 35121380 35189932 35260180 35332060 35405172 
3077.129 35478444 35551076 35622248 35691452 35758904 35825324 35891248 
3080.504 35957620 36024752 36092976 36162296 36233028 36304920 36378236 
3083.879 36452892 36528392 36604916 36682464 36761140 36841852 36925680 
3087.254 37013100 37104572 37200080 37298852 37400284 37503944 37609252 
3090.630 37716288 37825336 37935748 38047204 38158868 38269836 38379928 
3094.005 38489580 38599476 38711064 38825400 38943280 39064456 39188276 
3097.380 39313512 39438996 39564120 39688376 39811864 39935316 40059092 
3100.755 40183744 40310068 40438060 40567508 40698128 40828932 40958788 
3104.131 41086612 41211808 41333840 41453312 41571072 41688536 41807376 
3107.506 41928880 42054284 42183928 42317700 42454796 42593768 42732968 
3110.881 42870384 43004876 43135868 43263708 43389644 43515292 43642036 
3114.256 43770428 43900400 44031036 44160792 44289044 44415392 44540232 
3117.632 44665220 44791092 44918904 45049036 45181192 45314604 45448972 
3121.007 45583756 45719352 45855908 45993616 46132396 46272148 46412456 
3124.382 46553216 46694128 46835276 46976468 47117560 47257996 47397292 
3127.757 47535008 47670808 47804764 47937320 48068728 48199252 48329448 
3131.133 48459712 48590428 48722520 48856948 48994384 49135540 49280524 
3134.508 49428568 49578740 49729780 49880280 50029120 50175560 50319404 
3137.883 50460840 50600612 50739608 50878872 51019524 51161932 51306144 
3141.258 51451744 51598140 51744808 51891900 52039564 52188700 52340052 
3144.634 52493592 52648680 52804348 52958836 53111096 53260976 53408916 
3148.009 53555972 53703496 53852188 54002396 54153744 54306088 54458556 
3151.384 54611264 54764108 54916964 55069684 55221860 55373216 55523652 
3154.759 55673576 55823776 55974892 56127536 56281324 56435736 56589708 
3158.135 56742604 56894420 57045688 57197116 57349508 57503088 57657024 
3161.510 57810564 57962636 58113064 58261988 58410204 58558436 58706680 
3164.885 58854708 59001720 59146884 59290088 59431364 59571316 59710284 
3168.260 59848044 59983716 60116732 60246436 60373320 60498496 60624200 
3171.635 60751844 60882276 61015260 61149200 61282532 61413384 61540804 
3175.011 61664408 61783992 61899600 62011112 62118480 62221484 62321564 
3178.386 62420560 62520264 62622592 62728316 62836632 62945856 63053996 
3181.761 63159212 63260772 63359104 63455344 63550912 63647000 63744152 
3185.136 63842512 63941620 64040988 64140104 64238740 64335876 64431252 
3188.512 64524500 64615696 64705328 64794636 64884460 64975112 65066552 
3191.887 65157592 65247380 65334984 65420532 65504364 65587588 65670720 
3195.262 65754092 65837184 65919548 66000232 66079504 66157640 66235280 
3198.637 66312468 66388792 66463268 66534860 66603036 66668084 66731520 
3202.013 66794620 66858464 66923128 66987992 67051984 67114776 67176888 
3205.388 67239744 67305040 67373264 67443768 67513976 67580744 67641448 
3208.763 67695152 67742984 67787480 67831872 67878088 67926704 67975952 
3212.138 68023968 68068688 68109384 68147256 68184120 68222184 68263176 
3215.514 68307648 68355536 68406112 68458872 68513064 68568192 68623568 
3218.889 68678248 68731072 68781616 68830224 68878288 68927448 68979208 
3222.264 69034328 69092480 69151728 69210984 69269000 69326288 69383664 
3225.639 69442792 69504040 69567768 69632688 69697024 69759384 69819384 
3229.015 69876792 69932832 69987912 70042768 70097624 70152880 70209160 
3232.390 70268240 70331624 70400552 70475296 70554376 70635256 70714880 
3235.765 70791032 70862648 70929984 70994632 71057800 71121032 71184728 
3239.140 71248904 71313568 71379136 71446344 71516064 71588896 71664856 
3242.516 71742896 71821704 71900248 71977984 72055272 72133000 72212184 
3245.891 72293496 72377376 72463776 72552928 72644848 72739560 72836608 
3249.266 72935360 73033784 73130080 73222272 73309264 73391376 73469736 
3252.641 73545912 73621664 73697944 73774664 73851216 73926944 74000920 
3256.017 74072864 74142656 74210264 74275128 74337168 74396264 74452944 
3259.392 74508328 74563752 74620600 74679736 74741168 74803792 74866424 
3262.767 74927640 74986232 75041648 75093712 75142520 75188016 75230416 
3266.142 75269576 75305912 75339768 75371560 75401832 75430608 75457776 
3269.518 75483512 75507808 75530864 75553104 75574912 75595768 75615528 
3272.893 75633272 75648376 75661040 75672552 75684264 75698032 75714880 
3276.268 75734912 75757440 75780792 75803952 75826640 75849168 75872648 
3279.643 75898368 75927016 75958560 75993088 76030312 76070336 76113728 
3283.019 76160832 76211656 76265560 76320856 76376320 76430480 76483664 
3286.394 76537208 76593328 76654240 76721800 76796216 76876736 76961896 
3289.769 77050120 77140536 77232872 77327488 77425368 77527112 77633920 
3293.144 77746728 77866384 77993608 78129360 78273488 78425400 78584120 
3296.520 78748688 78918096 79092136 79271336 79456104 79646720 79843272 
3299.895 80044504 80249688 80457920 80669488 80884704 81105144 81331688 
3303.270 81565024 81804968 82050856 82302032 82557376 82816312 83078488 
3306.645 83344200 83613728 83887928 84168128 84456480 84754568 85063792 
3310.021 85383832 85712992 86048264 86386208 86723856 87061120 87398848 
3313.396 87739680 88086336 88440336 88800840 89165848 89532168 89897288 
3316.771 90259952 90620960 90981360 91343288 91707488 92073952 92441472 
3320.146 92808808 93175016 93539440 93901496 94260384 94615048 94964320 
3323.521 95307376 95645096 95979032 96311568 96644936 96979104 97311904 
3326.897 97639864 97958600 98264488 98555704 98832552 99096176 99347848 
3330.272 99587656 99814880 100027616 100224392 100404600 100568096 100715184 
3333.647 100845560 100957080 101047640 101114592 101157040 101176032 
3336.540 101174864 101157712 101127720 101086112 101031504 100960296 
3339.433 100868336 100752240 100610696 100443808 100253152 100040304 
3342.326 99805912 99549768 99271216 98969120 98642896 98292616 97918496 
3345.702 97520648 97099544 96655288 96188952 95701968 95196888 94676568 
3349.077 94143704 93601088 93050816 92494680 91934552 91371872 90807920 
3352.452 90243312 89677928 89110880 88540992 87968208 87393056 86818216 
3355.827 86247408 85684296 85132352 84593224 84067192 83553608 83051616 
3359.203 82560656 82081024 81613560 81158576 80716208 80285680 79865704 
3362.578 79455272 79054056 78662272 78281064 77912208 77556472 77214784 
3365.953 76887016 76572736 76271880 75983816 75708088 75443696 75189592 
3369.328 74943672 74704216 74468984 74236128 74003752 73770080 73532800 
3372.704 73290208 73040568 72782808 72516512 72242432 71960664 71671696 
3376.079 71374800 71068184 70749624 70417272 70069672 69706864 69329480 
3379.454 68938320 68533584 68114968 67680832 67229728 66760616 66272908 
3382.829 65767816 65247224 64713560 64169444 63617384 63059592 62498148 
3386.205 61934564 61370300 60806192 60243012 59680556 59118488 58556616 
3389.580 57995088 57434252 56875004 56318556 55765564 55217268 54674808 
3392.955 54139072 53611152 53091584 52580344 52076172 51577728 51083436 
3396.330 50592012 50103636 49619036 49139992 48668364 48204508 47747692 
3399.706 47295976 46846868 46397928 45948420 45498792 45050544 44605624 
3403.081 44165376 43730120 43299144 42871004 42444604 42019536 41596016 
3406.456 41174760 40756828 40342896 39933028 39527176 39125364 38727688 
3409.831 38334832 37947536 37565900 37190080 36819564 36453580 36091572 
3413.207 35733576 35380332 35033088 34693332 34362020 34039988 33726936 
3416.582 33422190 33124636 32832932 32545816 32262352 31981748 31703852 
3419.957 31428740 31156788 30888352 30624454 30365018 30109996 29858888 
3423.332 29610866 29365506 29122658 28882388 28646216 28414734 28189140 
3426.708 27969704 27756208 27547654 27342410 27138816 26935282 26730680 
3430.083 26524660 26317540 26110380 25904512 25701276 25501610 25306288 
3433.458 25114950 24927064 24742032 24559214 24378474 24200332 24025132 
3436.833 23853086 23683660 23515666 23347876 23178612 23007178 22833754 
3440.208 22659384 22485956 22315600 22149946 21990072 21836388 21687984 
3443.584 21543218 21400100 21255950 21108162 20954860 20795322 20630314 
3446.959 20462628 20296430 20136022 19985074 19845070 19715306 19593448 
3450.334 19475678 19358564 19239820 19118614 18994986 18870146 18744788 
3453.709 18618982 18492314 18364438 18234804 18104518 17974752 17846960 
3457.085 17722450 17601978 17485368 17372410 17262484 17155376 17051084 
3460.460 16949436 16849810 16751448 16652865 16552549 16450090 16345073 
3463.835 16238121 16130406 16022991 15916739 15812434 15710734 15612250 
3467.210 15518047 15428739 15344736 15265520 15189338 15113888 15036910 
3470.586 14956309 14871711 14783599 14693346 14602768 14513306 14425713 
3473.961 14340567 14257596 14176866 14098581 14023287 13951258 13882763 
3477.336 13817700 13755862 13696630 13639664 13584586 13530848 13477765 
3480.711 13424552 13370731 13316371 13262118 13210231 13162413 13120918 
3484.087 13086666 13059041 13036370 13015816 12994990 12971672 12945420 
3487.462 12916439 12886266 12856299 12827938 12802275 12780129 12762317 
3490.837 12749726 12743004 12742390 12747678 12757949 12771666 12787124 
3494.212 12803299 12819646 12836470 12855241 12877460 12905141 12939992 
3497.588 12983724 13036882 13100326 13173581 13255560 13344558 13438598 
3500.963 13535291 13633441 13732640 13833366 13937401 14046422 14162214 
3504.338 14286393 14419101 14560622 14710140 14866362 15027751 15192734 
3507.713 15359805 15527868 15697507 15870305 16048329 16234683 16431713 
3511.089 16639713 16857768 17083168 17312064 17541256 17768220 17991502 
3514.464 18210548 18425036 18634650 18838380 19035244 19224580 19405892 
3517.839 19579236 19744744 19902060 20049646 20185134 20305006 20406330 
3521.214 20486074 20542416 20574412 20581986 20565138 20524284 20460266 
3524.590 20373964 20266434 20138520 19990522 19822424 19633694 19424394 
3527.965 19194866 18947704 18685530 18412694 18132914 17849240 17563612 
3531.340 17276860 16988920 16699141 16406870 16111184 15811026 15505925 
3534.715 15195376 14879872 14561410 14242942 13928437 13621338 13324126 
3538.091 13037906 12762249 12496280 12238277 11987582 11744008 11508024 
3541.466 11280430 11061420 10850774 10647939 10451885 10260770 10073707 
3544.841 9889199 9705855 9522892 9340412 9158822 8980487 8807432 8641814 
3548.698 8484470 8334782 8190279 8047949 7904621 7758674 7609979 7460862 
3552.556 7314188 7173359 7040656 6917017 6801828 6693331 6589201 6487753 
3556.413 6387068 6286239 6184323 6081289 5977306 5873986 5772805 5675374 
3560.271 5582933 5496014 5414044 5336652 5262896 5193545 5128798 5069391 
3564.128 5015087 4963605 4911090 4851948 4780786 4694798 4594662 4485510 
3567.986 4374946 4270902 4178759 4100415 4034126 3976173 3922574 3869349 
3571.843 3814760 3758173 3700323 3642749 3586551 3532967 3481894 3433767 
3575.700 3387681 3343470 3299999 3256798 3213369 3169075 3123886 3077833 
3579.558 3030651 2982306 2932699 2882131 2831668 2782978 2738663 2701086 
3583.415 2672114 2651644 2638043 2627876 2616409 2599275 2573143 2536780 
3587.273 2491723 2441172 2389795 2341588 2299482 2264741 2237963 2218014 
3591.130 2202861 2189840 2175587 2155874 2127670 2088981 2040175 1983519 
3594.988 1923809 1865637 1813130 1768746 1732384 1702878 1677166 1652785 
3598.845 1628040 1601567 1573200 1543871 1513945 1484620 1456826 1431693 
3602.702 1410451 1394462 1385288 1383659 1390407 1404667 1424679 1446886 
3606.560 1467232 1481129 1484520 1475610 1455064 1425676 1391670 1356935 
3610.417 1324131 1293489 1263780 1232876 1199782 1164299 1128917 1096761 
3614.275 1070786 1052883 1042719 1038169 1035678 1031792 1023257 1007780 
3618.132 984433 953583 916493 875454 833158 791796 754056 721496 695377 
3622.472 676427 665742 664315 673905 695974 731386 779348 835715 894147 
3626.811 944285 975102 976662 944617 883423 806535 731718 673341 637768 
3631.151 622968 622305 626818 628676 623267 609198 588760 565601 543904 
3635.490 526421 514412 507313 503233 500546 497361 492551 485519 475800 
3639.830 463527 448966 433609 418817 407010 400642 401704 411288 429828 
3644.170 456097 488471 524231 560691 595064 624628 647059 660565 663518 
3648.509 654525 632326 597287 551501 501043 453543 417324 398951 401405 
3652.849 423725 460542 503564 543672 571275 579934 568222 540122 503100 
3657.188 466081 435135 412515 396464 383629 370696 355375 337137 317374 
3661.528 297645 280106 265915 255803 250499 250665 257759 273508 299568 
3665.868 336905 385254 442564 504526 565236 617195 653198 668662 664082 
3670.207 647358 630833 628908 652003 703840 780510 872068 964608 1040062 
3674.547 1081448 1077927 1029135 946344 847234 747982 657014 575455 501043 
3678.886 431254 365987 308057 261539 229779 213071 209490 214330 223314 
3683.226 233492 244498 258025 276459 301127 331068 363234 391887 410990 
3687.566 415865 404755 379948 346256 310278 276425 247250 223248 203755 
3691.905 188673 178297 172994 173657 180319 192352 207766 224375 239890 
3696.245 253118 263362 271485 278116 284747 291379 297181 300265 298408 
3700.584 289820 274270 253018 229580 207932 191722 183203 183501 191556 
3704.924 206507 227325 253350 284515 321220 363068 409199 457689 504957 
3709.264 547155 579967 599510 603226 591182 565701 531397 494575 461404 
3713.603 435997 420409 413676 412781 414107 414439 411952 406844 401040 
3717.943 397326 398354 405053 416396 429729 441470 449098 450856 447540 
3722.282 440873 432913 425185 417855 410161 401140 390162 377958 366716 
3726.622 359354 358956 368010 387144 415301 450226 488372 525691 559331 
3730.962 587101 609198 626851 642911 658906 674038 683662 681372 660565 
3735.301 617659 555516 483495 415202 363068 334849 332196 351495 387741 
3739.641 435068 489964 550207 613943 677788 735236 775465 786286 757109 
3743.980 687412 591513 496399 429032 404390 422399 471985 536970 599742 
3748.320 646097 666837 659569 628842 583683 534615 488803 450458 421138 
3752.660 401637 392484 394043 405252 423659 445483 467142 484789 496366 
3756.999 500910 498854 490362 476231 456595 432780 407076 383762 367711 
3761.339 362372 369004 386116 408967 432117 449961 459779 461106 456628 
3765.678 450458 446213 445583 447739 450226 450326 445815 435997 422067 
3770.018 406579 392219 381540 376101 376167 381507 391091 403826 418618 
3774.358 434339 450392 466778 483130 499318 514279 525558 530302 525923 
3778.697 511227 487410 458983 432216 412748 404489 407574 419679 435831 
3783.037 450790 460741 463096 457324 445483 430193 414041 399714 389201 
3787.376 383828 384326 390428 400841 413146 424488 432581 436362 436462 
3791.716 435367 435898 440243 448568 459149 468768 474274 473776 468469 
3796.056 462067 460907 470393 493911 530534 575787 621741 658972 678717 
3800.395 674868 647192 602430 553890 516502 500280 508573 536373 574227 
3804.735 608966 628178 622438 588361 531065 462565 399249 353783 333091 
3809.074 336142 357796 390958 429662 470459 512156 554587 598149 641219 
3813.414 680609 711738 729494 730822 716484 692655 669027 655322 657811 
3817.754 677191 708486 742472 769324 778618 763383 722757 663386 598879 
3822.093 543804 508573 496598 503896 522738 544037 560492 567758 565469 
3826.433 557108 548316 544037 547188 557373 572137 587764 601434 611355 
3830.772 618489 624959 633421 646097 664149 687014 713497 741244 767764 
3835.112 789605 803016 804908 792692 765905 727835 683894 642115 608767 
3839.452 588693 582489 588030 600671 615469 627348 632691 629505 617693 
3843.791 598979 576517 554421 536970 527681 528643 540454 562151 592310 
3848.131 629472 673076 723222 780477 844313 911977 976430 1027109 1049362 
3852.470 1029235 960158 848795 715323 586437 483860 417258 386083 383298 
3856.810 400443 429928 465716 504659 544733 584778 624196 662091 697633 
3861.150 729196 755549 774900 785688 786850 778120 761258 740779 722857 
3865.489 714095 719073 738190 766702 796244 816195 816759 791696 742505 
3869.829 679016 617129 571308 550639 555051 577147 605814 630169 642878 
3874.168 641418 629638 615171 606876 610492 628410 658109 693717 727868 
3878.508 753325 765009 762055 747982 729760 715986 713763 725976 750836 
3882.848 782004 811215 829241 828976 807630 768727 721794 679149 652468 
3887.187 648121 665509 699226 740713 780576 810352 825125 823066 807531 
3891.527 784294 760561 742173 732681 732482 740646 755416 775166 798103 
3895.866 823465 849824 875985 900455 921706 938375 950262 957966 962649 
3900.206 965803 968327 969390 967729 960390 945879 923366 894213 861842 
3904.546 830669 805273 788410 780709 780942 786385 794219 802352 809522 
3908.885 815929 823033 831930 843715 858721 876085 894412 911877 926919 
3913.225 938109 945049 947606 945713 939437 929044 914733 897500 878509 
3917.564 859717 843018 830370 823066 822270 828112 840230 857393 877812 
3921.904 898862 918319 933892 944219 948469 947506 942492 936150 930571 
3926.244 927682 928380 932962 940898 951159 962350 973176 981710 986426 
3930.583 985529 978256 964475 945315 923100 900887 881364 867021 858721 
3934.923 856597 859219 865760 874757 885913 899227 914733 932398 951757 
3939.262 971449 989979 1005522 1016614 1022327 1023157 1020168 1015452 
3943.120 1010935 1009009 1010204 1015120 1022393 1030563 1037804 1042553 
3946.977 1043350 1040660 1034815 1027441 1020068 1014024 1009607 1006917 
3950.835 1005488 1004725 1004592 1005256 1007016 1010503 1015552 1021995 
3954.692 1029036 1036143 1042719 1048798 1054809 1061419 1069092 1078027 
3958.550 1087294 1095732 1102176 1105365 1105066 1101777 1096629 1091646 
3962.407 1088524 1088590 1092609 1100183 1110746 1122772 1135495 1148053 
3966.264 1159946 1171375 1182505 1193370 1204201 1214933 1225300 1235103 
3970.122 1244473 1253079 1261221 1268432 1274281 1277836 1278501 1275909 
3973.979 1270791 1264378 1258729 1256037 1257998 1264909 1276574 1291561 
3977.837 1307979 1323732 1337757 1348758 1356935 1362120 1364779 1365045 
3981.694 1363416 1359660 1354509 1348493 1341945 1335131 1328518 1322535 
3985.552 1317583 1314160 1313163 1314459 1318447 1324230 1330312 1335530 
3989.409 1338621 1338887 1336960 1333503 1330113 1327886 1327587 1328817 
3993.266 1331243 1333968 1336361 1337990 1338555 1338123 1336361 1333503 
3997.124 1329382 1324729 1320408 1317018 1315656 1316487 1319012 1322003 
##END=
