
##TITLE=Z295_1_e
##JCAMP-DX=5.01  $$ Nicolet v. 1
##DATATYPE=INFRARED SPECTRUM
##ORIGIN=UniL
##OWNER=Nicolet
##LONGDATE=2011/09/09
##TIME=13:44:34
##SPECTROMETER/DATA SYSTEM=Nicolet iS5
##DATA PROCESSING=
Ratio against background
%Transmittance->Absorbance
Truncated
ElementMultiply or ElementDivide
##COMMENTS=
Number of sample scans: 32
Collection length: 51.22 sec
Sample gain: 2.0
Background collected on: Ven Sep 09 13:27:55 2011 (GMT+02:00);
Number of background scans: 32
Background gain: 2.0
Sample spacing:  1.000
Number of scan points: 12415
Resolution points: 8192
Number of FFT points: 65536
Apodization: N-B fort;
Phase correction: Mertz;
Laser frequency: 15798.0 cm-1
Number of rejected sample scans: 0
Number of rejected background scans: 0
Bench serial number: ASB1000141;
##RESOLUTION=4.000
##XUNITS=1/CM
##YUNITS=ABSORBANCE
##FIRSTX=649.893372
##LASTX=4000.122314
##FIRSTY=0.106501
##MAXX=4000.122314
##MINX=649.893372
##MAXY=0.312488
##MINY=-0.001957
##XFACTOR=1.000000
##YFACTOR=1.000000E-009
##NPOINTS=6950
##DELTAX=0.482117
##ZPD=6100
##XYDATA=(X++(Y..Y))
649.893 106501216 105356720 104265968 103265464 102360744 101539904 
652.786 100791648 100120280 99544688 99091768 98778144 98598320 98523528 
656.161 98512720 98528432 98551176 98585600 98651800 98772072 98957632 
659.536 99204128 99495768 99817080 100160416 100530544 100937432 101392496 
662.911 101897800 102450384 103045416 103684096 104375000 105127176 
665.803 105937160 106770384 107543240 108140032 108455856 108469632 
668.696 108265344 107990960 107774704 107675896 107693216 107785320 
671.589 107898432 107985344 108020192 108000776 107938616 107844912 
674.481 107717760 107543328 107303072 106986984 106601744 106169504 
677.374 105716256 105260456 104804360 104334968 103834312 103291400 
680.267 102707904 102096976 101472928 100842680 100200688 99534064 98829640 
683.642 98085920 97314928 96538200 95775496 95035528 94311976 93590032 
687.016 92856856 92112376 91372776 90666472 90023936 89463880 88989224 
690.391 88587800 88241968 87937864 87671552 87449496 87282448 87178800 
693.766 87138904 87158424 87232136 87361248 87557272 87838720 88223896 
697.141 88724184 89338504 90054224 90853296 91719888 92646944 93634344 
700.516 94684848 95795992 96954296 98136920 99316440 100468280 101579720 
703.890 102648128 103677032 104667640 105613904 106500624 107311976 
706.783 108035784 108672368 109231720 109732032 110188888 110612544 
709.676 111008368 111381736 111744840 112120472 112537120 113019896 
712.569 113580240 114207888 114870720 115520816 116110448 116602024 
715.461 116975384 117229200 117377232 117443312 117455728 117452640 
718.354 117481656 117596056 117856632 118317720 119010656 119936848 
721.247 121055608 122289216 123522464 124629112 125490576 126009224 
724.139 126136392 125879568 125307040 124530808 123688864 122918384 
727.032 122317152 121936416 121774728 121792976 121932552 122138504 
729.925 122376920 122634008 122910904 123211912 123534136 123866608 
732.817 124195360 124511744 124819384 125132728 125470760 125845208 
735.710 126254160 126681056 127103584 127503712 127876368 128231152 
738.603 128586424 128959624 129356832 129772080 130190480 130597680 
741.496 130987016 131361920 131731304 132103440 132478848 132850184 
744.388 133206472 133541304 133857120 134165960 134482144 134814208 
747.281 135159808 135506000 135836704 136140576 136418224 136682000 
750.174 136948560 137229568 137525152 137823552 138108608 138367584 
753.066 138599120 138811808 139020400 139234336 139453456 139666976 
755.959 139860832 140026800 140168304 140299632 140440144 140604656 
758.852 140796416 141007856 141225360 141438640 141647584 141861152 
761.744 142091168 142346256 142625216 142918848 143216960 143517536 
764.637 143832896 144191168 144630112 145182832 145873520 146704864 
767.530 147656768 148682304 149711840 150659904 151428144 151932208 
770.423 152122688 152008608 151668496 151242800 150906688 150804400 
773.315 151009408 151483648 152085536 152591728 152761296 152418240 
776.208 151480000 149981104 148035216 145793792 143383696 140870816 
779.101 138258912 135505280 132554784 129365352 125930000 122278456 
781.993 118471088 114582416 110692096 106880136 103214656 99753424 96540888 
785.368 93601864 90945656 88566792 86450976 84581312 82943184 81528400 
788.743 80334160 79360712 78607384 78071616 77747920 77631456 77720576 
792.118 78019272 78536472 79284304 80271776 81499976 82955184 84607072 
795.493 86404608 88272696 90122888 91852296 93355192 94548808 95383936 
798.867 95867920 96066952 96107832 96152608 96356080 96844416 97668120 
802.242 98782720 100035416 101186696 101958800 102064032 101293832 99561856 
805.617 96929808 93595336 89848024 86012792 82349336 79020232 76065048 
808.992 73415312 70936104 68480088 65946348 63296424 60563704 57825096 
812.367 55178252 52707184 50462480 48464680 46707564 45171852 43834128 
815.742 42673672 41673144 40814956 40081516 39454856 38918128 38459132 
819.116 38071292 37751632 37498852 37310656 37182608 37110024 37089528 
822.491 37122368 37213432 37370672 37601484 37909788 38294480 38750080 
825.866 39267880 39835180 40435912 41050048 41650132 42205692 42687968 
829.241 43076112 43367420 43581884 43765480 43980836 44303284 44809972 
832.616 45561200 46594376 47907496 49452884 51125068 52763192 54177992 
835.990 55154964 55505464 55110236 53937152 52061228 49641104 46900976 
839.365 44070348 41346668 38882868 36761536 35007336 33601760 32502178 
842.740 31656414 31012176 30526192 30160534 29883592 29672592 29511594 
846.115 29392876 29315238 29280998 29291594 29345406 29436452 29556634 
849.490 29698492 29857006 30031024 30221664 30430616 30658340 30904432 
852.865 31169176 31455170 31768374 32117762 32511928 32957598 33457798 
856.239 34012968 34623528 35293748 36032280 36854008 37777260 38820724 
859.614 40004084 41347432 42871264 44599344 46552368 48740424 51150788 
862.989 53736940 56412720 59046204 61484956 63571200 65162980 66171564 
866.364 66569896 66404888 65785668 64877264 63878856 62981552 62368188 
869.739 62186304 62533164 63466312 64997932 67101904 69710944 72718632 
873.113 75983504 79309952 82469424 85216968 87297112 88503824 88705240 
876.488 87864760 86049912 83417064 80188824 76598112 72875752 69219840 
879.863 65767280 62605256 59768224 57249244 55016276 53026740 51243836 
883.238 49640808 48207064 46944612 45862980 44971304 44273452 43765592 
886.613 43438124 43279888 43281716 43440724 43760208 44246596 44906412 
889.987 45742100 46752688 47934176 49284088 50804224 52503012 54395268 
893.362 56500184 58836268 61419644 64257764 67343000 70641648 74082728 
896.737 77552504 80875920 83836968 86202312 87737968 88272496 87721832 
900.112 86108488 83556768 80273408 76521128 72557736 68627920 64935172 
903.487 61616560 58759328 56400872 54538868 53146556 52183616 51607504 
906.862 51377632 51462376 51840936 52501444 53440616 54659928 56163772 
910.236 57955900 60036900 62399404 65023372 67869136 70868536 73932280 
913.611 76947216 79789448 82352376 84554976 86363496 87797024 88926680 
916.986 89864696 90735024 91665256 92751208 94035640 95497080 97041904 
920.361 98520576 99733536 100483480 100614328 100044056 98801608 97032712 
923.736 94999072 93019504 91446056 90615200 90769776 92045616 94430440 
927.110 97768576 101755928 105973696 109973584 113284064 115504904 116366984 
930.485 115728416 113594096 110082528 105403472 99814880 93592208 87031728 
933.860 80407360 73965400 67926240 62450436 57650136 53590568 50290648 
937.235 47739928 45908496 44758028 44242816 44305040 44872536 45839784 
940.610 47065712 48388852 49621380 50585648 51142924 51201148 50737636 
943.985 49794840 48472456 46900868 45217924 43556496 42016072 40662468 
947.359 39529644 38621820 37924540 37412020 37056072 36827496 36698364 
950.734 36644032 36639704 36662344 36693316 36718192 36729876 36728796 
954.109 36721620 36718880 36730884 36766908 36833124 36932568 37066536 
957.484 37235200 37438024 37672992 37936760 38224280 38529624 38848048 
960.859 39177288 39518284 39874404 40250044 40648384 41070224 41513792 
964.233 41975920 42454032 42946896 43455524 43981684 44527424 45093660 
967.608 45680884 46289620 46921540 47580408 48271120 48998540 49766008 
970.983 50574852 51424848 52316392 53251684 54235688 55276080 56380948 
974.358 57556916 58808076 60136288 61541916 63026524 64593120 66246816 
977.733 67993776 69841488 71798016 73875368 76090672 78468232 81040728 
981.108 83844440 86915832 90288056 93984088 98014568 102372152 107029032 
984.482 111924880 116954432 121972264 126773416 131107896 134721968 
987.375 137362784 138833520 139027568 137936512 135659616 132380696 
990.268 128363016 123900584 119284736 114799416 110670808 107064856 
993.160 104091432 101796720 100182416 99218704 98861224 99061672 99775304 
996.535 100967448 102608816 104673376 107138816 109979904 113168424 
999.428 116672936 120446112 124420168 128501880 132556360 136418768 
1002.321 139911008 142846416 145072544 146489120 147061696 146831232 
1005.213 145909168 144473840 142733120 140917776 139259584 137949904 
1008.106 137145760 136955280 137433392 138597664 140437024 142927408 
1010.999 146039344 149745840 154025920 158858432 164222960 170101152 
1013.891 176471600 183312000 190591504 198247584 206171328 214181744 
1016.784 221995440 229263024 235580064 240539936 243835552 245302000 
1019.677 244976304 243090944 240069648 236468704 232858032 229815616 
1022.570 227826768 227224528 228212112 230836240 235018112 240569424 
1025.462 247237392 254741520 262765408 271001888 279148832 286892160 
1028.355 293946912 300058592 305025728 308735872 311165120 312376992 
1031.249 312488416 311653568 310036320 307781152 305020608 301859808 
1034.142 298365376 294565952 290443072 285944000 280992256 275518784 
1037.035 269489536 262917312 255867904 248446144 240785920 233021536 
1039.928 225282160 217690656 210347088 203334032 196707088 190482768 
1042.821 184638528 179113408 173827392 168694448 163649904 158669552 
1045.714 153776624 149040560 144557760 140447040 136823728 133782400 
1048.607 131400392 129722864 128765616 128517344 128943472 129992560 
1051.500 131598368 133693952 136213280 139091600 142270912 145686112 
1054.393 149254832 152877184 156419216 159719088 162611840 164927808 
1057.286 166522224 167297824 167206768 166266944 164558864 162233616 
1060.179 159494960 156576032 153740032 151231296 149259424 147998736 
1063.072 147562144 148010560 149355152 151562576 154556640 158215952 
1065.965 162389584 166884672 171478064 175951728 180088688 183705280 
1068.858 186673008 188907168 190369600 191054384 190975632 190159328 
1071.751 188637632 186451536 183648832 180285008 176431904 172175648 
1074.645 167625888 162926432 158240096 153751264 149657072 146131584 
1077.538 143330048 141372096 140326448 140216112 141007984 142616384 
1080.431 144888512 147607616 150518560 153315040 155694832 157410624 
1083.324 158290464 158290080 157494704 156114976 154436768 152778160 
1086.217 151466000 150767552 150884976 151941744 153967312 156903552 
1089.110 160601712 164851776 169377344 173864384 178017232 181555392 
1092.003 184256960 185980704 186653568 186274496 184897632 182625136 
1094.896 179588768 175931312 171806480 167354528 162697568 157945168 
1097.789 153185648 148492464 143929264 139540576 135352992 131368744 
1100.682 127566832 123906752 120339216 116824192 113340712 109899584 
1103.575 106541608 103337928 100377504 97748984 95541496 93828856 92664448 
1106.950 92086488 92114016 92750136 93983728 95790656 98134544 100963184 
1110.326 104213440 107806392 111640240 115599032 119540128 123295968 
1113.219 126697736 129573344 131772104 133191216 133774520 133523136 
1116.112 132485376 130751624 128438504 125670688 122581984 119293496 
1119.005 115904536 112495392 109117752 105800928 102561600 99410536 96360960 
1122.380 93434856 90659536 88067704 85693056 83563240 81701656 80127856 
1125.755 78856984 77905480 77290552 77028712 77135080 77618584 78478944 
1129.131 79703568 81265920 83126072 85224592 87486176 89820720 92118936 
1132.506 94271096 96177544 97760856 98988544 99877088 100495504 100945664 
1135.881 101353576 101846688 102524472 103453584 104651752 106086672 
1138.774 107675608 109294832 110802752 112040656 112862312 113153856 
1141.667 112831888 111857056 110227328 107971840 105143216 101811544 
1144.560 98066272 94005320 89735040 85368272 81006704 76743192 72657224 
1147.936 68805528 65229588 61955200 58993144 56344356 54001160 51950748 
1151.311 50175224 48655064 47370612 46302816 45435916 44758580 44262704 
1154.686 43943256 43797480 43823060 44018604 44383684 44920080 45632004 
1158.061 46526144 47611276 48894584 50381988 52075648 53973956 56070832 
1161.437 58354108 60804552 63390428 66064924 68769304 71427128 73953216 
1164.812 76262760 78269280 79897000 81085656 81788848 81982968 81667344 
1168.187 80865784 79621840 77995432 76057392 73876736 71521232 69054376 
1171.562 66530032 63998752 61506448 59091420 56788332 54625056 52621000 
1174.938 50789588 49137916 47668220 46380084 45271320 44339096 43580380 
1178.313 42991344 42568224 42307688 42207444 42267440 42490020 42878720 
1181.688 43437980 44170880 45078440 46159776 47412036 48830732 50408112 
1185.063 52129368 53971408 55895448 57847580 59763892 61568448 63185768 
1188.438 64550064 65605892 66318728 66675692 66687248 66385044 65818168 
1191.814 65051696 64153852 63194164 62239568 61345300 60558144 59915400 
1195.189 59442228 59154824 59059040 59150496 59412632 59816708 60323864 
1198.564 60881548 61427812 61897004 62215364 62312344 62127084 61610756 
1201.939 60739880 59519556 57987024 56204688 54253596 52225728 50204424 
1205.315 48262896 46458140 44825584 43385068 42142924 41095536 40232960 
1208.690 39541040 39003772 38603244 38322128 38146424 38065144 38072448 
1212.065 38166576 38348080 38617944 38975392 39417444 39938988 40533064 
1215.440 41190792 41901804 42652800 43426736 44204884 44966532 45691744 
1218.816 46364672 46973000 47508652 47967108 48345964 48645796 48870556 
1222.191 49030032 49140288 49223260 49307136 49421808 49595564 49854896 
1225.566 50219228 50700992 51304576 52025372 52849216 53751188 54699764 
1228.941 55657152 56582912 57442496 58207768 58860852 59396108 59819560 
1232.317 60149720 60415588 60660244 60937324 61305004 61828228 62567980 
1235.692 63575500 64893620 66551736 68567888 70951632 73705096 76822472 
1239.067 80286640 84068760 88123104 92385152 96781968 101228064 105631064 
1242.442 109901456 113943936 117662696 120971072 123787904 126051040 
1245.335 127722904 128789272 129258512 129154968 128517296 127392544 
1248.229 125834496 123905256 121664176 119163384 116441704 113517104 
1251.122 110390752 107054008 103501728 99744664 95819208 91785256 87728320 
1254.497 83747912 79938944 76391880 73177208 70337272 67888664 65819016 
1257.872 64091676 62646172 61406972 60291544 59211172 58087608 56859372 
1261.247 55484308 53947244 52256448 50441340 48543336 46612452 44700696 
1264.623 42852976 41107736 39492952 38024492 36708676 35542408 34516432 
1267.998 33616904 32828714 32138706 31535402 31010396 30557438 30170656 
1271.373 29844122 29571850 29347958 29168650 29032172 28939370 28892516 
1274.748 28893826 28944046 29040818 29178466 29346930 29532552 29717048 
1278.124 29878266 29994134 30042492 30007128 29880610 29664966 29371498 
1281.499 29016126 28617088 28189742 27744870 27289872 26830554 26373518 
1284.874 25929556 25512186 25137452 24822292 24580990 24425406 24366068 
1288.249 24411630 24571278 24854816 25271272 25827602 26526668 27365348 
1291.625 28332850 29408440 30562416 31749908 32914810 33994692 34921684 
1295.000 35637964 36105076 36309464 36266524 36017372 35623220 35149688 
1298.375 34662108 34218380 33860848 33619016 33508442 33530310 33672324 
1301.750 33907736 34200700 34505492 34774340 34965996 35046340 34994764 
1305.125 34804460 34481276 34041100 33507366 32910094 32281160 31651710 
1308.501 31051358 30502624 30020656 29613102 29281388 29023706 28838408 
1311.876 28725326 28686354 28724158 28839790 29032172 29298046 29633536 
1315.251 30035994 30504972 31042390 31651176 32333524 33090416 33921996 
1318.626 34828080 35809172 36865692 37995996 39192880 40439984 41711112 
1322.002 42968736 44164788 45249624 46172156 46889276 47376008 47630692 
1325.377 47681788 47583552 47416696 47272296 47232616 47365588 47706088 
1328.752 48253940 48976768 49821376 50728996 51643104 52525152 53355260 
1332.127 54131712 54867408 55585408 56315160 57086004 57926064 58856792 
1335.503 59889348 61021740 62237316 63508764 64797596 66059640 67250768 
1338.878 68324400 69237944 69956736 70455608 70725056 70771464 70615888 
1342.253 70287720 69819816 69245256 68590384 67875336 67114160 66314676 
1345.628 65481016 64615540 63719704 62794856 61841564 60860432 59851848 
1349.004 58818128 57765140 56705904 55662012 54663120 53749804 52968496 
1352.379 52366964 51995340 51896492 52101800 52626876 53463324 54574820 
1355.754 55892208 57325348 58765396 60095916 61216412 62041688 62514296 
1359.129 62610352 62339236 61744840 60896684 59895088 58858236 57905048 
1362.505 57151876 56684912 56544872 56724256 57168580 57791900 58483064 
1365.880 59128776 59620800 59861200 59784272 59361804 58611332 57589564 
1369.255 56383288 55091464 53799792 52578928 51477332 50521584 49728888 
1372.630 49111796 48683120 48456528 48441192 48635456 49022572 49573912 
1376.006 50256312 51038192 51897952 52824440 53814268 54870452 56000036 
1379.381 57215300 58533184 59974852 61559820 63293352 65152704 67072360 
1382.756 68949856 70641384 71983968 72827552 73037624 72526696 71273544 
1386.131 69345728 66908480 64198024 61494652 59037360 56979904 55383344 
1389.507 54224656 53432672 52915120 52584948 52364612 52185228 51989816 
1392.882 51724952 51344068 50816628 50133272 49310888 48384444 47394852 
1396.257 46373596 45335236 44283724 43222344 42164540 41143104 40204172 
1399.632 39394480 38749028 38279140 37975164 37814276 37771620 37826780 
1403.008 37966340 38184192 38477848 38844528 39279524 39775044 40322824 
1406.383 40915644 41549924 42224788 42941960 43702636 44505688 45346972 
1409.758 46218480 47110580 48014064 48920916 49825688 50724600 51613664 
1413.133 52489144 53347992 54189180 55015860 55835832 56660224 57501500 
1416.509 58371168 59278580 60230524 61230492 62277240 63359372 64454660 
1419.884 65528212 66539304 67446008 68213848 68821600 69261776 69546776 
1423.259 69708688 69798264 69871032 69974520 70140112 70376472 70678656 
1426.634 71036576 71444000 71899664 72404696 72959312 73559720 74199888 
1430.010 74876816 75595536 76369640 77216136 78148952 79172168 80279384 
1433.385 81456616 82691232 83979944 85329832 86758368 88285248 89923952 
1436.760 91668040 93493944 95369736 97259712 99126776 100922344 102586488 
1440.135 104035344 105167232 105885272 106098128 105739512 104775640 
1443.028 103201168 101042840 98355232 95227704 91772728 88110120 84369920 
1446.404 80670400 77118416 73815664 70844976 68261816 66083596 64288996 
1449.779 62831156 61658564 60738508 60065436 59657100 59535896 59708384 
1453.154 60145880 60786792 61532520 62261748 62850608 63175924 63157760 
1456.529 62796088 62195636 61526756 60950172 60570216 60418556 60484744 
1459.905 60745444 61177084 61758668 62464440 63262768 64107688 64938480 
1463.280 65692344 66309460 66753080 67022832 67156080 67212200 67245392 
1466.655 67292816 67365096 67451464 67525624 67552256 67489200 67282064 
1470.030 66867896 66179708 65162444 63803480 62160536 60372488 58614936 
1473.406 57046592 55760592 54774292 54058196 53569428 53278352 53173216 
1476.781 53254908 53521752 53960072 54539620 55222008 55966188 56741092 
1480.156 57532140 58340468 59181856 60079784 61061932 62154876 63386820 
1483.531 64792292 66412068 68292056 70472872 72975416 75781584 78815624 
1486.906 81948880 84987376 87687448 89795176 91053928 91261064 90321832 
1490.282 88276960 85309472 81686176 77701512 73593560 69511808 65538844 
1493.657 61698128 57992248 54440868 51090368 48020692 45331192 43106260 
1497.032 41389456 40173820 39418204 39064816 39058148 39355296 39919300 
1500.407 40715156 41707024 42851692 44101152 45407588 46711436 47943568 
1503.783 49019976 49818700 50185340 49942724 48935008 47115236 44612052 
1507.158 41710272 38716644 35843712 33172988 30695676 28373418 26178472 
1510.533 24103722 22167762 20399768 18820904 17440010 16247993 15224133 
1513.908 14343273 13581611 12918692 12335044 11813562 11342020 10914885 
1517.284 10535999 10214328 9956830 9761494 9613839 9487568 9355072 9197435 
1521.141 9017562 8841347 8705498 8635426 8632789 8677474 8739338 8792554 
1524.999 8821870 8828667 8826942 8835023 8865188 8917574 8983125 9051290 
1528.856 9117370 9185049 9263874 9362486 9481879 9614008 9742144 9848254 
1532.713 9923099 9973035 10019961 10088900 10197231 10345390 10521164 
1536.089 10705872 10882777 11041877 11178153 11291040 11380386 11443111 
1539.464 11473764 11469238 11436512 11392733 11358107 11345965 11355489 
1542.839 11372834 11376610 11349298 11283627 11187706 11080386 10983796 
1546.214 10912098 10865654 10833414 10799411 10750907 10684274 10606989 
1549.590 10533283 10477850 10446963 10436407 10434642 10429450 10414211 
1552.965 10390523 10367617 10357233 10368600 10402978 10454090 10510097 
1556.340 10558133 10583426 10570491 10504836 10379257 10204965 10014807 
1559.715 9852525 9749023 9710496 9723779 9765730 9811820 9839204 9832663 
1563.573 9787316 9710496 9618920 9532951 9468333 9428781 9406772 9386761 
1567.430 9353379 9295355 9210194 9104173 8990127 8883281 8795327 8733422 
1571.288 8700563 8696776 8720203 8765675 8824541 8882604 8923492 8933098 
1575.145 8905500 8849530 8787753 8748094 8748230 8790153 8862211 8949063 
1579.002 9037928 9122986 9205591 9291225 9386457 9495290 9618378 9753802 
1582.860 9898894 10051327 10208832 10367617 10519908 10654798 10760757 
1586.235 10828692 10856141 10849042 10821084 10789696 10772645 10785824 
1589.610 10840651 10945499 11106763 11328416 11609733 11941703 12305183 
1592.986 12668866 12993760 13242783 13384775 13403331 13299254 13089945 
1596.361 12804050 12473636 12131787 11806038 11517891 11285089 11119952 
1599.736 11030117 11018290 11082391 11217422 11418074 11681002 12004749 
1603.111 12387441 12824252 13303114 13803608 14300877 14765191 15167411 
1606.487 15483708 15693968 15785804 15754607 15603285 15341372 14984020 
1609.862 14552125 14070379 13565339 13065325 12593410 12165384 11787653 
1613.237 11457263 11165029 10898440 10645426 10397141 10150354 9910115 
1616.612 9689218 9504874 9372101 9299180 9285334 9322301 9396174 9491091 
1620.470 9592091 9686813 9769492 9842153 9914149 9998261 10105247 10240178 
1624.327 10400807 10581593 10776890 10983898 11202258 11431647 11669939 
1627.702 11911870 12150187 12379123 12597128 12807497 13016806 13231135 
1631.078 13452918 13679738 13903427 14113504 14299097 14450204 14559560 
1634.453 14624323 14646770 14634673 14601158 14561273 14526566 14502446 
1637.828 14487647 14476204 14459007 14427048 14374404 14300603 14211717 
1641.203 14117715 14029961 13955500 13895113 13842396 13786471 13714891 
1644.579 13616757 13487301 13329285 13154523 12981334 12830327 12719461 
1647.954 12658939 12651024 12690597 12767503 12866333 12965288 13038008 
1651.329 13050574 12970887 12785520 12522026 12250138 12042389 11935130 
1654.704 11916263 11951103 12003182 12047840 12073152 12076729 12062761 
1658.080 12037484 12005635 11967792 11920894 11859087 11776521 11668578 
1661.455 11533882 11374841 11198178 11014517 10835962 10674357 10537798 
1664.830 10428737 10343693 10273832 10206932 10128546 10025997 9891233 
1668.205 9722932 9527870 9318983 9111583 8918318 8746539 8597876 8470076 
1672.063 8357041 8249607 8136393 8004004 7840582 7641676 7415425 7183094 
1675.920 6970247 6796947 6668802 6577528 6506856 6440434 6368238 6289197 
1679.778 6210875 6144196 6097519 6068992 6046547 6006836 5924702 5781703 
1683.635 5579308 5344971 5123769 4953853 4847894 4795560 4775158 4766180 
1687.492 4753249 4727657 4686592 4630159 4561512 4485242 4408819 4340943 
1691.350 4290277 4262671 4257852 4268560 4279736 4272709 4229579 4141158 
1695.207 4015064 3876971 3760513 3688527 3664468 3672053 3685854 3676364 
1699.065 3620162 3508583 3355458 3194509 3061716 2977369 2939338 2932232 
1702.922 2936802 2936635 2920891 2883765 2825832 2753067 2675114 2601208 
1706.780 2538513 2489290 2452268 2423746 2399223 2376068 2353348 2332860 
1710.637 2317636 2310674 2313173 2324299 2340489 2357445 2371737 2381499 
1714.494 2386163 2386097 2379633 2363375 2332593 2284260 2221311 2153176 
1718.352 2094408 2056987 2046833 2062114 2095507 2137493 2179749 2217314 
1722.209 2248321 2274434 2297917 2321134 2344919 2368972 2392727 2416149 
1726.067 2440140 2465364 2491623 2516584 2536780 2548979 2552012 2548379 
1729.924 2542346 2538347 2536880 2532681 2513218 2461565 2362842 2211753 
1733.781 2022598 1826006 1658971 1545766 1489008 1475809 1486182 1501909 
1737.639 1508858 1499149 1471587 1430629 1384623 1342111 1310105 1291727 
1741.496 1287008 1294220 1311003 1334932 1363716 1395958 1430962 1469060 
1745.354 1510387 1554711 1600303 1644104 1681756 1709198 1723436 1723669 
1749.211 1710529 1685880 1651953 1611012 1566450 1522623 1484487 1456560 
1753.069 1441267 1437710 1441533 1445523 1442065 1425144 1393199 1350454 
1756.926 1305420 1267634 1242579 1230351 1225001 1218622 1202606 1172106 
1760.783 1126459 1070553 1012164 959428 918883 893416 882991 885415 897699 
1765.123 915696 934357 948602 953948 948569 934489 917323 904008 898762 
1769.463 901750 907561 907660 893383 860448 811780 758437 713597 687213 
1773.802 681604 692290 711141 730557 746222 758370 769058 780709 793622 
1778.142 805472 812311 810485 799099 781174 762520 749276 744828 749010 
1782.481 758171 767332 771946 769888 761590 749475 736498 725147 717281 
1786.821 714659 718708 731088 752628 781838 814502 843948 862307 862606 
1791.161 841790 802651 752894 702612 660598 631463 615005 607838 605880 
1795.500 605913 605913 604553 601036 594334 583285 567758 548416 527018 
1799.840 505886 486846 470758 456993 444720 433377 423327 416329 414240 
1804.179 418253 428037 441702 456130 469298 479780 487642 494243 500313 
1808.519 506351 511327 514246 514080 510995 506616 502834 501342 502569 
1812.859 505787 509768 513450 516734 520582 526255 534980 546657 560359 
1817.198 574626 587864 599443 609829 620181 631828 645632 662058 680907 
1821.538 701848 723919 745758 765440 781074 791265 796443 799398 805008 
1825.877 818054 841325 873794 910516 943389 964342 968128 954778 930804 
1830.217 906399 892321 895242 915662 949532 990444 1032689 1072879 1110481 
1834.557 1146591 1183037 1220648 1259227 1298175 1337059 1377410 1421587 
1838.414 1472684 1533230 1604394 1685282 1773737 1866802 1961618 2054790 
1842.271 2143553 2225241 2298649 2364608 2426711 2490390 2560744 2639910 
1846.129 2726226 2814759 2898041 2968494 3021108 3053407 3066187 3061816 
1849.986 3042463 3008730 2960021 2895139 2814126 2719757 2617442 2513551 
1853.844 2413251 2318869 2229337 2141588 2052293 1960453 1867434 1777097 
1857.701 1693065 1617630 1550488 1489474 1431627 1374585 1317949 1262284 
1861.559 1208355 1156325 1105664 1055773 1007282 962914 926487 901617 889698 
1865.898 888502 892785 895242 889598 873827 850355 825390 805970 797439 
1870.238 800394 812078 827581 842719 854704 862539 866391 866590 863635 
1874.577 857958 850056 841159 832162 823365 813041 798169 774934 740746 
1878.917 695875 644570 593504 549776 518459 500446 492352 487907 481372 
1883.257 469398 452448 433476 416694 405683 400874 400510 401073 399448 
1887.596 392650 379119 358459 331102 298341 262733 228419 199678 180352 
1891.936 172099 173557 180750 187910 190628 187048 179623 173226 173590 
1896.275 183833 203590 228718 253483 273607 287599 297048 305437 316048 
1900.615 330704 348610 367578 385785 402267 417391 432083 445649 456230 
1904.955 461072 457324 444919 425914 405086 387476 376632 372752 373448 
1909.294 375438 376068 374609 372088 370596 370298 370165 367612 359984 
1913.634 346786 329709 311140 293501 276890 258356 233823 200009 157779 
1917.973 112405 72702 45495 33864 34527 39762 40591 30716 9145 -19614 -47577 
1923.277 -68085 -77327 -76499 -70205 -63215 -58444 -55396 -52182 -46683 
1927.617 -38864 -30647 -25313 -25148 -29985 -37903 -45855 -52182 -58046 
1931.957 -66362 -81104 -103597 -132714 -163452 -190876 -210880 -222835 
1935.814 -229293 -234293 -240685 -248434 -254858 -256812 -252871 -245122 
1939.671 -238135 -237605 -246944 -265256 -287607 -306282 -315387 -311745 
1943.529 -296713 -273799 -247308 -219821 -191605 -162790 -134072 -107871 
1947.386 -87266 -73882 -66196 -59537 -47511 -24783 8581 48080 84632 108527 
1952.208 113996 101170 75220 43606 13419 -13154 -37373 -63579 -95514 -134437 
1957.030 -178820 -226147 -274097 -323334 -376074 -433276 -492854 -548187 
1960.887 -589782 -608312 -599213 -564402 -513472 -458101 -409376 -375610 
1964.745 -359984 -363063 -384019 -422088 -475577 -539947 -608312 -668693 
1968.602 -709780 -724037 -710805 -677724 -637461 -603283 -583959 -580848 
1972.459 -589551 -602422 -614499 -623929 -632399 -641067 -647354 -643450 
1976.317 -619363 -566752 -485241 -384085 -280356 -190677 -128640 -96840 
1980.174 -90545 -99125 -111514 -120259 -122678 -118636 -110156 -98496 -83821 
1984.514 -67521 -51752 -41051 -39030 -47975 -65633 -85245 -98032 -96376 
1988.854 -77228 -43602 -2915 35355 63489 78998 82942 79595 73132 65378 56497 
1994.157 45661 32870 19947 10834 8581 15308 29755 48179 66107 80688 90465 
1999.461 95569 96961 93746 84533 66240 36515 -4406 -54468 -109858 -165837 
2004.283 -218728 -266349 -306481 -337471 -355780 -358958 -344722 -314659 
2008.141 -273435 -228730 -186802 -150932 -120624 -92599 -62784 -30084 2584 
2012.480 30119 47649 53481 51659 49604 54310 70415 96165 125927 152211 
2017.302 170441 181579 192253 211314 244266 292871 351860 413411 468635 
2021.642 512488 542311 558999 563146 554553 532857 499451 458220 418319 
2025.981 390030 382303 398553 435500 482865 529406 566696 592376 610625 
2030.321 628808 652435 683695 718111 749608 772676 785622 790867 794651 
2034.660 802153 816527 837706 863535 891856 923233 958597 999975 1047070 
2039.000 1096828 1144465 1185030 1216096 1238824 1257001 1275012 1295549 
2042.857 1318148 1339519 1356603 1367937 1375382 1383493 1397986 1423482 
2046.715 1461613 1512150 1572136 1637951 1706504 1773238 1833926 1883174 
2050.572 1916354 1932096 1932961 1925972 1920880 1926970 1949735 1988678 
2054.430 2036646 2084087 2121544 2144951 2155074 2157838 2160369 2167828 
2058.287 2181981 2200663 2221144 2240761 2259579 2279363 2302214 2327930 
2062.145 2354047 2376135 2389628 2393026 2387996 2379200 2371971 2370638 
2066.002 2376135 2387563 2402356 2418715 2435775 2454368 2474261 2494156 
2069.859 2510352 2519250 2517484 2505553 2486391 2465764 2448703 2438107 
2073.717 2433342 2431110 2427778 2421147 2411951 2403255 2399290 2402689 
2077.574 2413217 2428577 2445671 2461432 2474794 2486658 2498188 2510319 
2081.432 2522849 2534181 2543313 2550645 2557411 2566743 2580443 2599075 
2085.289 2619909 2639577 2653178 2657578 2651878 2637376 2616642 2591642 
2089.146 2564210 2534947 2504720 2474994 2448137 2426845 2412584 2405854 
2093.004 2405221 2407753 2411784 2416516 2422613 2432076 2446071 2464131 
2096.861 2484158 2503087 2518650 2530215 2539613 2549312 2561311 2575843 
2100.719 2591642 2605809 2617075 2625476 2633743 2645577 2663913 2689650 
2104.576 2720591 2753067 2783179 2808990 2830634 2850612 2871591 2895339 
2108.434 2922158 2950446 2978736 3006361 3033687 3061482 3090047 3117912 
2112.291 3142041 3158528 3164369 3158428 3143243 3122785 3102527 3087043 
2116.148 3079769 3081370 3091949 3110236 3134699 3163201 3192974 3220779 
2120.006 3243445 3259736 3270720 3280368 3293622 3315357 3347277 3387815 
2123.863 3430995 3470538 3500532 3518971 3527389 3530228 3532633 3537510 
2127.721 3544993 3551941 3554982 3550271 3536775 3515463 3488675 3459383 
2131.578 3429959 3401873 3376595 3356059 3341901 3335256 3335857 3341066 
2135.436 3346609 3348813 3345207 3335857 3323537 3310783 3299331 3288247 
2139.293 3274058 3253426 3224785 3189769 3153289 3121383 3098156 3084440 
2143.150 3077266 3071159 3061449 3045833 3024845 3001190 2976601 2950647 
2147.008 2920457 2882397 2833736 2776143 2714422 2654611 2601408 2556178 
2150.865 2515118 2472428 2421547 2358578 2282228 2193070 2091178 1974798 
2154.723 1840647 1687909 1520861 1353079 1203670 1097094 1051920 1076499 
2158.580 1163235 1292093 1437677 1577523 1698221 1795495 1870562 1927170 
2162.438 1966178 1988512 1994104 1984984 1966078 1943079 1920281 1898649 
2166.295 1875221 1844673 1802183 1746855 1682221 1615967 1556008 1509589 
2170.152 1479334 1463641 1457757 1456759 1455430 1449811 1437644 1417232 
2174.010 1387249 1348925 1304589 1259659 1219884 1190346 1172937 1166093 
2177.867 1164664 1162637 1156093 1143402 1126526 1108521 1091746 1075768 
2181.725 1058563 1036243 1006485 969655 928446 886610 847566 812576 782070 
2186.064 755616 734241 721031 720268 734407 763515 803547 847699 889499 
2190.404 924694 953384 979020 1005887 1037439 1073045 1109584 1142571 
2194.261 1169182 1190080 1208653 1229387 1255605 1286942 1319245 1346465 
2198.119 1363250 1367239 1359594 1344737 1328052 1313662 1303824 1298972 
2201.976 1298241 1300734 1306217 1313529 1322336 1330778 1337325 1341014 
2205.833 1343175 1346332 1353811 1367538 1386916 1407592 1423482 1429000 
2209.691 1421288 1401276 1373787 1344970 1321272 1305852 1299438 1301199 
2213.548 1309673 1323665 1342876 1366508 1393033 1419360 1441633 1456826 
2217.406 1464771 1467065 1467897 1471055 1478103 1487712 1496689 1500379 
2221.263 1495558 1481561 1459785 1432923 1403304 1371959 1339419 1305918 
2225.121 1272686 1242911 1219785 1206261 1202939 1207756 1216728 1226397 
2228.978 1234272 1240851 1247796 1257200 1269097 1281326 1290398 1292924 
2232.835 1288504 1279963 1272652 1272719 1283652 1305719 1335530 1367372 
2236.693 1396689 1421654 1443495 1466035 1492832 1526148 1564787 1605358 
2240.550 1643639 1675968 1700782 1719444 1734380 1749351 1767648 1791237 
2244.408 1821315 1857750 1899481 1944643 1990642 2034849 2075131 2110123 
2248.265 2139391 2163765 2183279 2197799 2206324 2207057 2199198 2183612 
2252.123 2163266 2142954 2128103 2122842 2128236 2142954 2163066 2184112 
2255.980 2202295 2215882 2224175 2227905 2227838 2224208 2217381 2207756 
2259.837 2196700 2186243 2178118 2173356 2171824 2171458 2169893 2165430 
2263.695 2158038 2149347 2142288 2139391 2141888 2149513 2160202 2171857 
2267.552 2182880 2192970 2202661 2212885 2223709 2234233 2243225 2249187 
2271.410 2251918 2252384 2252484 2254616 2260345 2270504 2284859 2302247 
2275.267 2321367 2341155 2360077 2376868 2390161 2398591 2401889 2400690 
2279.125 2397624 2395859 2398491 2407886 2424646 2447537 2474928 2504620 
2282.982 2535347 2566410 2597575 2628142 2657345 2683782 2706754 2726426 
2286.839 2744364 2762971 2784846 2811558 2842907 2877694 2913552 2949245 
2290.697 2984041 3018873 3055443 3095286 3138637 3184863 3232095 3278465 
2294.554 3323170 3365775 3407150 3448528 3490245 3532166 3573522 3613112 
2298.412 3650668 3685787 3719539 3752558 3785680 3819072 3852901 3887268 
2302.269 3922306 3959019 3998042 4040079 4085297 4133430 4184145 4237074 
2306.126 4292284 4350180 4410961 4474463 4539748 4605144 4668807 4729399 
2309.984 4786079 4839283 4890147 4940045 4990585 5042640 5096646 5152972 
2313.841 5211183 5271012 5332090 5394317 5457795 5522893 5590820 5662987 
2317.699 5740370 5823308 5911233 6002166 6093823 6183651 6270271 6352772 
2321.556 6430547 6502652 6566561 6618839 6655478 6673243 6671561 6653425 
2325.414 6625198 6595054 6571405 6561179 6567772 6590950 6626846 6669946 
2329.271 6713891 6753465 6784999 6807246 6820743 6827542 6831144 6835284 
2333.128 6843564 6859419 6884093 6918027 6959843 7007252 7058202 7110775 
2336.986 7163927 7217388 7271025 7324466 7376768 7426784 7473367 7516113 
2340.843 7554884 7589983 7621106 7646397 7662079 7661978 7638742 7585465 
2344.701 7497369 7375083 7224834 7060088 6898502 6759557 6662611 6621362 
2348.558 6644476 6733980 6885709 7089354 7330094 7591736 7857990 8115395 
2352.416 8355656 8574861 8772775 8950518 9109519 9250470 9374708 9484182 
2356.273 9582641 9674141 9762104 9848152 9930828 10006534 10071775 10123459 
2360.130 10160428 10183188 10193229 10191702 10179287 10156494 10124171 
2363.506 10084152 10039390 9992802 9945710 9897708 9846051 9787520 9719375 
2367.363 9640872 9553578 9460443 9364652 9268038 9170564 9070710 8966820 
2371.220 8857917 8744611 8628936 8513156 8398691 8286620 8176503 8068168 
2375.078 7961514 7857451 7757190 7662247 7573124 7489447 7410269 7334575 
2378.935 7262366 7194480 7132769 7079082 7034999 7000854 6976173 6959540 
2382.793 6949978 6946644 6949136 6956947 6969338 6984961 7001965 7018768 
2386.650 7034359 7048705 7062546 7076859 7092385 7108889 7125460 7140853 
2390.508 7153720 7163354 7169485 7172011 7171034 7166520 7158335 7146983 
2394.365 7133342 7119599 7107642 7099492 7096528 7098784 7105352 7115389 
2398.222 7127986 7143211 7161906 7184913 7212874 7245992 7283492 7324466 
2402.080 7368376 7415190 7465008 7519012 7577609 7641440 7710610 7785525 
2405.937 7866594 7954326 8048827 8150134 8257104 8368052 8481057 8594564 
2409.795 8708134 8822546 8938713 9057888 9180446 9305442 9430881 9554560 
2413.652 9674141 9787926 9894420 9992938 10081948 10160360 10226845 10280651 
2417.510 10322317 10352992 10374777 10389709 10399517 10404810 10406067 
2420.885 10403216 10396666 10387435 10377458 10368329 10361712 10358659 
2424.260 10359778 10365411 10376168 10393408 10418488 10452903 10497945 
2427.635 10553787 10620197 10696364 10781748 10875846 10978767 11090549 
2431.010 11211132 11340081 11476553 11619296 11767533 11920588 12077820 
2434.386 12238959 12404045 12573287 12747200 12926338 13112005 13305266 
2437.761 13506613 13716635 13934766 14160194 14392454 14630971 14876237 
2441.136 15128915 15389567 15658585 15935127 16218172 16506290 16798110 
2444.511 17092920 17390380 17690388 17992780 18297388 18603594 18910498 
2447.887 19217688 19524752 19830886 20135432 20437136 20734496 21025662 
2451.262 21309400 21584688 21851440 22109920 22360424 22602872 22837140 
2454.637 23062732 23278616 23483802 23676558 23854696 24014978 24153600 
2458.012 24266970 24351454 24405392 24428034 24419938 24382574 24316830 
2461.388 24223664 24103336 23956502 23784516 23589508 23375218 23146110 
2464.763 22907376 22663678 22420220 22181746 21952954 21738804 21543530 
2468.138 21370898 21223244 21101482 21005490 20934274 20887478 20864844 
2471.513 20867104 20894534 20946654 21020932 21113692 21219588 21333448 
2474.889 21451096 21570064 21689518 21809806 21931310 22053652 22175226 
2478.264 22293170 22404172 22504486 22591142 22661828 22714962 22749980 
2481.639 22767336 22767858 22753962 22727146 22689824 22643570 22589432 
2485.014 22528460 22461428 22389238 22313540 22235834 22157722 22080006 
2488.390 22002724 21924794 21844750 21761344 21673494 21580614 21482880 
2491.765 21379982 21271400 21156270 21033764 20902948 20763794 20616590 
2495.140 20462002 20300458 20131788 19955342 19769780 19574384 19369098 
2498.515 19154974 18933964 18708774 18482010 18255986 18031980 17810816 
2501.891 17593214 17379274 17169472 16964146 16763534 16567936 16377209 
2505.266 16191587 16011612 15837967 15672052 15514579 15366499 15227804 
2508.641 15097764 14975583 14859573 14748599 14641492 14537392 14435475 
2512.016 14335704 14238423 14144517 14055218 13972198 13896448 13828954 
2515.392 13769712 13718448 13674712 13638331 13609919 13590295 13580244 
2518.767 13579731 13587628 13601748 13618945 13636792 13653136 13667634 
2522.142 13680661 13693552 13707744 13723886 13742284 13762804 13784796 
2525.517 13807815 13831211 13854404 13876469 13896448 13912870 13925049 
2528.893 13931687 13932507 13927376 13916530 13900211 13879035 13853651 
2532.268 13825465 13795536 13765266 13735342 13705897 13676387 13646058 
2535.643 13614261 13581269 13548418 13517517 13490753 13469459 13453704 
2539.018 13442528 13434258 13427286 13420691 13414916 13410678 13409072 
2542.394 13410576 13414607 13419563 13423835 13425612 13423972 13418845 
2545.769 13410917 13401110 13390482 13379786 13369502 13360275 13352484 
2549.144 13346505 13342406 13339911 13338066 13336118 13332907 13328020 
2552.519 13321324 13313056 13304003 13294470 13284836 13275476 13266320 
2555.895 13257951 13250504 13244594 13240324 13237660 13235780 13233697 
2559.270 13230144 13223586 13212553 13195680 13172147 13141613 13104424 
2562.645 13061910 13016226 12969282 12923300 12879542 12838176 12798692 
2566.020 12760269 12722566 12685957 12651775 12621653 12597128 12578403 
2569.396 12565135 12555961 12549412 12544740 12542114 12542148 12546002 
2572.771 12553982 12565988 12580859 12597503 12615139 12633899 12654913 
2576.146 12679100 12707281 12739285 12773748 12809066 12843706 12876948 
2579.521 12908998 12941187 12974472 13010182 13048764 13090422 13135227 
2582.896 13183178 13234381 13288833 13346368 13406304 13467341 13528728 
2586.272 13590056 13651665 13714516 13779802 13848109 13919336 13992148 
2589.647 14065006 14136438 14206137 14274340 14342074 14410333 14479699 
2593.022 14549521 14618532 14685257 14748668 14808659 14865608 14920815 
2596.397 14975412 15030221 15085483 15141095 15197161 15253714 15311030 
2599.773 15370000 15431108 15494765 15561214 15630180 15701182 15774053 
2603.148 15848208 15923647 16000336 16078586 16159190 16243212 16332103 
2606.523 16426999 16528800 16637888 16753651 16874888 17000222 17127904 
2609.898 17256588 17384896 17511930 17636656 17757968 17875342 17988152 
2613.274 18096470 18200630 18301258 18398626 18492832 18583466 18669930 
2616.649 18751534 18828102 18899872 18967502 19031852 19093478 19152584 
2620.024 19209238 19263026 19314084 19362756 19409876 19456480 19503784 
2623.399 19552512 19603362 19656470 19711804 19769190 19827974 19888046 
2626.775 19948718 20009120 20069356 20129672 20190480 20252790 20317680 
2630.150 20385704 20456898 20530362 20604986 20679378 20752742 20824344 
2633.525 20894848 20964942 21035294 21106770 21179580 21253932 21329514 
2636.900 21406122 21483332 21561358 21639956 21719438 21800120 21882140 
2640.276 21966022 22052188 22140530 22230882 22322158 22413278 22503196 
2643.651 22591318 22677398 22762166 22846778 22932562 23020316 23110848 
2647.026 23204336 23300572 23399590 23501498 23606128 23713928 23824558 
2650.401 23937526 24052098 24167752 24283508 24399118 24514758 24630888 
2653.777 24747958 24866500 24986724 25108736 25232326 25357498 25483936 
2657.152 25611782 25741176 25872088 26004726 26139094 26275016 26412216 
2660.527 26550126 26688010 26825022 26960172 27092826 27222274 27348162 
2663.902 27470664 27589738 27706338 27820640 27933732 28046218 28158804 
2667.278 28271774 28385374 28499498 28613902 28728336 28842516 28956582 
2670.653 29070504 29184596 29299146 29414008 29529254 29644922 29760798 
2674.028 29876988 29993460 30110140 30226884 30343342 30458906 30573366 
2677.403 30686752 30799812 30913576 31029150 31147852 31270184 31396288 
2680.779 31526066 31659230 31796180 31937666 32085120 32239870 32403134 
2684.154 32575566 32757248 32947626 33145844 33351488 33564172 33783840 
2687.529 34010744 34245016 34486548 34735144 34990636 35252456 35520152 
2690.904 35793336 36071304 36353376 36639164 36928532 37221736 37519620 
2694.280 37822952 38132712 38449212 38772392 39101616 39436384 39776132 
2697.655 40120616 40470140 40824852 41184852 41549816 41919392 42292932 
2701.030 42669800 43049844 43432524 43817820 44205064 44593544 44981888 
2704.405 45368816 45752484 46131440 46503724 46867056 47219060 47557152 
2707.781 47878860 48182628 48467456 48733716 48982036 49213352 49428380 
2711.156 49627436 49810076 49975956 50124832 50256348 50370116 50465756 
2714.531 50542652 50599420 50635088 50648604 50639852 50609212 50557836 
2717.906 50486892 50398212 50293216 50173924 50042728 49902616 49757128 
2721.281 49610420 49466288 49328260 49199400 49081892 48977548 48888056 
2724.657 48814940 48759144 48721480 48702428 48701944 48719668 48756216 
2728.032 48811268 48885204 48978140 49089388 49217580 49360556 49515828 
2731.407 49681000 49854340 50034476 50220788 50412684 50609324 50809180 
2734.782 51010916 51212780 51413620 51612652 51809316 52002964 52192884 
2738.158 52378480 52558472 52732624 52900784 53063808 53222844 53379168 
2741.533 53533484 53686656 53838944 53991140 54144736 54301356 54463252 
2744.908 54632760 54810828 54998112 55193864 55396292 55603220 55811908 
2748.283 56019412 56222604 56418076 56602960 56774476 56930648 57071040 
2751.659 57196212 57307160 57405660 57493140 57570684 57639504 57700200 
2755.034 57753520 57799964 57839444 57871204 57893540 57904256 57900580 
2758.409 57880780 57843608 57788532 57715492 57624676 57515796 57388456 
2761.784 57242252 57077088 56894120 56695292 56482980 56260204 56029288 
2765.160 55792276 55550728 55305924 55059752 54814136 54571816 54335488 
2768.535 54107920 53891236 53687408 53497992 53324544 53168388 53030560 
2771.910 52911152 52809924 52725104 52655036 52597140 52549196 52509744 
2775.285 52476992 52449548 52425360 52402256 52377136 52346968 52308360 
2778.661 52258392 52194564 52114684 52017228 51901200 51766644 51615004 
2782.036 51448572 51271280 51087460 50901296 50716892 50536844 50362676 
2785.411 50195048 50033956 49878572 49727776 49580148 49433876 49286132 
2788.786 49135132 48978548 48814940 48644312 48467644 48286192 48102040 
2792.162 47917116 47733120 47551756 47374384 47202768 47038464 46883184 
2795.537 46738484 46605332 46484140 46375364 46278672 46193716 46120276 
2798.912 46058380 46007616 45968052 45939472 45921608 45913988 45915680 
2802.287 45925768 45942748 45964772 45990004 46016972 46044048 46070464 
2805.663 46096032 46120460 46143824 46166116 46186460 46204296 46218412 
2809.038 46227660 46230940 46227292 46215572 46195008 46164712 46124032 
2812.413 46072636 46010636 45938404 45856280 45764668 45664284 45555456 
2815.788 45439924 45319716 45198364 45080352 44970608 44874264 44796156 
2819.164 44739956 44708596 44703744 44727068 44779040 44859716 44968768 
2822.539 45104616 45264368 45444784 45640948 45848212 46061508 46276020 
2825.914 46487308 46691696 46885440 47065344 47228552 47372424 47495048 
2829.289 47595160 47672584 47727760 47762232 47778316 47778284 47764852 
2832.665 47740184 47706124 47663968 47614716 47559444 47499192 47435544 
2836.040 47370356 47304804 47240596 47177984 47117304 47058880 47003052 
2839.415 46951220 46905260 46867760 46841588 46829484 46833616 46856020 
2842.790 46898616 46963732 47054524 47174588 47328156 47518520 47747472 
2846.166 48013508 48311188 48630824 48957332 49272656 49556308 49787408 
2849.541 49947856 50024772 50011720 49910128 49728928 49483152 49190384 
2852.916 48869964 48540256 48215392 47907236 47623812 47369432 47146332 
2856.291 46954652 46792840 46658124 46546688 46454344 46375988 46306980 
2859.667 46243324 46181112 46117772 46051304 45980244 45904040 45822512 
2863.042 45736064 45645696 45553212 45461188 45373304 45293716 45228036 
2866.417 45181416 45159172 45165936 45204688 45277276 45383496 45521456 
2869.792 45687912 45877304 46083688 46299128 46515556 46725124 46920428 
2873.167 47096584 47250500 47382292 47493944 47589356 47673212 47749616 
2876.543 47822668 47895140 47969364 48047116 48130320 48220428 48319372 
2879.918 48428488 48549188 48682524 48828920 48988600 49160436 49342588 
2883.293 49531720 49722536 49908564 50082440 50236484 50364052 50460692 
2886.668 50524744 50557612 50564612 50553296 50533272 50515296 50510084 
2890.044 50527612 50577568 50670532 50817040 51031000 51329748 51733052 
2893.419 52265676 52954384 53824884 54902300 56203444 57732972 59476460 
2896.794 61396896 63429192 65476388 67424376 69142712 70500000 71391904 
2900.169 71745912 71538376 70795832 69590984 68030160 66227904 64304368 
2903.545 62363944 60485472 58729132 57131464 55710716 54473768 53418660 
2906.920 52538572 51824060 51265424 50853204 50579020 50436540 50419120 
2910.295 50520092 50731192 51040952 51433764 51892160 52394704 52918300 
2913.670 53441216 53941016 54397788 54795344 55120728 55365464 55526136 
2917.046 55603260 55601148 55526668 55388728 55197100 54962384 54696004 
2920.421 54409164 54112684 53817232 53531312 53262660 53017720 52801876 
2923.796 52620588 52479120 52381732 52332428 52333252 52384308 52483308 
2927.171 52626348 52808092 53022172 53261308 53517668 53782052 54044200 
2930.547 54293396 54518208 54708104 54853948 54947496 54982920 54955276 
2933.922 54861432 54700140 54472676 54183248 53839248 53451412 53032692 
2937.297 52596656 52157764 51730024 51325608 50956848 50634084 50366064 
2940.672 50159416 50017336 49939528 49921240 49953876 50025032 50118136 
2944.048 50215096 50295372 50337152 50321004 50230272 50053884 49788268 
2947.423 49438480 49017160 48542148 48034716 47516748 47006044 46517844 
2950.798 46062356 45645220 45269076 44933860 44637716 44377628 44150080 
2954.173 43951652 43778968 43629432 43500932 43391696 43300276 43224980 
2957.549 43163932 43115740 43079000 43053388 43039012 43036380 43045452 
2960.924 43065940 43096748 43136012 43182744 43235740 43295076 43361308 
2964.299 43435380 43518256 43610344 43711944 43823204 43944580 44077096 
2967.674 44221684 44379392 44551176 44737568 44939260 45157588 45394716 
2971.050 45653424 45936932 46247672 46586340 46951512 47338576 47739704 
2974.425 48143684 48536996 48902556 49221592 49475280 49645448 49718896 
2977.800 49689060 49557868 49335940 49041232 48697536 48328892 47958520 
2981.175 47606472 47286332 47007300 46772688 46581688 46428824 46304916 
2984.551 46198876 46097396 45987832 45860144 45707572 45528224 45324828 
2987.926 45103180 44870184 44631768 44391720 44149640 43902384 43644196 
2991.301 43369140 43072452 42752420 42410920 42053848 41689808 41328228 
2994.676 40977868 40645224 40332936 40040600 39764912 39501372 39245608 
2998.052 38994128 38745148 38498344 38253736 38011944 37773064 37537360 
3001.427 37304880 37076136 36852240 36634476 36424460 36223268 36031628 
3004.802 35849580 35676740 35512744 35357184 35210196 35072020 34942728 
3008.177 34821796 34708836 34602720 34502368 34406848 34315256 34227304 
3011.552 34142632 34061416 33983692 33909636 33838996 33772092 33708600 
3014.928 33648408 33591380 33537612 33487216 33440336 33397358 33358284 
3018.303 33323258 33292170 33264626 33240408 33219374 33201422 33186436 
3021.678 33174596 33165656 33159506 33156178 33156034 33160112 33170342 
3025.053 33188724 33217554 33257972 33310450 33373848 33445988 33523760 
3028.429 33603440 33681672 33754900 33819832 33873740 33913968 33938656 
3031.804 33946968 33939412 33917520 33883880 33842044 33795404 33747236 
3035.179 33700436 33656964 33618124 33584396 33555436 33530488 33508730 
3038.554 33489294 33472114 33457834 33447492 33442482 33443804 33451572 
3041.930 33464990 33482778 33503432 33526052 33550498 33577344 33607632 
3045.305 33642072 33680632 33722208 33765612 33809412 33852964 33896632 
3048.680 33941308 33988172 34038340 34092024 34148688 34207444 34267100 
3052.055 34326912 34386372 34445012 34502620 34559020 34614132 34668460 
3055.431 34723156 34780336 34842048 34910264 34985928 35068540 35156520 
3058.806 35247424 35338816 35429116 35517416 35604408 35691056 35778624 
3062.181 35868144 35960428 36055572 36154048 36255756 36361336 36470944 
3065.556 36584800 36702872 36824756 36949488 37075740 37201988 37326112 
3068.932 37446332 37561056 37669308 37770612 37865496 37955024 38040656 
3072.307 38124064 38206228 38288148 38370412 38453524 38537664 38623304 
3075.682 38710848 38800472 38891964 38985216 39079720 39175440 39272304 
3079.057 39370280 39469404 39569240 39669240 39768468 39865980 39961364 
3082.433 40054880 40147112 40239212 40332424 40427660 40525420 40626012 
3085.808 40729496 40836284 40946920 41061772 41181320 41305560 41433884 
3089.183 41565788 41700716 41838244 41978368 42121164 42266348 42413188 
3092.558 42560516 42706608 42849976 42989880 43126240 43260228 43393784 
3095.934 43528700 43666916 43809388 43956236 44107316 44261492 44418328 
3099.309 44576652 44736360 44896640 45057120 45217188 45376504 45534188 
3102.684 45689792 45843428 45995460 46146656 46298204 46451208 46606552 
3106.059 46764680 46925084 47087352 47250388 47413444 47576304 47738780 
3109.435 47901468 48064396 48227688 48390964 48554076 48716588 48878788 
3112.810 49041196 49204888 49370168 49537220 49705444 49873964 50041948 
3116.185 50209144 50375736 50543096 50712236 50883824 51057644 51232652 
3119.560 51407544 51580636 51751864 51921736 52091672 52263508 52438516 
3122.936 52617260 52799220 52983280 53167524 53351028 53532808 53712452 
3126.311 53890672 54068328 54246052 54425164 54606308 54789444 54974268 
3129.686 55159592 55343820 55525912 55704916 55881312 56056464 56232592 
3133.061 56411888 56595748 56784408 56976848 57171112 57365164 57557256 
3136.437 57746560 57933104 58117764 58301548 58485564 58670568 58857284 
3139.812 59046168 59237452 59431056 59626880 59824008 60021800 60219296 
3143.187 60416352 60612884 60809092 61005572 61202412 61399492 61596436 
3146.562 61792816 61988636 62184124 62379704 62575980 62772996 62970528 
3149.938 63168368 63366040 63563912 63762688 63963464 64167104 64373992 
3153.313 64583436 64794092 65004168 65212300 65417796 65620968 65822796 
3156.688 66024072 66225820 66428208 66630728 66832960 67034116 67233752 
3160.063 67432040 67629488 67826640 68024040 68222536 68422792 68624928 
3163.438 68828744 69033440 69237832 69440496 69640384 69836976 70030696 
3166.814 70222328 70412944 70603104 70792712 70981008 71167440 71351048 
3170.189 71531856 71710232 71886728 72061760 72235344 72407008 72576416 
3173.564 72743512 72908552 73072288 73235024 73396280 73554624 73708384 
3176.939 73855800 73996832 74132752 74266512 74401696 74540928 74685056 
3180.315 74832960 74982064 75129552 75273392 75413072 75549280 75683320 
3183.690 75816376 75948888 76080368 76209992 76337488 76463000 76587760 
3187.065 76712752 76838768 76965808 77092976 77219376 77344000 77466520 
3190.440 77587008 77705712 77822424 77936280 78046984 78154120 78257968 
3193.816 78359560 78459816 78558944 78655912 78749208 78836520 78916704 
3197.191 78990264 79059504 79127480 79197456 79270944 79347984 79426744 
3200.566 79504968 79580896 79654368 79726184 79797840 79870240 79943360 
3203.941 80015976 80086928 80155072 80220712 80284808 80348824 80413464 
3207.317 80478256 80541912 80602664 80659272 80711616 80760944 80808672 
3210.692 80855728 80902072 80946544 80987464 81024512 81058216 81090880 
3214.067 81125392 81164328 81208432 81256688 81306432 81355024 81400416 
3217.442 81442304 81481872 81521528 81563104 81607888 81655464 81704456 
3220.818 81753408 81800888 81846576 81890944 81935072 81980448 82028040 
3224.193 82078392 82131424 82186552 82242488 82298152 82352224 82404416 
3227.568 82454528 82503400 82552368 82602416 82654192 82707512 82761744 
3230.943 82816392 82870960 82926224 82983536 83044152 83109144 83178280 
3234.319 83250632 83324608 83398808 83472888 83547696 83624616 83704960 
3237.694 83789024 83876032 83964504 84052640 84139576 84225128 84310616 
3241.069 84397120 84485264 84574584 84663120 84749496 84832392 84911960 
3244.444 84990288 85070152 85154720 85245792 85344272 85449136 85558912 
3247.820 85671056 85784080 85896688 86008432 86118832 86228248 86336936 
3251.195 86445152 86553120 86660992 86768520 86875112 86979832 87082016 
3254.570 87181552 87278960 87375104 87471264 87567728 87664384 87759872 
3257.945 87852792 87941880 88026480 88107120 88185168 88261776 88337584 
3261.321 88412672 88486640 88558832 88628632 88696584 88763000 88828280 
3264.696 88892280 88953800 89011144 89062512 89106400 89142616 89171704 
3268.071 89195304 89215400 89233760 89252024 89271512 89293000 89316648 
3271.446 89342368 89368872 89394880 89418736 89439256 89456112 89470152 
3274.822 89482528 89494992 89508760 89523984 89540064 89556032 89571096 
3278.197 89584984 89598264 89611536 89625504 89640616 89656216 89672064 
3281.572 89687992 89704448 89722656 89744208 89770112 89801248 89837304 
3284.947 89878096 89922808 89971432 90023816 90080192 90139888 90202328 
3288.323 90265992 90330400 90395512 90462552 90534176 90612712 90700200 
3291.698 90797624 90904392 91019600 91142200 91271736 91408560 91553600 
3295.073 91707248 91868920 92037544 92211152 92388432 92568696 92752640 
3298.448 92941392 93136624 93339128 93548768 93764872 93986552 94213296 
3301.823 94445760 94684680 94931288 95186448 95450176 95722088 96001264 
3305.199 96287544 96580456 96880192 97186600 97499872 97819544 98145176 
3308.574 98477016 98815256 99160496 99513024 99872336 100237960 100608816 
3311.949 100984504 101365464 101753160 102149416 102555440 102970872 
3314.842 103393504 103819416 104244480 104665240 105080752 105491848 
3317.735 105900624 106309824 106721152 107134912 107549984 107964832 
3320.628 108377736 108787400 109192904 109593240 109987464 110374736 
3323.521 110754392 111127112 111494120 111857184 112217512 112575208 
3326.415 112928272 113274048 113609168 113931312 114239704 114534760 
3329.308 114817584 115088504 115347192 115591720 115819864 116029944 
3332.201 116221296 116394048 116548816 116685208 116801736 116895880 
3335.094 116965008 117007344 117023744 117015984 116987264 116939680 
3337.987 116874064 116789376 116682992 116552064 116394616 116210072 
3340.880 115999128 115762416 115501184 115215448 114904776 114568872 
3343.773 114207248 113819816 113406440 112966944 112500720 112007200 
3346.666 111487048 110941384 110373752 109788168 109189112 108580064 
3349.559 107963344 107339848 106710184 106074744 105434776 104791744 
3352.452 104147440 103502952 102858320 102213560 101568248 100923432 
3355.345 100281408 99646000 99021512 98411544 97818504 97243136 96684552 
3358.720 96142024 95615000 95103296 94607968 94130080 93670104 93228072 
3362.096 92803104 92393752 91998552 91616152 91245416 90885928 90537768 
3365.471 90201304 89878096 89569872 89278560 89005448 88751168 88514304 
3368.846 88292144 88081632 87879112 87681608 87487152 87293912 87099712 
3372.221 86902192 86697560 86482640 86254440 86011144 85752912 85480160 
3375.597 85193624 84893464 84578208 84245400 83892712 83517776 83119656 
3378.972 82698408 82254464 81788288 81299240 80786160 80247416 79681832 
3382.347 79089072 78469976 77826392 77161272 76477976 75780280 75072168 
3385.722 74357888 73641296 72925448 72212576 71503840 70799072 70098168 
3389.098 69400304 68705688 68014896 67328760 66648460 65975012 65309412 
3392.473 64652608 64005740 63369492 62744476 62130144 61524504 60925276 
3395.848 60329536 59735188 59142216 58552292 57968812 57395224 56834064 
3399.223 56285436 55747220 55215536 54685820 54154572 53620260 53083012 
3402.599 52544408 52006548 51471288 50939372 50411496 49887640 49368016 
3405.974 48853056 48343556 47839796 47341644 46848936 46360840 45877008 
3409.349 45396884 44920888 44449268 43982632 43521372 43066012 42617308 
3412.724 42175860 41742660 41318460 40904140 40499964 40105572 39720872 
3416.100 39345612 38979376 38622220 38273852 37933252 37598772 37268632 
3419.475 36940976 36614688 36289936 35967880 35650732 35340292 35037292 
3422.850 34741284 34450496 34162888 33876572 33590624 33305656 33022876 
3426.225 32743886 32470040 32201718 31938524 31679582 31423610 31170032 
3429.601 30918272 30668260 30420134 30174208 29930694 29690048 29452550 
3432.976 29218228 28987256 28759170 28533644 28310002 28088140 27868084 
3436.351 27650400 27435756 27224708 27016902 26811628 26607790 26404080 
3439.726 26199624 25994454 25789204 25585632 25385108 25188644 24996762 
3443.102 24808998 24624260 24440688 24256844 24071046 23882490 23690694 
3446.477 23496218 23300676 23106620 22916598 22733222 22557952 22390880 
3449.852 22230882 22075682 21922598 21769288 21614566 21457780 21299412 
3453.227 21140826 20983094 20827126 20673576 20522442 20373236 20225400 
3456.603 20078378 19931302 19783790 19635634 19487426 19340134 19194382 
3459.978 19051482 18911570 18774576 18639666 18505972 18373184 18241508 
3463.353 18112256 17986460 17865708 17750374 17640178 17533528 17429146 
3466.728 17324996 17219766 17112636 17003668 16892662 16779754 16665397 
3470.104 16550347 16435396 16322264 16212532 16107503 16007796 15912751 
3473.479 15821679 15732447 15644159 15555959 15467879 15380608 15295172 
3476.854 15211813 15130700 15051763 14974211 14897496 14821516 14746372 
3480.229 14672130 14599444 14528895 14461097 14396838 14336903 14281736 
3483.604 14231130 14184432 14140546 14098376 14056792 14015725 13975449 
3486.980 13937024 13900929 13867745 13837471 13809696 13784043 13761060 
3490.355 13741566 13726895 13718380 13716020 13718995 13725698 13733871 
3493.730 13742249 13750594 13760341 13773680 13793142 13820847 13857516 
3497.105 13902947 13956013 14015382 14080133 14149754 14224419 14304062 
3500.481 14389063 14479664 14576109 14679636 14791004 14912036 15044078 
3503.856 15188205 15344633 15513307 15693728 15884878 16085772 16295603 
3507.231 16513241 16737122 16966146 17199256 17435766 17675860 17920296 
3510.606 18169916 18425242 18686360 18952722 19223576 19498274 19775986 
3513.982 20056482 20338756 20621526 20903018 21181214 21454404 21721562 
3517.357 21982472 22236984 22484458 22722364 22946952 23152190 23332420 
3520.732 23482892 23600634 23685130 23737690 23760332 23754732 23721836 
3524.107 23661232 23572226 23454110 23306690 23130452 22926692 22697192 
3527.483 22444050 22169368 21875448 21564806 21239386 20901592 20553220 
3530.858 20196380 19833244 19466080 19096386 18725450 18352964 17977482 
3534.233 17596974 17210252 16817468 16421080 16025433 15636224 15258347 
3537.608 14894513 14545135 14208876 13883139 13565646 13255730 12953750 
3540.984 12660986 12378066 12104939 11840189 11581624 11327089 11075151 
3544.359 10825397 10578333 10334804 10096055 9862727 9635655 9415880 9204677 
3548.216 9002947 8811320 8628936 8453690 8282128 8111040 7937622 7760833 
3552.074 7581352 7401674 7224362 7052241 6886685 6728966 6578840 6436600 
3555.931 6301736 6174308 6053401 5937634 5825357 5714351 5603205 5491551 
3559.789 5379758 5269335 5162461 5060407 4964309 4874364 4789932 4709502 
3563.646 4630896 4550931 4465390 4370461 4262269 4139619 4004028 3860858 
3567.503 3718302 3584948 3467299 3368614 3288247 3222248 3165938 3114308 
3571.361 3063184 3009531 2951647 2888635 2820429 2747499 2671514 2594075 
3575.218 2517484 2444038 2375102 2311274 2252384 2197432 2145584 2096639 
3579.076 2050195 2006320 1965046 1925606 1887500 1849931 1812930 1777230 
3582.933 1744161 1714820 1689040 1665324 1639880 1607620 1563823 1504835 
3586.791 1430363 1343673 1251185 1160910 1079455 1011500 958099 917920 
3590.648 887606 863303 841060 817456 790369 758404 721894 681737 639958 
3594.988 598315 558070 520085 484325 451321 421039 393578 369734 349207 
3599.327 331732 315782 300132 283620 265982 248311 232464 220463 213236 
3603.667 210982 211479 211612 207336 195137 171668 135539 86687 27071 -39692 
3608.489 -108566 -173985 -231114 -277243 -311878 -336710 -355051 -370677 
3612.346 -386469 -403683 -421525 -437811 -450654 -459028 -463629 -467468 
3616.203 -474551 -488518 -512281 -546169 -588194 -633987 -678320 -716131 
3620.061 -743752 -759959 -765549 -762771 -754270 -742693 -730289 -717322 
3623.918 -703925 -688575 -670148 -648644 -626311 -607882 -601363 -615690 
3627.776 -657610 -728536 -820683 -918795 -1005116 -1066533 -1099287 -1107450 
3631.633 -1099485 -1084447 -1070499 -1061839 -1059922 -1063327 -1070301 
3635.008 -1078993 -1089041 -1101435 -1117497 -1137557 -1160789 -1185110 
3638.384 -1207612 -1226247 -1240091 -1249772 -1257073 -1263483 -1269826 
3641.759 -1275508 -1278019 -1275046 -1264242 -1245311 -1219375 -1190199 
3645.134 -1163201 -1143836 -1137590 -1148529 -1178699 -1226809 -1289747 
3648.509 -1362155 -1437854 -1510238 -1573134 -1620738 -1648433 -1654012 
3651.885 -1637606 -1602780 -1555405 -1503601 -1456182 -1422134 -1407636 
3655.260 -1415628 -1443006 -1481939 -1522157 -1554316 -1573233 -1578813 
3658.635 -1574521 -1565310 -1555339 -1547449 -1542133 -1538204 -1534506 
3662.010 -1529487 -1523049 -1515257 -1506903 -1498549 -1490195 -1481510 
3665.385 -1472330 -1462985 -1454531 -1449677 -1451757 -1464273 -1490327 
3668.761 -1530577 -1581751 -1636121 -1681771 -1707548 -1705732 -1674839 
3672.136 -1619781 -1549958 -1477680 -1414901 -1372890 -1358852 -1374013 
3675.511 -1411599 -1459848 -1507365 -1547515 -1579341 -1605586 -1629519 
3678.886 -1652724 -1674113 -1690748 -1700584 -1702531 -1698306 -1690979 
3682.262 -1683718 -1677942 -1672991 -1666192 -1654276 -1635659 -1611198 
3685.637 -1584623 -1561414 -1546986 -1545368 -1557551 -1580662 -1609911 
3689.012 -1639983 -1667413 -1690682 -1710419 -1726921 -1739824 -1747514 
3692.387 -1748801 -1742761 -1730089 -1713158 -1694973 -1678206 -1664937 
3695.763 -1655860 -1650810 -1649061 -1650150 -1653913 -1661141 -1672100 
3699.138 -1687118 -1705534 -1725765 -1745699 -1763222 -1776421 -1783648 
3702.513 -1784473 -1778401 -1765400 -1746062 -1720947 -1690946 -1657478 
3705.888 -1622290 -1587165 -1553887 -1524073 -1499638 -1482039 -1472991 
3709.264 -1474873 -1489501 -1518591 -1561579 -1616480 -1677216 -1736227 
3712.639 -1785364 -1817800 -1830008 -1822254 -1798299 -1763816 -1725435 
3716.014 -1689230 -1659326 -1637705 -1623676 -1614664 -1607138 -1598522 
3719.389 -1587000 -1573762 -1560193 -1548571 -1540482 -1536058 -1534440 
3722.765 -1534077 -1534440 -1535827 -1539756 -1547977 -1561381 -1578615 
3726.140 -1596145 -1608359 -1609548 -1596178 -1567654 -1527341 -1480982 
3729.515 -1436401 -1400865 -1379595 -1375004 -1385573 -1406810 -1432603 
3732.890 -1458494 -1482633 -1506903 -1534869 -1569569 -1611000 -1655365 
3736.266 -1695930 -1725600 -1740385 -1740352 -1728637 -1709825 -1687646 
3739.641 -1664475 -1640544 -1616348 -1593306 -1576040 -1571319 -1588519 
3743.016 -1633645 -1707185 -1797375 -1883291 -1941021 -1956656 -1931851 
3746.391 -1880124 -1819450 -1765235 -1729627 -1717152 -1726260 -1749263 
3749.767 -1776587 -1799883 -1814797 -1821759 -1823145 -1820473 -1813346 
3753.142 -1800345 -1780216 -1754048 -1724676 -1696656 -1673618 -1657676 
3756.517 -1648995 -1645826 -1645496 -1646750 -1649721 -1656124 -1667281 
3759.892 -1682695 -1698999 -1711310 -1715072 -1708010 -1691342 -1669888 
3763.268 -1649853 -1636286 -1631698 -1634669 -1640808 -1644274 -1640907 
3766.643 -1630047 -1614697 -1600634 -1592876 -1595253 -1608326 -1628859 
3770.018 -1651602 -1671143 -1683322 -1686655 -1682431 -1672430 -1659953 
3773.393 -1647311 -1636319 -1628067 -1622488 -1619451 -1617866 -1617173 
3776.769 -1617602 -1619715 -1624964 -1634206 -1648202 -1665201 -1682365 
3780.144 -1695369 -1700650 -1696161 -1682233 -1661604 -1637870 -1615325 
3783.519 -1596607 -1583138 -1574851 -1570196 -1567522 -1565442 -1563527 
3786.894 -1561513 -1559929 -1558839 -1558080 -1557815 -1558443 -1560952 
3790.270 -1566003 -1574323 -1585515 -1598555 -1611462 -1622257 -1630278 
3793.645 -1636022 -1641171 -1648400 -1659161 -1673651 -1689560 -1702696 
3797.020 -1709132 -1706425 -1694973 -1678371 -1662990 -1655860 -1662825 
3800.395 -1686292 -1722795 -1763552 -1795560 -1807406 -1794108 -1757777 
3803.771 -1706194 -1650150 -1601493 -1569668 -1560853 -1575709 -1608986 
3807.146 -1650183 -1687448 -1712300 -1721475 -1716822 -1702498 -1683355 
3810.521 -1662792 -1641733 -1620276 -1598059 -1575082 -1553788 -1537808 
3813.896 -1531468 -1538072 -1557882 -1586604 -1615424 -1634107 -1634735 
3817.271 -1615060 -1579572 -1536520 -1497261 -1472033 -1469193 -1491681 
3820.647 -1535992 -1590929 -1641469 -1675169 -1685170 -1672694 -1644736 
3824.022 -1610373 -1578648 -1555868 -1544972 -1545435 -1553887 -1565508 
3827.397 -1575776 -1582642 -1585614 -1586241 -1586340 -1587165 -1588882 
3830.772 -1590301 -1589245 -1583402 -1571484 -1552698 -1528101 -1499572 
3834.148 -1470151 -1442808 -1421407 -1408924 -1407503 -1417874 -1437854 
3837.523 -1463513 -1489105 -1509379 -1520771 -1522686 -1517436 -1508455 
3840.898 -1500398 -1496931 -1500299 -1511195 -1528299 -1549198 -1570658 
3844.273 -1589113 -1602120 -1608260 -1607600 -1601196 -1590731 -1577525 
3847.649 -1562041 -1543619 -1520738 -1492242 -1457767 -1419888 -1384252 
3851.024 -1359216 -1354558 -1378934 -1435377 -1517733 -1608458 -1686457 
3854.399 -1734577 -1746854 -1727812 -1688603 -1640709 -1592843 -1551047 
3857.774 -1518360 -1495181 -1480619 -1473354 -1471307 -1472693 -1475732 
3861.150 -1479133 -1482138 -1485539 -1490525 -1499143 -1512978 -1530874 
3864.525 -1549562 -1563593 -1567258 -1556924 -1533350 -1501025 -1467773 
3867.900 -1441982 -1430291 -1435641 -1455059 -1480123 -1500398 -1507992 
3871.275 -1500596 -1482270 -1460508 -1443897 -1438415 -1446572 -1465759 
3874.651 -1489865 -1511658 -1524601 -1526186 -1516841 -1500563 -1481973 
3878.026 -1466287 -1457569 -1457668 -1466287 -1480420 -1495016 -1504922 
3881.401 -1506176 -1497261 -1479925 -1458758 -1439307 -1427550 -1427550 
3884.776 -1439835 -1460574 -1481774 -1494619 -1492077 -1472429 -1439010 
3888.152 -1399049 -1361032 -1332955 -1320667 -1326085 -1347225 -1378373 
3891.527 -1412325 -1442411 -1464471 -1477118 -1481147 -1477944 -1468566 
3894.902 -1453805 -1433825 -1409518 -1382336 -1354888 -1329850 -1310129 
3898.277 -1297114 -1290771 -1289549 -1291035 -1293083 -1294867 -1297114 
3901.653 -1301408 -1309865 -1323277 -1341247 -1361528 -1380982 -1396637 
3905.028 -1406017 -1408692 -1405555 -1398421 -1389602 -1380949 -1373914 
3908.403 -1369224 -1366912 -1366945 -1368398 -1369884 -1370314 -1367869 
3911.778 -1361693 -1350495 -1334838 -1315448 -1294008 -1272700 -1253571 
3915.154 -1238439 -1228659 -1224959 -1227073 -1234309 -1245245 -1258395 
3918.529 -1271478 -1282248 -1289185 -1290374 -1285452 -1275244 -1261765 
3921.904 -1248087 -1237811 -1233781 -1237613 -1248946 -1265894 -1284527 
3925.279 -1301243 -1312310 -1316009 -1312508 -1303324 -1290606 -1277160 
3928.655 -1264903 -1255256 -1248813 -1245344 -1244518 -1245774 -1247988 
3932.030 -1250565 -1252514 -1252943 -1251126 -1246369 -1238439 -1227899 
3935.405 -1215410 -1202028 -1188877 -1177080 -1167332 -1159996 -1155039 
3938.780 -1152296 -1151371 -1152098 -1154543 -1159071 -1165746 -1174503 
3942.156 -1184845 -1195023 -1203383 -1208273 -1208438 -1204010 -1196047 
3945.531 -1186399 -1177444 -1170835 -1167596 -1167167 -1168621 -1170339 
3948.906 -1170901 -1169876 -1167398 -1164127 -1161252 -1158608 -1156691 
3952.281 -1154676 -1152428 -1149520 -1146414 -1143275 -1140036 -1136500 
3955.656 -1131344 -1123545 -1112341 -1097766 -1081043 -1064517 -1050667 
3959.032 -1041742 -1038768 -1041180 -1047527 -1055229 -1062203 -1066334 
3962.407 -1066797 -1062963 -1055526 -1045147 -1032851 -1019694 -1006868 
3965.782 -995563 -986339 -979496 -974537 -970272 -965446 -959065 -950469 
3969.640 -940054 -928813 -918100 -909140 -902858 -899287 -898195 -898923 
3973.497 -900708 -902494 -903453 -902692 -899551 -893632 -884704 -873329 
3977.354 -860267 -846875 -834110 -822502 -812415 -803121 -794126 -784733 
3981.212 -775108 -765549 -757346 -752120 -750863 -754402 -762605 -774645 
3985.069 -788768 -802658 -814531 -822865 -826371 -825180 -820286 -812878 
3988.927 -804808 -797631 -792769 -790917 -791943 -795052 -799351 -803948 
3992.784 -807818 -810761 -813043 -815094 -817806 -822072 -828124 -836226 
3996.642 -845386 -854646 -862384 -867543 -869427 -867807 -863839 -858581 
4000.499 -853455 
##END=
