
##TITLE=Z295_1_a
##JCAMP-DX=5.01  $$ Nicolet v. 1
##DATATYPE=INFRARED SPECTRUM
##ORIGIN=UniL
##OWNER=Nicolet
##LONGDATE=2011/09/09
##TIME=13:31:18
##SPECTROMETER/DATA SYSTEM=Nicolet iS5
##DATA PROCESSING=
Ratio against background
%Transmittance->Absorbance
Truncated
ElementMultiply or ElementDivide
##COMMENTS=
Number of sample scans: 32
Collection length: 51.20 sec
Sample gain: 2.0
Background collected on: Ven Sep 09 13:27:55 2011 (GMT+02:00);
Number of background scans: 32
Background gain: 2.0
Sample spacing:  1.000
Number of scan points: 12415
Resolution points: 8192
Number of FFT points: 65536
Apodization: N-B fort;
Phase correction: Mertz;
Laser frequency: 15798.0 cm-1
Number of rejected sample scans: 0
Number of rejected background scans: 0
Bench serial number: ASB1000141;
##RESOLUTION=4.000
##XUNITS=1/CM
##YUNITS=ABSORBANCE
##FIRSTX=649.893372
##LASTX=4000.122314
##FIRSTY=0.100162
##MAXX=4000.122314
##MINX=649.893372
##MAXY=0.264523
##MINY=-0.001345
##XFACTOR=1.000000
##YFACTOR=1.000000E-009
##NPOINTS=6950
##DELTAX=0.482117
##ZPD=6100
##XYDATA=(X++(Y..Y))
649.893 100162424 99082448 98072672 97167456 96369144 95660624 95021096 
653.268 94442744 93932712 93508816 93185896 92963920 92826168 92746776 
656.643 92701856 92680280 92687832 92739432 92848856 93017984 93234728 
660.018 93478000 93730664 93985784 94251008 94541192 94873000 95253120 
663.393 95678800 96139376 96622840 97119552 97618704 98101944 98537208 
666.767 98873120 99060344 99082064 98985296 98861344 98805184 98865384 
670.142 99036408 99274208 99519312 99720152 99843432 99884096 99860328 
673.517 99800120 99723568 99629616 99499440 99306824 99035864 98689928 
676.892 98292704 97875744 97466192 97073976 96691552 96300896 95885936 
680.267 95438376 94960936 94459760 93939792 93399528 92833584 92238512 
683.642 91619552 90990304 90369440 89770976 89197176 88637128 88073792 
687.016 87493352 86894376 86290448 85704840 85161824 84675320 84245560 
690.391 83861160 83508816 83180488 82878616 82614440 82401808 82250736 
693.766 82163168 82134992 82161128 82241808 82384896 82603456 82909744 
697.141 83308840 83795936 84358336 84980328 85651640 86369832 87139672 
700.516 87967640 88854264 89790040 90757728 91735808 92704776 93653584 
703.890 94577312 95473136 96334648 97149560 97900192 98572832 99162040 
707.265 99675344 100128792 100542784 100931328 101299856 101647752 101974816 
710.640 102289792 102613632 102974472 103397960 103896048 104458808 
713.533 105054792 105636808 106158296 106582648 106890216 107080040 
716.425 107165224 107168624 107116840 107046336 107002888 107039088 
719.318 107215864 107589128 108193760 109036528 110082144 111258088 
722.211 112452600 113539960 114399256 114928568 115074080 114837696 
725.104 114284184 113522824 112690176 111923080 111318024 110925720 
727.996 110742976 110729208 110824312 110973072 111142648 111322432 
730.889 111519000 111742912 111998112 112278776 112572632 112868496 
733.782 113163056 113462112 113775200 114108120 114457896 114812152 
736.674 115156528 115481952 115789928 116092576 116405488 116739608 
739.567 117093896 117456248 117808864 118138848 118444272 118734800 
742.460 119025568 119329032 119647344 119972440 120290000 120589632 
745.352 120869688 121139424 121411952 121696224 121991216 122285488 
748.245 122563304 122811976 123030216 123227584 123419528 123618744 
751.138 123828528 124042088 124248376 124438392 124612512 124779720 
754.031 124954112 125145272 125354264 125571920 125785056 125983488 
756.923 126164792 126334456 126501592 126671568 126841920 127004176 
759.816 127148328 127270904 127379296 127489400 127618296 127776984 
762.709 127965304 128173504 128389728 128609152 128840624 129107952 
765.601 129445208 129883248 130446240 131140080 131950720 132839888 
768.494 133747008 134594112 135286688 135737920 135888768 135730352 
771.387 135319504 134774704 134255632 133903800 133806256 133955944 
774.279 134251344 134514128 134540720 134174216 133331136 132025656 
777.172 130343032 128405320 126320496 124148968 121901760 119549464 
780.065 117049728 114368040 111496344 108455048 105288992 102056152 98819080 
783.440 95642496 92583048 89689496 86999944 84536264 82306320 80305456 
786.815 78521384 76939272 75546992 74338656 73312720 72470776 71813456 
790.189 71339448 71045824 70929704 70991704 71236808 71673728 72313024 
793.564 73161792 74219656 75474328 76900464 78457784 80088448 81725408 
796.939 83290856 84704552 85903112 86847880 87542640 88035936 88422624 
800.314 88824424 89356336 90109384 91112688 92319120 93593112 94728984 
803.689 95491296 95637048 94989880 93476808 91150576 88181440 84820464 
807.063 81352384 78007128 74930792 72161088 69639224 67247056 64855032 
810.438 62376528 59782868 57113024 54446200 51882116 49506472 47372016 
813.813 45499968 43882440 42495796 41309568 40295088 39427676 38684660 
817.188 38045900 37493396 37012412 36593380 36232740 35930084 35686524 
820.563 35501416 35371812 35293460 35263056 35280916 35350644 35478620 
823.938 35671632 35933684 36265368 36663500 37122148 37631836 38179708 
827.312 38748700 39314452 39850216 40330424 40736920 41067892 41341784 
830.687 41600244 41898520 42302724 42879892 43681568 44739224 46049684 
834.062 47569720 49204560 50808768 52209624 53208872 53628472 53351216 
837.437 52338108 50648972 48423632 45866368 43191344 40587336 38205576 
840.812 36132692 34401576 33003568 31904538 31059080 30418748 29941910 
844.186 29590330 29331474 29140656 29000542 28902220 28843826 28827608 
847.561 28855722 28927152 29037098 29177688 29341648 29523438 29720704 
850.936 29933356 30161884 30405456 30662642 30932290 31215850 31517480 
854.311 31844988 32206074 32607388 33052624 33543162 34080592 34670004 
857.686 35320056 36045168 36862088 37787380 38838008 40030788 41382748 
861.060 42914416 44644840 46584824 48726856 51033908 53434020 55813676 
864.435 58038904 59968612 61473044 62467384 62920308 62865428 62392364 
867.810 61641608 60786032 59993720 59426460 59216716 59451920 60184280 
871.185 61424912 63149556 65297552 67774392 70457168 73179840 75752824 
874.560 77976600 79646208 80598352 80729816 80013152 78502608 76322984 
877.935 73652368 70678696 67590312 64551024 61675596 59037476 56665092 
881.309 54550400 52663004 50963368 49417988 48005000 46718888 45567528 
884.684 44566776 43732100 43072488 42588764 42274016 42118136 42111708 
888.059 42249876 42532996 42964788 43548660 44285596 45172848 46205176 
891.434 47377968 48690160 50145916 51755448 53533112 55494396 57654452 
894.809 60022824 62597492 65355628 68243400 71171496 73999424 76552624 
898.183 78640544 80070560 80697696 80444080 79314608 77394640 74837096 
901.558 71843208 68616936 65358864 62243780 59396600 56905452 54817032 
904.933 53143072 51872300 50978944 50432336 50201520 50260924 50592608 
908.308 51185044 52032168 53131428 54482144 56083648 57933556 60023208 
911.683 62334604 64833140 67461144 70143656 72786648 75288848 77564232 
915.058 79548504 81215504 82580296 83697608 84652608 85538536 86449928 
918.432 87456592 88586384 89815752 91064304 92206888 93079104 93520824 
921.807 93408152 92682088 91377600 89628760 87667864 85774192 84253808 
925.182 83397280 83411608 84407912 86365752 89139272 92454016 95941016 
928.557 99213752 101876896 103608216 104204712 103575616 101749344 98838296 
931.932 95017176 90485040 85444824 80110400 74680448 69339504 64261684 
935.306 59583816 55411764 51818348 48837816 46479012 44731548 43573312 
938.681 42973896 42891120 43269676 44026340 45047088 46198912 47323132 
942.056 48264748 48896956 49126932 48917948 48288892 47309644 46082436 
945.431 44722404 43347208 42049832 40896676 39926492 39149948 38558844 
948.806 38133256 37849196 37681772 37607012 37603980 37651204 37728428 
952.181 37818104 37905812 37983120 38048396 38106016 38163860 38230396 
955.555 38313660 38418588 38548308 38704652 38889280 39103140 39346664 
958.930 39618240 39914396 40230164 40560888 40903740 41258408 41627008 
962.305 42012672 42417388 42841456 43282816 43738624 44207196 44688248 
965.680 45183840 45696860 46229944 46784204 47359488 47955336 48571604 
969.055 49210160 49873704 50565208 51286604 52038444 52820924 53634732 
972.429 54483236 55372052 56308820 57301076 58353884 59469320 60647400 
975.804 61886724 63187764 64553104 65987616 67497256 69088632 70767832 
979.179 72543216 74426632 76435536 78594480 80930968 83472840 86244824 
982.554 89263088 92533472 96047024 99779272 103680480 107666728 111624344 
985.929 115394432 118784800 121601920 123653360 124789352 124928088 
988.821 124060872 122259976 119662184 116466920 112901192 109194352 
991.714 105575288 102230672 99301320 96883960 95022256 93721904 92960760 
995.089 92703376 92909544 93541120 94568088 95963248 97701648 99760176 
998.464 102112696 104731064 107585136 110634472 113824632 117083664 
1001.356 120309792 123380088 126163200 128522592 130347240 131564944 
1004.249 132150608 132133392 131593016 130658504 129481808 128234832 
1007.142 127093584 126206488 125698656 125658784 126134392 127143416 
1010.035 128680392 130728528 133264976 136267024 139714240 143582512 
1012.927 147845248 152474768 157438944 162705856 168239984 173986528 
1015.820 179862320 185737632 191416048 196659200 201194768 204751248 
1018.713 207126048 208211072 208033040 206749952 204652864 202130592 
1021.605 199590464 197456144 196094272 195764624 196632768 198744512 
1024.498 202046112 206396656 211603248 217451088 223700720 230122992 
1027.391 236496208 242592000 248203648 253144560 257261632 260462880 
1030.284 262715696 264047120 264523120 264236592 263289952 261776656 
1033.177 259786816 257397360 254663408 251617584 248261488 244570976 
1036.070 240504032 236021360 231106176 225774768 220081248 214108624 
1038.963 207962384 201748688 195570272 189525520 183694112 178140912 
1041.856 172907136 168000720 163394880 159028560 154823296 150694224 
1044.750 146574032 142432688 138282976 134182976 130219504 126504288 
1047.643 123150536 120255856 117904008 116149032 115015784 114502752 
1050.536 114583672 115214368 116335536 117885800 119803752 122029176 
1053.429 124508736 127184168 129984824 132827144 135602256 138180432 
1056.322 140430560 142219536 143434624 144000336 143879328 143084832 
1059.215 141678016 139774448 137531648 135131760 132782920 130681336 
1062.108 128998104 127878728 127420128 127677696 128666400 130363704 
1065.001 132711144 135612160 138945392 142554112 146256336 149873472 
1067.894 153225456 156157984 158560608 160357808 161512704 162017968 
1070.787 161886528 161145440 159830000 157985776 155663152 152916096 
1073.680 149808112 146408528 142800704 139091456 135400912 131866592 
1076.573 128637584 125847520 123617064 122040144 121171088 121027632 
1079.466 121583192 122769512 124466592 126506240 128692168 130790576 
1082.359 132572544 133851168 134496048 134471984 133840440 132757248 
1085.252 131436216 130118224 129054648 128455520 128484768 129249368 
1088.146 130784496 133058264 135968192 139361568 143031712 146739552 
1091.039 150256080 153359152 155866752 157655680 158650832 158829952 
1093.932 158214368 156862848 154860784 152306912 149313984 145989664 
1096.825 142432544 138735808 134978960 131232008 127558112 124003688 
1099.718 120597592 117344704 114226160 111202056 108222280 105244200 
1102.611 102242400 99222744 96220920 93303520 90556464 88066976 85923616 
1105.986 84199984 82949488 82209336 81996976 82313448 83145456 84467472 
1109.361 86242920 88421896 90946840 93748424 96741392 99832304 102909840 
1112.737 105845824 108513880 110785392 112548888 113727584 114278712 
1115.630 114200176 113524128 112313104 110649432 108622536 106330144 
1118.523 103862720 101295752 98691344 96090392 93516624 90983608 88500208 
1121.898 86077704 83734616 81494632 79386448 77440264 75681544 74131568 
1125.273 72808120 71724224 70893120 70328320 70042416 70047512 70351144 
1128.648 70954088 71847504 73011128 74413648 76007504 77731704 79513008 
1132.024 81263080 82893696 84325296 85496536 86381648 86993272 87384944 
1135.399 87635144 87840744 88099848 88489080 89059864 89827200 90767976 
1138.774 91821360 92895592 93885448 94673232 95150272 95231960 94856008 
1142.149 93992488 92638776 90814536 88556440 85913688 82950008 79735888 
1145.525 76349488 72874536 69388328 65962508 62659948 59526888 56598804 
1148.900 53898964 51439436 49224596 47252048 45514944 44002360 42701528 
1152.275 41599184 40681860 39938184 39359688 38939876 38674480 38560256 
1155.650 38594080 38773336 39095668 39560928 40171096 40930788 41846488 
1159.026 42923928 44167980 45580404 47159664 48900256 50791376 52816920 
1162.401 54950316 57153384 59378976 61566044 63647120 65555760 67224152 
1165.776 68593424 69616272 70255864 70492560 70323880 69766272 68851688 
1169.151 67625392 66142008 64455584 62619688 60685236 58694996 56689328 
1172.527 54704612 52771048 50916384 49163404 47529020 46026252 44663936 
1175.902 43447024 42378772 41460460 40692196 40072972 39600524 39272052 
1179.277 39084392 39035636 39125580 39356528 39731872 40256080 40932504 
1182.652 41762908 42747044 43882476 45164980 46586264 48131320 49777340 
1186.028 51487068 53209808 54886844 56449168 57829224 58968928 59820132 
1189.403 60354020 60561456 60454468 60064028 59436644 58632948 57715716 
1192.778 56748832 55793408 54899556 54109984 53458456 52967784 52652344 
1196.153 52516924 52556224 52754060 53082676 53505636 53974144 54432564 
1199.529 54823084 55082320 55151048 54979156 54527072 53776280 52731800 
1202.904 51424960 49907672 48247680 46522384 44802148 43149736 41614464 
1206.279 40227436 39006456 37957336 37077148 36357412 35785600 35348016 
1209.654 35029064 34814080 34690960 34650484 34687516 34800620 34990164 
1213.030 35256480 35598616 36013520 36496172 37040664 37639316 38283876 
1216.405 38963468 39664160 40370060 41063192 41725992 42343996 42905640 
1219.780 43403156 43831928 44189476 44475588 44692692 44847808 44952932 
1223.155 45024740 45085500 45159204 45268780 45435988 45677168 46002680 
1226.531 46416292 46914376 47485660 48110700 48765632 49422332 50052472 
1229.906 50633524 51149260 51592576 51965836 52280404 52556260 52819352 
1233.281 53105252 53455608 53914496 54530528 55348792 56406796 57735132 
1236.656 59353444 61271736 63492036 66009640 68812240 71877264 75172336 
1240.031 78651312 82253856 85914896 89562224 93121920 96526200 99707184 
1243.407 102600040 105148872 107303504 109027032 110298520 111111152 
1246.300 111470344 111389616 110889704 109996208 108740160 107160264 
1249.193 105296632 103187304 100863784 98344600 95638000 92746448 89675240 
1252.568 86441520 83081216 79646448 76206872 72842328 69627592 66634244 
1255.943 63918324 61513776 59434440 57670644 56192696 54950352 53880548 
1259.319 52913996 51975696 50999848 49934512 48744168 47416364 45957960 
1262.694 44393848 42758964 41095568 39447740 37853608 36345880 34948796 
1266.069 33676160 32533854 31519760 30626268 29841710 29153520 28550134 
1269.444 28021796 27561106 27162908 26822554 26535508 26297474 26104328 
1272.820 25953648 25844692 25778654 25757526 25783226 25856120 25973840 
1276.195 26130964 26318138 26522406 26726522 26908808 27047298 27119630 
1279.570 27108626 27005902 26812404 26538960 26201700 25820182 25411632 
1282.945 24988794 24560618 24133564 23713334 23308612 22930324 22591352 
1286.321 22305866 22085794 21941452 21881722 21913990 22045948 22285812 
1289.696 22640674 23116124 23713928 24430662 25256732 26174776 27160474 
1293.071 28177896 29182578 30124842 30949974 31610836 32074668 32327634 
1296.446 32378964 32258532 32013170 31694122 31354156 31041072 30791276 
1299.822 30631672 30578164 30634340 30792164 31030504 31318932 31617392 
1303.197 31882678 32076522 32165930 32130000 31960812 31662476 31249638 
1306.572 30744648 30176766 29577278 28976702 28403874 27880344 27420684 
1309.947 27032488 26717114 26472960 26298284 26192724 26157462 26193816 
1313.323 26302228 26480636 26725182 27031606 27396580 27819048 28300030 
1316.698 28841312 29444074 30108576 30834208 31620492 32468006 33377428 
1320.073 34347924 35374148 36442660 37531616 38609180 39634756 40566236 
1323.448 41360772 41982200 42409828 42642128 42702736 42636388 42509936 
1326.823 42399156 42372964 42488924 42777796 43241452 43854652 44575076 
1330.199 45354544 46146180 46917444 47650360 48341664 49000244 49643704 
1333.574 50295336 50978832 51717300 52528292 53420420 54390840 55423848 
1336.949 56494640 57569136 58609476 59579484 60442740 61167584 61729676 
1340.324 62112292 62310088 62328908 62184740 61899904 61499384 61009348 
1343.700 60452144 59846104 59206348 58542436 57860980 57166084 56459204 
1347.075 55740704 55008980 54260996 53492860 52701348 51886112 51052504 
1350.450 50213908 49391516 48617372 47930216 47372168 46988988 46822100 
1353.825 46903560 47252784 47868280 48724296 49766712 50922164 52100716 
1357.201 53204828 54149164 54860416 55287108 55405480 55218356 54757644 
1360.576 54077448 53258760 52399936 51601608 50964300 50563868 50437356 
1363.951 50579952 50945820 51461252 52030676 52556936 52947680 53120492 
1367.326 53020864 52626612 51954448 51053732 49999156 48875008 47753832 
1370.702 46694872 45738016 44904428 44207232 43656396 43263232 43041428 
1374.077 43001916 43146588 43463764 43929804 44515600 45192040 45938296 
1377.452 46743464 47604364 48524548 49511592 50577308 51736784 53008360 
1380.827 54408756 55943348 57594444 59308812 61001264 62549652 63812540 
1384.203 64655832 64954644 64621576 63625328 62012216 59917300 57544052 
1387.578 55141648 52928556 51050864 49573056 48482572 47721248 47209752 
1390.953 46871044 46635252 46439592 46232300 45966028 45601164 45114284 
1394.328 44501468 43781572 42987284 42153220 41303156 40444680 39575628 
1397.704 38694040 37808924 36947796 36151884 35463920 34916480 34520560 
1401.079 34267676 34137076 34106072 34156360 34276708 34463236 34716300 
1404.454 35035528 35418404 35858144 36346064 36873520 37434592 38026048 
1407.829 38648004 39300852 39983996 40695360 41429840 42181516 42944228 
1411.205 43712932 44483440 45252712 46016748 46772096 47515824 48247348 
1414.580 48969720 49689808 50416628 51159436 51925132 52718444 53542180 
1417.955 54398164 55287520 56205668 57141180 58070228 58960084 59772524 
1421.330 60472520 61035316 61448652 61720240 61878012 61969568 62048608 
1424.706 62162144 62340608 62591328 62906332 63271008 63673972 64109228 
1428.081 64574748 65070516 65595144 66147492 66729628 67351248 68029352 
1431.456 68783056 69627512 70567120 71594208 72690784 73836880 75018720 
1434.831 76230008 77475784 78768392 80123072 81546032 83032000 84565408 
1438.207 86119728 87660568 89140984 90505608 91682936 92590960 93155184 
1441.582 93306928 92995440 92192344 90887440 89093184 86845448 84210488 
1444.957 81278504 78150264 74939568 71752952 68688184 65839380 63282280 
1448.332 61066548 59205668 57677232 56435168 55429572 54629076 54028512 
1451.708 53646616 53508336 53625732 53978272 54512984 55140180 55746880 
1455.083 56215964 56432376 56325080 55901664 55270436 54598756 54038304 
1458.458 53681968 53551136 53628020 53882872 54287612 54816956 55441128 
1461.833 56124784 56819340 57463940 57998536 58371468 58559304 58577316 
1465.208 58478364 58332848 58200872 58121588 58106396 58144728 58211176 
1468.584 58271080 58282792 58192576 57939088 57458156 56696352 55639116 
1471.959 54334176 52901080 51491244 50242100 49234020 48481572 47959336 
1475.334 47630320 47469212 47465960 47620892 47931288 48382852 48946504 
1478.709 49586096 50262856 50947272 51624672 52295016 52972272 53677696 
1482.085 54436772 55273520 56211968 57280584 58511724 59941872 61603156 
1485.460 63512056 65654336 67969480 70354608 72654008 74671752 76203432 
1488.835 77042720 77027928 76086528 74257080 71693696 68617432 65269364 
1492.210 61841984 58453344 55166212 51995192 48939384 46014284 43260084 
1495.586 40746856 38561812 36779028 35436376 34527052 34013792 33844084 
1498.961 33967176 34343044 34937088 35717028 36650988 37701616 38827972 
1502.336 39989372 41134072 42200468 43112300 43758260 43998180 43674644 
1505.711 42656092 40916188 38590312 35949776 33274282 30747776 28430830 
1509.087 26303320 24320512 22450122 20681048 19027144 17512932 16157504 
1512.462 14969581 13942636 13059486 12299185 11641383 11068455 10563768 
1515.837 10112877 9705584 9337569 9012656 8738729 8521131 8356940 8231676 
1519.695 8121269 8000966 7855021 7688755 7528081 7407741 7350582 7356682 
1523.552 7405820 7469322 7523192 7554243 7565032 7570090 7587421 7628592 
1527.409 7693072 7771121 7851546 7928578 8004645 8087915 8186362 8301379 
1531.267 8426156 8546204 8646309 8719494 8773282 8829039 8910134 9031465 
1535.124 9191682 9377383 9569159 9749498 9907132 10035931 10134108 10201946 
1538.982 10238447 10242485 10215582 10167619 10115759 10077980 10065094 
1542.357 10074420 10092258 10098361 10076284 10019927 9936523 9843407 
1545.732 9760342 9699146 9658997 9628100 9590465 9534103 9456278 9365940 
1549.590 9278904 9211852 9172561 9157502 9154828 9151377 9139229 9118655 
1553.447 9098015 9089184 9101669 9137672 9191106 9249828 9299823 9325313 
1557.304 9309945 9239707 9109350 8933234 8746573 8592975 8500924 8474063 
1561.162 8497749 8548806 8603723 8640530 8644789 8611260 8546001 8463826 
1565.019 8383085 8318604 8274158 8243562 8212935 8168534 8100305 8007075 
1568.877 7895848 7780465 7676749 7596018 7544601 7523597 7531014 7562976 
1572.734 7612845 7671387 7724809 7757899 7757865 7720796 7656818 7589275 
1576.592 7545983 7544365 7585903 7658942 7748015 7839975 7928309 8012982 
1580.449 8098076 8188455 8286552 8392070 8502344 8614640 8726897 8838067 
1584.306 8946391 9047028 9132732 9195269 9227997 9229621 9205659 9168026 
1588.164 9131818 9112124 9121971 9169955 9262182 9402675 9594021 9834934 
1592.021 10117761 10426565 10735453 11012172 11226160 11352087 11376984 
1595.396 11302399 11143272 10923719 10669875 10408476 10161649 9946694 
1598.772 9778540 9667941 9622206 9644328 9733166 9884353 10093207 10356113 
1602.629 10671030 11035759 11445289 11888781 12348066 12801081 13221707 
1606.004 13584278 13868019 14055559 14136815 14108610 13974799 13744712 
1609.380 13432481 13056891 12639563 12203755 11773967 11369808 11004866 
1612.755 10684206 10404505 10156934 9929268 9709921 9490075 9266819 9045641 
1616.612 8840603 8670106 8549685 8487680 8482713 8525524 8601662 8694612 
1620.470 8789815 8875401 8946695 9007040 9067226 9141698 9242178 9373997 
1624.327 9534542 9716935 9913505 10119490 10332632 10551547 10774207 
1627.702 10996608 11213512 11421409 11619841 11812542 12005259 12202630 
1631.078 12406090 12612205 12812718 12997140 13154387 13274314 13349649 
1634.453 13377599 13362599 13315652 13254262 13196329 13154387 13132188 
1637.828 13125289 13124709 13118903 13097013 13052486 12984679 12899850 
1641.203 12808383 12721952 12647749 12586657 12532257 12473773 12398999 
1644.579 12297241 12163748 12001513 11822687 11645468 11491013 11377596 
1647.954 11315016 11305460 11343176 11417360 11512141 11605139 11669224 
1651.329 11670110 11575294 11371746 11088951 10800023 10580642 10469127 
1654.704 10453615 10498284 10565330 10628074 10672524 10693884 10694291 
1658.080 10678569 10651165 10613814 10565093 10501611 10419743 10316684 
1661.455 10192244 10049529 9895165 9738926 9591346 9462407 9358051 9279242 
1665.312 9221532 9175641 9129585 9069392 8982888 8862279 8706039 8520996 
1669.170 8320259 8120120 7935024 7774157 7640698 7532531 7442794 7360996 
1673.027 7274563 7169182 7032810 6861674 6664730 6463807 6283717 6143389 
1676.885 6046681 5983991 5938508 5893533 5839260 5774786 5708039 5649896 
1680.742 5608911 5583436 5561554 5521148 5438201 5296737 5100200 4877715 
1684.599 4673664 4523844 4438509 4405137 4400953 4405940 4405304 4391548 
1688.457 4362931 4320729 4267991 4208869 4149119 4095532 4054995 4031986 
1692.314 4026300 4031685 4034996 4020281 3972662 3885864 3769136 3647293 
1696.172 3551140 3499664 3492950 3512724 3533201 3525351 3467733 3354255 
1700.029 3202520 3049103 2930698 2865821 2849411 2863052 2885333 2898775 
1703.886 2892437 2860951 2806522 2736895 2663446 2596175 2541780 2501787 
1707.744 2473895 2453901 2437474 2422013 2407053 2394359 2386463 2385663 
1711.601 2392327 2405021 2420247 2434342 2444471 2449469 2449369 2444704 
1715.459 2433975 2414184 2381332 2333426 2274301 2213451 2164431 2138192 
1719.316 2139158 2164465 2206824 2256648 2306011 2350050 2387029 2418382 
1723.174 2446337 2473428 2501087 2529615 2558777 2588909 2620309 2653045 
1727.031 2685750 2715756 2739263 2753501 2758136 2756402 2753334 2753301 
1730.888 2756802 2758302 2744931 2700019 2609009 2467263 2289123 2105362 
1734.746 1951965 1851994 1807340 1804579 1823577 1846337 1858582 1852892 
1738.603 1827936 1788575 1743130 1699951 1665590 1642607 1630634 1628106 
1742.461 1633428 1645301 1662996 1686180 1714221 1746922 1783618 1822812 
1746.318 1862143 1899048 1930032 1952198 1963348 1962683 1950035 1926138 
1750.176 1892392 1851062 1806043 1763124 1728259 1706138 1698354 1703044 
1754.033 1714720 1725465 1727494 1715186 1687743 1649725 1609748 1576891 
1757.890 1556075 1546963 1543937 1539648 1526780 1501211 1462976 1416468 
1761.748 1368535 1326058 1294220 1275078 1268598 1272918 1285380 1302296 
1765.605 1318813 1330046 1331476 1321804 1303326 1282256 1266305 1259792 
1769.463 1263215 1270957 1274281 1264245 1236000 1192340 1144099 1104501 
1773.320 1083674 1084172 1101611 1127821 1154598 1177488 1195729 1211378 
1777.177 1226563 1241914 1255505 1263713 1263115 1252581 1234936 1215531 
1781.035 1200247 1192838 1193635 1199284 1205597 1208487 1205796 1198121 
1784.892 1187755 1177355 1169049 1164199 1163767 1168817 1180346 1199151 
1788.750 1224303 1252216 1277471 1293356 1293555 1275377 1241449 1198387 
1792.607 1155461 1120579 1097725 1086564 1083773 1085468 1088989 1092609 
1796.465 1095366 1096861 1095931 1090849 1080286 1063246 1040660 1014190 
1800.322 987024 962051 941396 927018 919514 919116 926122 939869 959394 
1804.662 982241 1005854 1027242 1044679 1057500 1066036 1071583 1074872 
1808.519 1076200 1075170 1071484 1065206 1057533 1050824 1047236 1047735 
1812.376 1052285 1058828 1065139 1069623 1072048 1073510 1076366 1083242 
1816.234 1095964 1115032 1139847 1169116 1201045 1234239 1267701 1300634 
1820.091 1332373 1362552 1390839 1417399 1442032 1464206 1482558 1495558 
1823.949 1501942 1502075 1498617 1496257 1500080 1513247 1535558 1563158 
1827.806 1589728 1607853 1613174 1605392 1589628 1574231 1568245 1576991 
1831.664 1600935 1636421 1677864 1720342 1760861 1798956 1835656 1872658 
1835.521 1910862 1950468 1991075 2032585 2076030 2123541 2177551 2240161 
1839.378 2312373 2393226 2480593 2571276 2662112 2749133 2829200 2899575 
1843.236 2959887 3012300 3061649 3114308 3175818 3247985 3328913 3413061 
1847.093 3493251 3562431 3615952 3651770 3670249 3673156 3661862 3636467 
1850.951 3596140 3539782 3467833 3383173 3290984 3196946 3105864 3019707 
1854.808 2938037 2858449 2778577 2697685 2617075 2539313 2466464 2399457 
1858.666 2336891 2276665 2217015 2157472 2099369 2045035 1996268 1953430 
1862.523 1915322 1880279 1847235 1817355 1792667 1775899 1767781 1766517 
1866.380 1767681 1765053 1754008 1733150 1705373 1677032 1654980 1644470 
1870.238 1646366 1658772 1677265 1698188 1718612 1736776 1752012 1762957 
1874.095 1768447 1767815 1760629 1748253 1732650 1716284 1700117 1683885 
1877.953 1665757 1643838 1617298 1587367 1557072 1530005 1509224 1495359 
1881.810 1487014 1481195 1475244 1467564 1458322 1448880 1440370 1433322 
1885.667 1426939 1419925 1410750 1399116 1385387 1370430 1354941 1339120 
1889.525 1323034 1307048 1293289 1284483 1283552 1291827 1308477 1329448 
1893.382 1349722 1364347 1371261 1371527 1369000 1368435 1373488 1384789 
1897.240 1400512 1417299 1432990 1446886 1460383 1475610 1493996 1515574 
1901.097 1538185 1558934 1576027 1588697 1597743 1604460 1608850 1610413 
1904.955 1607453 1599040 1585970 1570972 1558136 1551020 1551087 1556607 
1908.812 1563889 1569309 1570473 1567514 1563257 1560431 1560996 1564687 
1912.669 1569442 1573067 1574830 1575362 1576559 1579751 1583775 1585571 
1916.527 1580383 1564521 1537819 1503771 1469094 1439638 1418030 1402240 
1920.384 1387581 1368336 1341812 1309408 1276873 1251019 1236465 1233906 
1924.242 1239256 1246168 1249225 1246234 1239655 1233840 1233574 1241084 
1928.099 1255771 1274713 1294087 1311468 1325659 1337192 1346698 1352946 
1931.957 1355040 1351451 1342776 1330578 1318747 1309673 1304788 1302528 
1935.814 1300102 1294851 1286743 1278435 1274845 1279963 1294519 1315290 
1939.671 1335863 1349490 1352115 1344471 1332340 1323898 1326224 1342643 
1943.529 1372424 1411182 1453967 1496855 1537886 1575794 1608950 1635856 
1947.386 1654481 1664759 1670214 1677032 1692200 1721307 1764588 1817222 
1951.244 1869963 1912759 1938486 1945409 1937021 1919782 1900346 1882509 
1955.101 1867534 1853724 1838883 1822479 1804379 1785481 1766018 1744427 
1958.958 1719510 1691302 1662431 1639281 1628605 1635590 1661000 1700583 
1962.816 1745425 1787677 1821148 1844340 1859082 1869065 1876019 1879913 
1966.673 1878316 1870562 1857285 1844573 1839016 1846237 1868233 1901378 
1970.531 1938919 1973400 1999829 2017905 2029988 2039210 2047399 2055156 
1974.388 2062813 2074299 2098670 2149480 2239662 2376202 2553978 2754934 
1978.246 2950580 3114675 3224985 3273357 3263809 3209697 3128925 3037224 
1982.103 2947477 2867522 2800486 2747065 2706554 2676315 2654145 2636143 
1985.960 2620109 2604809 2591242 2582409 2580709 2587942 2601942 2618409 
1989.818 2632243 2638877 2637677 2630809 2622509 2617675 2618375 2623776 
1993.675 2630276 2634843 2634376 2628943 2620075 2609708 2600842 2594675 
1997.533 2591642 2592442 2597375 2606609 2618709 2631243 2639510 2638576 
2001.390 2625209 2598775 2563444 2524982 2490990 2467130 2456400 2459166 
2005.248 2474728 2502687 2544446 2600575 2671180 2752300 2836837 2914786 
2009.105 2979170 3026013 3056644 3076332 3091582 3106699 3122785 3138170 
2012.962 3150452 3159296 3167540 3179689 3199583 3228457 3262540 3295926 
2016.820 3322769 3340131 3349748 3357695 3370183 3391054 3420141 3453571 
2020.677 3485736 3512357 3532700 3548066 3560828 3571919 3580004 3582609 
2024.535 3578600 3569647 3562331 3564068 3581941 3617456 3666673 3720909 
2028.392 3771308 3811819 3842839 3868881 3897365 3933306 3977979 4028073 
2032.250 4078073 4123462 4162701 4196523 4228408 4259960 4291013 4320026 
2036.107 4344055 4362161 4375783 4386929 4398409 4411129 4424149 4435898 
2039.964 4445104 4452837 4462411 4477710 4500308 4529000 4558398 4580632 
2043.822 4589572 4581904 4560039 4530942 4503890 4489159 4493813 4522639 
2047.679 4574906 4646268 4728093 4807688 4871482 4905829 4902210 4859989 
2051.537 4787956 4702469 4622390 4565899 4543364 4555050 4590577 4635116 
2055.394 4672860 4694262 4697511 4687798 4673631 4662812 4659463 4663616 
2059.251 4672994 4685722 4701162 4720187 4744507 4772981 4802395 4827188 
2063.109 4841862 4843504 4832950 4814255 4792746 4773483 4758911 4749062 
2066.966 4742128 4736869 4732481 4730036 4729600 4731007 4731643 4728528 
2070.824 4718178 4699789 4674066 4644627 4615123 4588970 4568175 4553376 
2074.681 4545038 4543833 4550864 4566568 4590811 4620313 4650555 4676008 
2078.539 4692554 4699052 4697176 4690712 4683712 4678454 4675841 4674200 
2082.396 4672525 4670884 4670348 4673597 4682204 4695736 4711043 4724073 
2086.253 4730036 4726217 4712684 4691282 4664989 4635987 4604943 4571524 
2090.111 4534859 4495620 4456285 4421070 4394627 4380134 4379331 4390945 
2093.968 4413136 4442660 4477007 4514402 4553141 4591414 4627145 4658626 
2097.826 4685320 4707258 4725983 4743099 4759447 4774287 4786281 4793484 
2101.683 4795226 4793182 4790334 4790568 4797135 4811273 4832213 4857845 
2105.541 4886729 4917692 4950970 4987502 5026953 5067648 5106671 5140231 
2109.398 5166015 5183820 5195188 5202599 5208467 5213396 5216180 5214269 
2113.255 5206119 5191264 5172252 5151966 5134498 5122461 5116862 5116594 
2117.113 5120685 5127323 5135806 5145529 5155554 5164741 5171682 5175102 
2120.970 5175605 5175270 5176779 5183988 5198642 5220942 5248441 5277720 
2124.828 5305558 5329776 5349566 5365165 5376538 5383180 5383616 5376806 
2128.685 5362750 5343025 5320987 5300460 5283992 5273326 5268597 5269201 
2132.542 5275439 5288855 5311394 5344803 5388279 5438469 5489873 5537223 
2136.400 5577160 5609381 5635931 5659261 5680242 5697061 5705085 5700519 
2140.257 5681685 5650936 5614348 5579006 5550714 5531887 5521450 5516181 
2144.115 5513195 5512054 5514235 5521853 5534840 5550009 5560513 5558802 
2147.972 5539538 5503329 5455145 5403040 5354665 5314346 5280940 5250286 
2151.830 5215777 5172084 5116024 5045959 4960388 4858080 4738510 4604909 
2155.687 4467800 4346130 4264812 4251261 4324276 4487519 4723939 5001445 
2159.544 5280336 5524772 5711564 5832610 5891282 5899612 5871064 5820790 
2163.402 5760650 5700754 5648284 5606528 5574743 5547962 5518765 5479538 
2167.259 5425116 5354498 5271683 5182882 5094735 5011970 4935789 4865083 
2171.117 4797068 4730337 4664286 4600389 4541355 4489796 4448351 4419631 
2174.974 4405271 4406610 4423313 4451297 4483133 4509682 4520730 4509849 
2178.832 4476237 4424752 4365207 4307778 4260094 4224795 4199200 4177354 
2182.689 4154706 4128580 4100148 4072286 4047905 4027170 4009613 3992190 
2186.546 3974333 3957681 3946413 3944909 3955943 3978513 4007907 4037203 
2190.404 4060246 4074160 4080080 4081752 4085765 4096001 4114966 4142596 
2194.261 4176618 4214055 4252465 4288938 4321064 4346599 4363902 4372169 
2198.119 4372704 4368185 4361994 4356739 4353727 4351083 4346565 4336960 
2201.976 4321030 4299212 4274683 4250591 4229914 4214021 4203282 4196758 
2205.833 4194315 4195854 4202044 4212114 4224694 4236505 4244134 4245271 
2209.691 4240052 4230549 4220546 4213285 4211412 4214289 4220846 4229312 
2213.548 4239249 4251294 4266720 4285659 4306741 4326284 4340340 4345795 
2217.406 4342884 4334517 4325849 4321700 4323841 4331271 4339805 4344155 
2221.263 4340307 4327188 4305871 4280003 4252499 4225464 4199367 4174008 
2225.121 4148918 4125202 4104162 4087271 4075163 4066935 4060982 4056099 
2228.978 4051684 4049310 4050848 4058440 4072053 4089512 4107574 4121890 
2232.835 4130052 4131591 4128179 4122994 4118813 4117909 4120586 4126506 
2236.693 4134835 4145373 4157248 4170429 4184279 4197761 4210107 4220947 
2240.550 4231218 4242026 4254875 4270534 4288102 4306607 4324210 4340173 
2244.408 4355568 4372503 4393221 4419396 4450661 4485109 4519927 4552304 
2248.265 4580129 4603235 4621352 4634178 4640708 4639570 4629858 4612812 
2252.123 4591682 4571791 4558699 4556624 4566267 4585319 4609329 4632972 
2255.980 4652196 4665291 4672157 4674166 4672157 4666229 4656148 4641010 
2259.837 4621184 4597776 4572763 4548152 4525518 4505430 4488222 4474496 
2263.695 4465290 4462277 4466964 4479317 4497629 4518621 4538308 4553141 
2267.552 4561646 4563923 4562115 4558632 4554849 4551500 4548152 4544134 
2271.410 4539279 4534257 4530373 4528766 4530172 4534826 4542426 4552806 
2275.267 4566166 4583411 4604775 4629690 4656918 4683645 4707191 4725380 
2279.125 4738075 4746315 4752646 4759581 4769363 4782763 4800184 4820654 
2282.982 4843538 4867528 4891219 4912900 4930929 4944066 4952143 4956098 
2286.839 4958612 4961829 4967694 4976073 4985860 4994306 4998831 4998496 
2290.697 4993736 4986698 4980229 4976475 4976441 4979592 4984820 4991021 
2294.554 4998194 5006842 5017902 5031512 5046563 5060843 5071738 5077001 
2298.412 5076498 5071402 5064429 5058597 5056317 5058530 5065134 5075325 
2302.269 5087762 5101776 5116393 5131078 5144858 5156761 5165814 5171749 
2306.126 5175538 5178523 5182479 5188548 5196864 5206321 5215408 5223088 
2309.984 5228856 5233987 5240292 5250151 5265009 5285266 5309919 5337323 
2313.841 5365031 5391097 5414279 5433671 5449105 5461117 5470613 5479136 
2317.699 5488363 5499940 5515645 5535847 5561117 5591525 5626701 5665975 
2321.556 5707871 5749201 5784524 5806887 5808869 5784322 5730433 5649224 
2325.414 5547895 5436523 5326656 5228990 5150323 5093293 5055915 5034026 
2329.271 5021925 5014651 5009355 5004596 5000674 4998596 4999635 5004998 
2333.128 5015657 5032350 5054876 5082633 5113409 5144690 5174465 5201291 
2336.986 5224865 5246865 5269503 5294423 5322631 5353525 5385360 5416326 
2340.843 5444777 5470042 5492356 5511953 5528598 5541552 5549640 5552224 
2344.701 5549606 5544472 5540176 5541820 5553768 5579241 5619652 5674770 
2348.558 5742822 5820924 5905825 5993532 6080013 6161604 6235480 6300055 
2352.416 6355226 6401930 6441746 6476082 6505444 6530199 6550516 6566864 
2356.273 6580959 6594785 6610899 6631254 6656588 6686399 6719107 6752119 
2360.130 6782812 6808694 6828182 6840501 6846123 6846526 6844675 6843699 
2363.988 6846426 6854235 6866622 6880963 6893957 6902609 6905336 6903215 
2367.845 6898468 6894832 6895236 6901195 6912237 6926444 6941729 6956206 
2371.703 6969304 6981459 6993884 7007218 7022708 7040522 7061469 7085751 
2375.560 7113840 7145872 7181342 7219208 7257919 7296262 7333969 7371948 
2379.417 7411853 7455772 7505123 7559975 7618982 7680020 7740359 7798041 
2383.275 7852154 7902629 7950007 7994857 8037823 8078633 8117319 8153915 
2387.132 8188455 8221208 8252005 8280845 8306816 8329378 8348462 8364439 
2390.990 8378524 8391462 8403827 8415211 8424501 8430143 8431494 8428994 
2394.847 8424670 8421325 8422001 8428724 8442068 8461123 8484031 8509034 
2398.705 8534681 8560566 8586926 8614167 8643133 8674433 8708675 8746708 
2402.562 8789578 8838067 8892885 8953764 9019997 9090436 9163965 9240283 
2406.419 9319254 9401219 9486281 9573800 9662724 9751802 9840120 9928285 
2410.277 10017723 10110639 10208696 10312850 10421983 10533351 10643456 
2413.652 10749073 10847377 10937140 11018460 11091875 11158231 11217864 
2417.027 11270739 11316614 11355114 11385998 11409468 11426102 11436512 
2420.403 11442363 11444914 11446003 11447330 11450391 11455868 11463761 
2423.778 11473729 11485331 11498293 11513536 11532658 11558007 11591935 
2427.153 11636585 11692982 11761677 11841653 11931963 12030910 12136728 
2430.528 12247888 12362861 12480286 12599584 12720621 12843671 12969487 
2433.904 13099130 13233048 13371961 13515841 13664966 13818760 13977468 
2437.279 14140580 14307589 14478191 14651841 14828819 15009881 15196268 
2440.654 15389396 15590234 15798656 16013125 16231311 16450640 16669013 
2444.029 16885842 17101916 17318960 17538772 17762592 17990398 18221466 
2447.405 18453938 18685980 18916068 19142472 19364384 19580866 19791314 
2450.780 19995414 20193534 20386466 20575142 20760008 20941054 21117100 
2454.155 21286190 21446396 21596076 21734556 21861406 21976758 22080076 
2457.530 22170274 22245354 22303148 22342006 22361122 22360668 22341866 
2460.906 22305518 22252818 22184328 22100890 22003456 21893640 21773990 
2464.281 21647268 21516512 21384192 21252784 21125032 21003926 20893284 
2467.656 20796988 20718786 20661414 20625972 20611830 20617320 20640774 
2471.031 20680386 20735574 20806166 20892170 20992796 21106666 21231420 
2474.406 21364354 21503176 21645806 21790886 21937166 22082830 22225790 
2477.782 22363668 22493564 22613376 22721038 22815174 22894942 22959562 
2481.157 23008228 23040964 23057840 23060320 23049560 23027582 22995930 
2484.532 22955650 22907480 22852438 22791464 22726380 22659314 22592328 
2487.907 22526506 22462056 22397578 22330982 22260212 22183316 22099076 
2491.283 22007394 21908100 21801304 21687252 21565640 21436752 21300770 
2494.658 21158498 21010152 20856084 20695678 20527826 20351256 20165246 
2498.033 19969846 19766348 19556984 19344326 19130630 18917798 18706908 
2501.408 18498228 18291928 18087764 17885838 17686212 17488612 17293342 
2504.784 17100676 16911780 16728099 16551999 16385432 16229626 16085258 
2508.159 15951386 15826112 15707606 15594356 15485631 15381466 15282508 
2511.534 15189234 15102019 15020651 14944992 14874797 14809997 14750862 
2514.909 14697836 14650676 14609587 14574260 14544758 14521221 14504399 
2518.285 14495046 14493196 14498507 14509641 14524578 14541948 14560039 
2521.660 14578543 14598005 14618977 14642006 14667504 14695539 14725667 
2525.035 14757547 14790799 14824704 14858716 14891428 14921569 14947906 
2528.410 14969821 14986627 14998425 15005491 15007205 15002953 14991839 
2531.786 14972942 14946878 14914711 14879083 14842601 14807254 14773829 
2535.161 14741778 14709626 14676346 14641320 14605612 14571346 14541195 
2538.536 14517075 14499979 14489839 14485454 14485179 14487886 14492408 
2541.911 14497856 14503405 14507585 14508990 14506386 14499260 14487818 
2545.287 14473498 14458152 14443353 14430233 14419101 14409442 14400503 
2548.662 14391597 14382179 14372212 14361629 14350567 14339163 14327554 
2552.037 14316356 14306219 14297591 14291050 14286290 14282626 14278825 
2555.412 14273689 14266465 14257048 14246229 14235067 14224933 14216579 
2558.788 14210211 14205521 14201412 14196346 14188814 14177346 14161017 
2562.163 14139313 14112820 14082700 14050221 14017299 13985064 13954166 
2565.538 13924262 13894634 13864734 13834358 13804154 13775527 13750252 
2568.913 13729631 13714755 13705795 13702136 13703094 13708052 13716191 
2572.289 13727134 13739993 13754357 13769747 13786062 13803573 13823036 
2575.664 13845647 13871679 13900861 13931961 13962993 13992421 14019557 
2579.039 14044951 14070344 14098342 14130893 14169130 14212847 14260404 
2582.414 14309781 14359471 14408107 14455308 14501247 14546300 14590912 
2585.790 14635460 14680733 14727690 14777806 14832076 14891153 14954731 
2589.165 15021303 15088913 15155815 15220564 15283263 15344427 15405394 
2592.540 15467296 15530237 15593532 15655940 15715817 15772371 15824908 
2595.915 15873915 15920278 15965203 16009618 16054450 16100146 16147153 
2599.291 16195370 16245207 16296566 16349718 16404873 16462306 16522087 
2602.666 16584735 16650008 16717803 16787746 16859488 16932932 17008286 
2606.041 17086270 17167646 17252828 17342238 17435628 17532492 17631964 
2609.416 17733564 17836984 17941394 18046590 18151502 18254744 18355140 
2612.792 18451552 18543384 18631156 18715764 18798276 18879490 18959678 
2616.167 19038014 19113664 19185378 19252322 19314706 19373116 19428482 
2619.542 19481880 19534316 19585962 19637334 19688470 19739578 19790830 
2622.917 19842678 19895294 19948994 20003670 20059430 20116308 20173922 
2626.292 20232204 20290980 20349520 20407546 20464782 20521018 20576394 
2629.668 20631496 20686782 20742768 20799526 20857024 20914978 20973080 
2633.043 21030600 21087640 21144164 21199862 21255220 21310306 21365432 
2636.418 21421124 21477414 21534548 21592768 21651658 21711356 21771446 
2639.793 21831998 21893116 21955288 22018968 22084538 22152038 22221188 
2643.169 22291044 22361016 22430338 22498660 22566362 22633936 22702008 
2646.544 22771840 22843880 22918694 22996698 23078210 23162920 23250966 
2649.919 23341932 23435224 23529832 23624984 23719388 23812026 23902480 
2653.294 23990886 24077488 24163618 24250116 24338558 24429402 24522964 
2656.670 24619000 24716918 24815944 24915484 25015222 25115196 25215578 
2660.045 25316508 25417464 25517986 25617124 25713438 25806750 25896458 
2663.420 25983056 26067558 26150954 26234362 26318210 26402884 26488174 
2666.795 26573444 26658308 26742168 26824880 26906834 26988062 27069408 
2670.171 27151444 27234656 27319334 27405578 27493042 27581194 27669822 
2673.546 27758540 27847382 27936418 28025792 28115782 28206394 28297236 
2676.921 28388168 28478802 28569348 28659772 28750672 28842552 28936042 
2680.296 29031572 29129814 29231484 29337322 29448366 29565146 29688132 
2683.672 29817292 29952350 30092774 30238216 30388436 30543398 30703678 
2687.047 30869390 31040716 31217452 31399030 31584930 31774790 31968336 
2690.422 32165750 32367360 32572850 32782118 32994740 33210576 33429456 
2693.797 33651668 33877680 34107972 34342656 34581656 34824384 35070480 
2697.173 35319228 35571144 35826372 36085492 36348980 36616884 36888996 
2700.548 37164272 37441960 37721272 38001272 38281704 38561920 38841668 
2703.923 39120396 39397636 39672364 39943856 40210532 40471084 40723200 
2707.298 40965308 41195744 41413656 41618876 41812084 41994316 42166508 
2710.674 42329460 42483264 42627944 42763096 42888740 43005096 43111932 
2714.049 43209536 43297276 43374228 43439260 43491080 43529028 43552576 
2717.424 43562360 43558732 43543020 43516352 43479948 43435492 43384812 
2720.799 43330260 43274576 43220552 43171108 43128876 43095980 43074172 
2724.175 43064768 43068392 43084932 43114016 43155260 43208000 43271648 
2727.550 43346952 43434320 43534264 43647388 43773180 43910776 44058464 
2730.925 44214348 44376708 44544196 44715424 44889472 45065392 45241716 
2734.300 45416788 45589200 45757712 45921720 46080960 46235728 46385688 
2737.676 46530608 46670188 46803800 46931616 47054264 47173148 47289548 
2741.051 47405312 47521224 47638380 47756940 47877452 48000816 48127880 
2744.426 48260048 48398448 48543816 48696388 48856168 49022132 49193168 
2747.801 49367456 49542380 49715180 49882064 50040016 50185900 50317880 
2751.177 50435424 50538704 50628572 50706128 50772084 50826760 50871048 
2754.552 50905620 50931140 50948276 50957108 50956812 50945224 50919816 
2757.927 50877716 50817040 50736816 50636688 50517524 50379864 50224280 
2761.302 50050724 49859952 49652508 49430316 49196356 48953588 48705284 
2764.677 48454160 48202436 47951712 47703868 47460788 47225044 46999288 
2768.053 46785860 46587076 46403828 46236872 46086452 45952768 45836248 
2771.428 45737020 45654972 45589460 45538900 45501548 45475280 45457952 
2774.803 45448020 45443456 45442536 45443276 45443308 45439776 45430432 
2778.178 45412960 45385408 45346272 45293716 45226860 45144540 45046684 
2781.554 44934448 44810264 44677632 44540712 44403100 44268132 44137388 
2784.929 44011896 43892152 43777868 43669000 43565144 43465336 43367712 
2788.304 43269420 43167444 43058732 42941228 42814652 42679996 42539388 
2791.679 42395320 42250280 42106272 41964644 41826568 41693420 41566732 
2795.055 41447736 41337992 41238408 41149152 41070368 41001648 40942732 
2798.430 40894020 40856048 40829768 40816116 40815460 40827804 40852192 
2801.805 40887324 40931480 40982460 41038572 41097940 41160008 41223868 
2805.180 41289528 41357236 41426884 41498044 41570052 41641596 41711072 
2808.556 41776588 41836420 41888596 41931652 41964060 41984280 41991324 
2811.931 41984608 41964096 41930412 41884760 41828172 41761704 41686164 
2815.306 41602140 41510584 41413216 41312448 41211920 41116004 41029068 
2818.681 40955440 40899044 40862860 40849024 40859328 40894640 40954968 
2822.057 41040068 41147984 41276008 41420912 41578912 41745872 41918332 
2825.432 42092468 42264996 42432400 42591360 42738488 42870788 42986108 
2828.807 43082404 43159652 43217952 43258072 43281464 43289880 43284936 
2832.182 43268540 43242184 43207560 43166020 43118776 43067148 43012120 
2835.558 42955384 42897812 42840508 42784376 42729496 42675864 42623668 
2838.933 42572976 42524808 42480632 42442416 42412420 42392840 42386008 
2842.308 42393676 42418300 42462328 42529340 42623120 42747924 42907028 
2845.683 43102200 43332492 43593532 43877416 44171908 44461968 44730740 
2849.059 44960464 45135312 45243444 45277752 45237452 45127996 44960024 
2852.434 44746864 44503852 44246300 43986560 43735580 43501228 43288488 
2855.809 43100224 42937388 42799112 42683252 42586680 42505696 42436200 
2859.184 42374572 42317480 42262112 42206348 42148584 42087836 42023664 
2862.560 41955592 41883924 41808836 41731100 41651624 41572712 41496768 
2865.935 41428088 41371124 41330996 41312812 41320428 41356944 41423388 
2869.310 41519520 41643600 41791832 41959864 42141280 42329132 42515784 
2872.685 42693412 42856196 42999648 43122252 43224872 43310308 43382544 
2876.061 43445228 43501924 43554740 43605620 43655884 43707000 43760388 
2879.436 43818144 43881708 43952424 44031256 44118720 44214972 44319572 
2882.811 44431580 44549300 44669444 44787528 44898292 44995780 45074952 
2886.186 45132076 45165824 45177372 45170532 45151192 45126268 45103988 
2889.562 45092632 45100056 45134280 45204024 45317472 45484956 45718688 
2892.937 46032368 46442984 46969308 47629876 48443008 49421144 50567664 
2896.312 51871736 53305360 54820040 56343980 57793680 59074488 60091616 
2899.687 60769988 61057012 60934540 60419584 59561620 58434464 57118052 
2903.063 55697756 54248832 52829568 51485948 50248052 49132832 48149420 
2906.438 47299856 46582132 45991444 45521972 45167556 44922104 44781504 
2909.813 44741136 44796672 44942424 45169796 45466340 45817176 46203596 
2913.188 46605040 47001908 47374900 47707528 47987232 48205728 48358888 
2916.563 48446936 48473644 48445084 48368480 48251940 48102964 47929216 
2919.939 47738004 47536524 47331740 47130744 46939332 46762908 46605888 
2923.314 46471564 46363308 46284384 46237428 46225672 46251320 46315420 
2926.689 46417360 46554724 46723392 46917552 47130264 47353984 47580256 
2930.064 47800436 48006368 48189736 48343480 48461568 48538628 48570976 
2933.440 48555228 48489056 48371332 48202100 47983312 47719180 47416436 
2936.815 47083808 46731360 46370644 46013692 45671532 45355100 45073628 
2940.190 44834252 44642232 44499740 44406400 44359060 44351720 44376344 
2943.565 44421708 44475296 44522500 44547064 44533996 44469384 44343240 
2946.941 44150740 43893728 43579908 43221724 42834984 42436748 42041764 
2950.316 41662788 41308876 40984748 40692488 40431624 40200136 39995584 
2953.691 39815604 39658172 39521840 39405508 39308320 39228892 39165828 
2957.066 39117136 39080876 39055500 39039840 39033388 39036612 39049556 
2960.442 39072212 39104588 39145740 39194948 39251740 39315684 39386968 
2963.817 39465628 39551640 39644668 39744180 39849704 39961252 40079588 
2967.192 40205952 40342172 40489816 40650064 40823980 41012316 41216184 
2970.567 41436728 41675768 41934716 42214124 42513004 42828400 43155404 
2973.943 43486576 43812612 44123048 44405556 44647300 44836240 44961272 
2977.318 45015664 44997104 44909092 44760492 44564464 44337260 44094516 
2980.693 43851464 43620424 43410260 43226736 43072344 42946312 42845184 
2984.068 42762364 42690048 42618844 42539536 42445008 42330264 42193564 
2987.444 42036252 41861776 41674420 41478432 41276812 41070112 40857396 
2990.819 40635872 40402456 40154380 39890604 39612468 39323848 39030780 
2994.194 38739864 38457360 38187740 37933112 37692760 37464140 37243828 
2997.569 37028180 36814476 36601060 36387420 36173528 35959888 35747176 
3000.945 35536152 35327856 35123752 34925168 34733276 34548828 34372096 
3004.320 34202532 34039416 33882232 33730732 33584932 33445668 33313706 
3007.695 33189654 33073862 32966212 32866382 32773830 32687940 32607782 
3011.070 32532460 32460724 32391458 32323562 32256320 32189444 32123294 
3014.446 32058366 31995550 31935454 31879074 31826556 31778142 31733726 
3017.821 31692982 31655454 31620778 31588562 31558916 31531978 31508322 
3021.196 31488228 31472412 31460870 31453568 31450502 31451608 31457484 
3024.571 31469170 31488158 31515874 31553288 31601034 31658374 31723992 
3027.947 31795968 31871624 31948258 32022514 32091006 32150660 32198224 
3031.322 32231658 32249752 32253000 32242402 32220100 32188374 32149338 
3034.697 32105024 32057400 32008570 31960774 31916306 31876936 31843882 
3038.072 31817570 31797178 31781812 31770512 31762492 31757642 31756218 
3041.448 31758428 31764164 31773220 31785198 31799496 31816214 31835362 
3044.823 31857398 31882464 31910456 31940698 31972758 32006036 32040778 
3048.198 32077554 32117084 32159936 32206036 32254856 32305002 32355726 
3051.573 32406312 32456614 32507248 32558888 32611784 32665934 32720986 
3054.948 32776472 32832362 32889076 32947302 33007718 33070750 33136010 
3058.324 33202994 33270598 33338570 33407126 33476836 33548996 33624204 
3061.699 33702760 33784376 33868620 33954600 34042208 34131664 34223720 
3065.074 34319020 34418180 34521204 34627764 34736976 34847824 34959284 
3068.449 35069544 35177460 35281312 35379468 35471032 35555536 35633396 
3071.825 35705804 35774448 35840868 35906436 35972016 36038108 36104644 
3075.200 36171408 36238356 36305460 36372936 36441004 36510012 36580764 
3078.575 36653728 36729444 36807768 36888200 36969620 37050732 37130200 
3081.950 37207368 37282280 37355900 37429392 37504088 37580924 37660020 
3085.326 37741044 37823600 37907328 37992668 38080444 38171820 38268028 
3088.701 38369576 38476436 38587956 38703164 38820980 38940272 39060432 
3092.076 39180660 39300272 39418424 39534360 39647536 39757688 39865396 
3095.451 39971824 40078244 40186468 40298140 40413912 40534116 40658064 
3098.827 40784744 40912512 41040176 41166676 41291712 41415624 41539240 
3102.202 41663624 41789464 41917240 42046728 42177504 42308532 42439052 
3105.577 42567968 42694876 42819076 42940788 43060376 43178644 43297056 
3108.952 43416924 43539796 43666144 43795972 43928372 44062024 44195384 
3112.328 44327428 44458044 44587524 44716564 44845676 44975016 45104100 
3115.703 45232376 45359440 45485400 45611392 45738680 45868392 46001464 
3119.078 46137480 46275720 46414484 46552512 46688856 46823136 46955904 
3122.453 47087796 47219616 47351508 47483888 47616196 47748288 47879824 
3125.829 48010772 48141392 48272156 48403928 48537516 48673260 48811456 
3129.204 48951212 49091392 49230272 49366492 49499004 49628140 49754936 
3132.579 49881544 50009788 50141528 50277292 50416816 50559140 50702816 
3135.954 50846464 50989412 51130956 51271016 51409520 51546684 51682772 
3139.330 51818496 51954748 52092124 52231372 52372460 52514680 52657136 
3142.705 52798776 52939296 53078820 53217936 53358036 53499980 53644068 
3146.080 53789964 53936740 54083488 54229048 54372812 54514448 54653764 
3149.455 54790756 54925608 55058816 55191760 55325868 55462884 55604164 
3152.831 55749968 55899516 56050928 56201936 56350316 56494792 56635232 
3156.206 56772512 56908172 57043836 57180372 57318352 57457624 57597964 
3159.581 57738424 57878888 58019060 58158784 58298024 58436776 58575308 
3162.956 58713884 58852200 58990104 59126840 59261644 59393788 59523316 
3166.332 59650788 59777352 59904596 60033632 60164680 60297176 60429564 
3169.707 60560124 60687372 60810424 60929544 61045424 61159268 61271960 
3173.082 61384460 61496828 61609148 61720932 61831364 61939416 62044016 
3176.457 62144212 62239876 62331624 62421096 62510580 62602504 62698304 
3179.833 62798268 62901312 63005232 63107984 63207612 63303896 63397176 
3183.208 63488588 63579300 63670100 63760996 63851720 63941276 64029276 
3186.583 64115404 64199484 64281732 64362348 64441748 64520696 64599580 
3189.958 64679296 64760364 64842640 64925516 65007976 65089108 65168568 
3193.333 65246688 65324092 65401696 65479664 65557264 65633140 65705292 
3196.709 65772676 65835132 65894208 65951868 66010112 66070520 66133484 
3200.084 66198156 66263332 66328064 66391528 66453888 66515280 66575960 
3203.459 66635632 66694392 66752040 66809112 66866816 66925868 66986792 
3206.834 67048928 67110520 67169192 67223344 67272120 67316304 67357776 
3210.210 67398912 67441136 67484824 67529064 67572736 67614696 67655080 
3213.585 67695200 67736824 67781720 67830552 67882888 67936776 67990480 
3216.960 68042216 68091208 68137600 68182368 68226688 68271584 68317968 
3220.335 68366128 68416392 68468720 68522952 68578560 68634784 68691136 
3223.711 68746680 68801256 68855184 68908688 68962320 69015760 69068784 
3227.086 69120992 69171976 69222136 69272192 69323336 69376584 69432728 
3230.461 69491672 69553032 69616120 69680840 69747088 69815072 69884728 
3233.836 69955600 70026648 70096888 70165416 70232328 70298200 70364512 
3237.212 70432000 70501168 70571792 70642712 70712816 70782112 70850872 
3240.587 70920384 70991512 71064520 71138400 71211312 71281392 71347344 
3243.962 71409672 71470288 71532008 71598160 71670680 71750880 71837736 
3247.337 71929928 72025112 72121336 72216768 72310056 72400312 72486440 
3250.713 72568200 72645736 72719896 72791704 72862232 72932496 73002856 
3254.088 73073424 73143840 73213680 73282832 73351048 73418096 73483464 
3257.463 73546264 73605688 73660808 73711608 73758528 73802832 73845944 
3260.838 73888800 73932088 73975656 74018840 74060760 74100800 74138496 
3264.214 74173824 74206688 74237264 74265688 74292312 74317160 74341056 
3267.589 74364224 74387544 74410856 74434296 74457464 74479960 74501320 
3270.964 74520832 74538376 74553448 74565992 74576496 74585664 74595024 
3274.339 74606120 74620168 74637832 74658608 74681152 74703664 74724680 
3277.715 74743568 74761120 74778600 74797688 74819776 74845048 74873152 
3281.090 74902840 74933624 74965368 74998832 75035376 75075912 75121128 
3284.465 75170920 75224544 75281120 75340352 75402192 75466640 75533976 
3287.840 75603816 75675472 75748408 75822416 75897976 75976752 76060352 
3291.216 76150600 76248536 76354392 76467704 76587800 76714176 76846600 
3294.591 76985352 77130208 77280808 77436264 77595288 77756912 77920616 
3297.966 78086680 78255872 78429168 78607544 78791360 78981160 79176536 
3301.341 79377776 79584672 79797568 80015896 80239840 80468728 80702560 
3304.717 80941264 81185544 81435864 81693136 81957328 82228232 82505088 
3308.092 82787048 83073792 83365192 83661496 83962776 84268368 84577400 
3311.467 84888712 85201648 85516232 85833696 86156000 86484336 86819504 
3314.842 87160736 87505672 87851944 88197552 88541400 88883576 89224520 
3318.218 89565112 89905120 90243720 90579608 90911712 91239320 91562600 
3321.593 91882184 92198488 92511616 92821488 93127632 93430176 93729184 
3324.968 94025024 94317656 94606448 94889608 95164792 95430080 95684088 
3328.343 95926464 96157528 96377624 96586416 96782800 96964768 97130704 
3331.719 97279824 97412240 97529104 97631192 97718320 97789448 97842168 
3335.094 97874120 97884376 97873744 97844568 97799624 97741232 97669864 
3338.469 97584192 97481240 97357720 97210976 97039912 96844328 96625064 
3341.844 96383136 96119328 95834288 95528128 95201176 94853536 94485088 
3345.219 94095472 93684288 93251320 92797232 92324000 91834536 91332704 
3348.595 90821520 90303312 89778912 89247832 88709224 88163048 87609808 
3351.970 87051408 86489800 85927056 85364312 84802344 84241336 83682104 
3355.345 83125960 82575488 82033440 81502136 80983312 80477976 79985704 
3358.720 79506160 79039472 78585504 78145072 77718952 77306824 76908496 
3362.096 76522744 76147768 75782016 75424184 75073312 74729440 74393240 
3365.471 74066184 73749808 73446424 73156904 72881320 72618712 72366488 
3368.846 72121184 71879840 71640000 71400648 71161736 70923544 70686536 
3372.221 70449808 70211496 69969232 69720600 69463872 69198352 68923680 
3375.597 68639944 68346584 68042296 67725520 67394808 67049040 66688248 
3378.972 66313208 65924408 65522356 65106280 64674988 64226680 63760072 
3382.347 63274616 62771008 62250888 61716916 61172200 60619968 60063420 
3385.722 59505192 58947412 58391100 57836792 57284212 56732864 56182288 
3389.098 55632444 55083940 54537516 53994028 53454144 52918824 52388348 
3392.473 51863936 51346792 50837896 50338156 49846908 49362708 48883016 
3395.848 48405296 47927588 47449772 46973296 46500736 46034872 45577684 
3399.223 45129280 44688100 44251876 43818184 43385176 42952680 42521188 
3402.599 42091852 41665772 41242960 40822888 40404564 39987048 39569928 
3405.974 39153608 38739028 38327340 37919912 37517848 37121756 36732148 
3409.349 36349016 35972016 35600488 35233408 34870408 34510944 34155536 
3412.724 33804896 33460374 33122990 32793660 32472790 32160006 31854934 
3416.100 31557276 31266480 30982604 30704532 30431540 30161778 29893600 
3419.475 29625730 29357672 29090062 28824352 28562412 28305512 28053782 
3422.850 27806544 27562340 27320180 27079214 26839718 26603316 26371582 
3426.225 26146130 25927584 25715828 25509728 25307796 25108420 24910536 
3429.601 24713478 24517038 24321246 24126418 23933114 23741468 23551832 
3432.976 23364310 23179100 22996104 22815804 22638126 22463590 22292334 
3436.351 22124458 21959296 21796182 21633686 21470486 21306094 21140164 
3439.726 20973218 20806374 20640810 20477112 20315804 20156534 19998988 
3443.102 19842852 19687846 19533658 19380010 19226312 19071838 18915966 
3446.477 18759248 18602348 18447508 18297250 18153434 18017406 17889014 
3449.852 17766734 17648356 17531768 17415210 17297582 17178642 17058012 
3453.227 16935896 16812026 16686194 16558917 16431266 16304031 16179068 
3456.603 16057612 15940076 15826283 15715441 15606205 15497581 15388572 
3459.978 15278973 15168681 15057697 14946432 14835504 14725531 14617914 
3463.353 14513717 14413724 14317965 14225754 14136199 14047654 13959743 
3466.728 13871918 13784727 13698580 13614056 13530813 13448133 13365127 
3470.104 13281454 13197183 13113439 13031795 12953238 12878279 12805995 
3473.479 12735190 12664158 12591671 12517490 12442709 12368316 12295878 
3476.854 12226213 12159694 12096421 12035338 11976205 11918170 11860960 
3480.229 11804165 11747958 11692268 11638287 11586932 11539701 11497783 
3483.604 11461345 11429301 11400556 11372460 11343686 11313350 11282097 
3486.980 11251560 11223440 11199368 11180023 11165200 11154049 11145856 
3490.355 11140144 11136949 11136813 11140008 11146604 11156122 11167987 
3493.730 11181825 11197702 11216266 11238742 11265740 11298250 11336578 
3497.105 11380726 11430423 11485739 11546268 11611979 11682601 11757353 
3500.481 11835967 11918306 12004681 12096932 12196769 12306513 12427946 
3503.856 12561929 12708100 12865275 13032204 13206678 13386996 13571560 
3507.231 13758495 13946160 14133392 14319643 14505118 14691769 14881141 
3510.606 15075431 15275987 15483022 15695721 15912991 16133191 16354948 
3513.982 16577093 16797940 17015832 17228454 17433940 17630584 17817996 
3517.357 17997166 18169018 18334748 18493490 18643298 18779696 18898176 
3520.732 18994570 19066092 19111620 19132222 19128968 19102998 19055150 
3524.107 18984496 18890354 18771842 18628770 18461718 18272332 18063032 
3527.483 17836536 17595664 17342960 17080582 16809684 16531002 16245071 
3530.858 15952623 15655151 15354278 15052140 14750039 14447978 14144312 
3534.233 13836685 13523053 13202579 12877221 12551322 12230746 11921303 
3537.608 11626885 11348686 11085416 10834026 10591133 10354552 10123153 
3540.984 9897538 9677733 9464168 9256056 9051629 8848821 8646141 8442507 
3544.841 8238025 8033773 7831843 7634426 7444446 7264185 7095989 6940551 
3548.698 6797486 6663956 6536052 6408622 6276826 6137542 5990038 5836036 
3552.556 5680007 5526585 5380764 5245490 5122394 5010897 4909985 4817036 
3556.413 4729935 4646703 4565228 4484271 4402727 4320260 4237074 4153435 
3560.271 4069845 3986873 3905121 3825089 3747645 3673223 3601820 3532166 
3564.128 3461754 3386713 3302836 3207060 3098823 2981272 2861184 2747265 
3567.986 2646877 2564577 2500221 2450236 2408686 2370072 2330195 2286758 
3571.843 2239262 2188141 2134329 2078494 2020801 1961385 1900779 1839815 
3575.700 1779692 1721939 1667220 1616599 1569808 1526879 1487280 1450376 
3579.558 1415304 1381099 1346631 1311169 1275012 1238990 1204999 1174830 
3583.415 1149216 1127323 1106029 1080817 1045875 997186 932829 855202 770320 
3587.755 686715 613147 556113 517995 497925 491656 493712 497925 498555 
3592.094 490959 472251 441536 400609 352821 302884 255405 213734 178960 
3596.434 150255 126192 104451 83505 62859 42645 23592 6428 -8018 -19780 
3601.256 -28262 -33397 -35253 -33199 -27964 -19581 -9476 596 8548 11895 8117 
3606.560 -5235 -29554 -65269 -110256 -160604 -210515 -254229 -287706 -310057 
3610.899 -323102 -331214 -339590 -352171 -370578 -393553 -417553 -438539 
3614.757 -453633 -462602 -467766 -473392 -483951 -503047 -532137 -570094 
3618.614 -613010 -655658 -693041 -720994 -737864 -743983 -742032 -734325 
3622.472 -723938 -712823 -701576 -689468 -675111 -656948 -635344 -613010 
3626.329 -595242 -589849 -605466 -647023 -713353 -794489 -874388 -936384 
3630.187 -971099 -978207 -965049 -941906 -918100 -900477 -891748 -891152 
3634.044 -895517 -901502 -907288 -912777 -919886 -930631 -946138 -965512 
3637.901 -986438 -1005546 -1020686 -1030438 -1035594 -1037677 -1038900 
3641.277 -1039891 -1040255 -1037875 -1030272 -1015628 -993348 -965413 
3644.652 -935426 -909107 -891880 -888838 -903420 -936384 -985546 -1046601 
3648.509 -1113465 -1179889 -1239463 -1286542 -1316109 -1324235 -1309733 
3651.885 -1273856 -1221324 -1159335 -1097172 -1044684 -1010703 -1000951 
3655.260 -1016951 -1053675 -1100972 -1147339 -1182764 -1202457 -1206819 
3658.635 -1199913 -1186960 -1172289 -1158707 -1147141 -1137425 -1129031 
3662.010 -1121595 -1114820 -1108409 -1101766 -1093866 -1083422 -1069673 
3665.385 -1052485 -1033313 -1013909 -997844 -989050 -990868 -1006505 
3668.761 -1036751 -1078828 -1125297 -1164854 -1185705 -1179327 -1143539 
3672.136 -1082761 -1007364 -931524 -869361 -834573 -835565 -872205 -933640 
3675.993 -1003067 -1064715 -1110292 -1140498 -1161186 -1178964 -1198096 
3679.369 -1218615 -1237547 -1251225 -1257205 -1255421 -1248450 -1239166 
3682.744 -1229386 -1219078 -1205497 -1185573 -1157947 -1123975 -1088545 
3686.119 -1058633 -1041842 -1043230 -1064219 -1100047 -1142911 -1183953 
3689.494 -1216500 -1238737 -1252580 -1261401 -1268207 -1274088 -1278647 
3692.870 -1280232 -1278085 -1271610 -1261599 -1249012 -1235499 -1221754 
3696.245 -1208636 -1196543 -1186233 -1178336 -1174304 -1175197 -1182169 
3699.620 -1195684 -1215410 -1239298 -1265168 -1289582 -1308742 -1320304 
3702.995 -1322253 -1314523 -1297807 -1273988 -1244981 -1213130 -1180021 
3706.371 -1147042 -1115283 -1085901 -1060253 -1040156 -1027991 -1026702 
3709.746 -1038701 -1065442 -1106525 -1158872 -1216335 -1270487 -1313532 
3713.121 -1338835 -1343063 -1327307 -1295561 -1254034 -1209661 -1169183 
3716.496 -1137491 -1117134 -1108276 -1108673 -1115118 -1124107 -1133426 
3719.872 -1142349 -1151272 -1160987 -1171661 -1183458 -1195221 -1205894 
3723.247 -1214980 -1222514 -1228990 -1235598 -1242107 -1247360 -1249012 
3726.622 -1243792 -1228560 -1202491 -1166308 -1123545 -1079291 -1039429 
3729.997 -1009678 -994240 -994604 -1009050 -1033379 -1061575 -1089008 
3733.373 -1113796 -1137293 -1162805 -1192677 -1226545 -1259551 -1284527 
3736.748 -1294074 -1285089 -1258659 -1220300 -1176155 -1132104 -1091388 
3740.123 -1053774 -1018967 -986538 -959528 -944286 -950667 -987199 -1057046 
3743.980 -1150809 -1246963 -1317991 -1344517 -1323607 -1266522 -1191586 
3747.356 -1116638 -1057245 -1022438 -1014538 -1029776 -1059559 -1095255 
3750.731 -1129593 -1159632 -1184019 -1201301 -1209264 -1205431 -1188513 
3754.106 -1160260 -1124636 -1087389 -1053840 -1027991 -1011430 -1003695 
3757.481 -1003265 -1008786 -1019794 -1036520 -1058236 -1082497 -1104178 
3760.857 -1117497 -1117927 -1104277 -1079721 -1050370 -1024190 -1007100 
3764.232 -1002075 -1007463 -1018438 -1028520 -1033115 -1031297 -1025843 
3767.607 -1021744 -1023463 -1033446 -1050832 -1071491 -1089933 -1101303 
3770.982 -1102856 -1094957 -1079721 -1060451 -1040189 -1021380 -1005579 
3774.358 -993447 -985149 -980389 -978174 -978372 -980918 -986273 -995463 
3778.215 -1008786 -1026206 -1045940 -1064880 -1079489 -1086794 -1085604 
3781.590 -1076614 -1062666 -1046668 -1031793 -1019727 -1010967 -1004984 
3784.966 -1000951 -998141 -996455 -996356 -998042 -1001546 -1006306 -1010967 
3788.823 -1014538 -1016587 -1017149 -1016554 -1015033 -1012521 -1008653 
3792.198 -1003100 -996455 -990306 -987529 -991232 -1003430 -1023926 -1049642 
3796.056 -1074895 -1092776 -1098130 -1089306 -1069177 -1043924 -1022240 
3799.431 -1012885 -1022438 -1052683 -1098758 -1150446 -1192545 -1212370 
3802.806 -1204407 -1171297 -1121529 -1067359 -1022108 -996257 -996554 
3806.181 -1023165 -1068615 -1120240 -1163201 -1187489 -1190199 -1174866 
3809.557 -1148132 -1117001 -1086926 -1059658 -1034735 -1010670 -986207 
3812.932 -962669 -943559 -933376 -936847 -955230 -984719 -1016190 -1038272 
3816.789 -1041709 -1023364 -987000 -941939 -900378 -873858 -871643 -897104 
3820.647 -946336 -1007563 -1064153 -1102955 -1116737 -1107285 -1082133 
3824.022 -1050998 -1022934 -1003893 -996092 -997447 -1004092 -1010174 
3827.397 -1012191 -1008786 -1001546 -993645 -988224 -987265 -990703 -996753 
3831.255 -1001877 -1002703 -996819 -982868 -961412 -934500 -905205 -876868 
3835.112 -853389 -838673 -835267 -844990 -866253 -895980 -928251 -957147 
3838.969 -977810 -988191 -989315 -983628 -975231 -967793 -964421 -966999 
3842.827 -975893 -990306 -1007860 -1025644 -1040057 -1048089 -1048254 
3846.202 -1039627 -1022802 -999596 -971330 -939261 -903883 -865592 -825081 
3850.060 -784865 -750566 -729594 -731546 -765020 -833184 -929871 -1036850 
3853.917 -1131179 -1193767 -1216699 -1203845 -1166109 -1115746 -1062104 
3857.292 -1012257 -970471 -937707 -914563 -900510 -894161 -893864 -897402 
3861.150 -902692 -907652 -912149 -916943 -923920 -934963 -949510 -964024 
3865.007 -973049 -970372 -951857 -918696 -876405 -834738 -804312 -793960 
3868.865 -807884 -842609 -887383 -928119 -953676 -959825 -950171 -933012 
3872.722 -918431 -913339 -920250 -936120 -954106 -966504 -967528 -955759 
3876.579 -933640 -907090 -882059 -864566 -858581 -865062 -882059 -904445 
3880.437 -925176 -937674 -937145 -922366 -896178 -864765 -835565 -816185 
3884.294 -812779 -826735 -854018 -885366 -909768 -917836 -905999 -877066 
3888.152 -838673 -800178 -770709 -757379 -762671 -784666 -817111 -851736 
3892.009 -880571 -898460 -903552 -897270 -881927 -860367 -835300 -808909 
3895.866 -783112 -760389 -742395 -731116 -727213 -730157 -737897 -747622 
3899.724 -756552 -762671 -765615 -766475 -767732 -771503 -779077 -790454 
3903.581 -804147 -817243 -827165 -831795 -830571 -823990 -813969 -802361 
3907.439 -790884 -781160 -773388 -767831 -763697 -760389 -756718 -751855 
3911.296 -744942 -735416 -723078 -708126 -691552 -674780 -659892 -648578 
3915.154 -642887 -643582 -650298 -661911 -675971 -690031 -701874 -709846 
3919.011 -712823 -710971 -704156 -692876 -678353 -662241 -646758 -634980 
3922.868 -629487 -631671 -641564 -657014 -674284 -689204 -697838 -698632 
3926.726 -692049 -680305 -666410 -653375 -643218 -636535 -633127 -632234 
3930.583 -632962 -635311 -639016 -644045 -649769 -654930 -658238 -658040 
3934.441 -654202 -646990 -637726 -627965 -618966 -611290 -604937 -599014 
3938.298 -592628 -585613 -578433 -571914 -567612 -567050 -570623 -578333 
3942.156 -588823 -599941 -609503 -615393 -616121 -611720 -603018 -591867 
3946.013 -580484 -570822 -564568 -561788 -561722 -563178 -564171 -563575 
3949.870 -560895 -556593 -551861 -547294 -544183 -542396 -541668 -541337 
3953.728 -541304 -541238 -541106 -541039 -540212 -537829 -533196 -525386 
3957.585 -514730 -502352 -490040 -479913 -473723 -471638 -473558 -477430 
3961.443 -481568 -483587 -482395 -477133 -468229 -456612 -443372 -429800 
3965.300 -417354 -406695 -398187 -391798 -386767 -382231 -377100 -371042 
3969.157 -363659 -355680 -347668 -340616 -335286 -331776 -330386 -330949 
3973.015 -333068 -336643 -341047 -345218 -347701 -346774 -340782 -329095 
3976.872 -312374 -292574 -272508 -254990 -242341 -235121 -232406 -232273 
3980.730 -231975 -230054 -225782 -219821 -214191 -210416 -210184 -214059 
3984.587 -221676 -231512 -241744 -250619 -256812 -259461 -258103 -253666 
3988.445 -246612 -238433 -230319 -223530 -218993 -217039 -217371 -219755 
3992.302 -223696 -228730 -234360 -240718 -247440 -254394 -261216 -267176 
3996.159 -272011 -275322 -276978 -277243 -276779 -275918 -274991 -274627 
4000.017 -275091 -276481 
##END=
