
##TITLE=Z295_3_e
##JCAMP-DX=5.01  $$ Nicolet v. 1
##DATATYPE=INFRARED SPECTRUM
##ORIGIN=UniL
##OWNER=Nicolet
##LONGDATE=2011/09/09
##TIME=15:32:12
##SPECTROMETER/DATA SYSTEM=Nicolet iS5
##DATA PROCESSING=
Ratio against background
%Transmittance->Absorbance
Truncated
ElementMultiply or ElementDivide
##COMMENTS=
Number of sample scans: 32
Collection length: 51.20 sec
Sample gain: 2.0
Background collected on: Ven Sep 09 15:21:08 2011 (GMT+02:00);
Number of background scans: 32
Background gain: 2.0
Sample spacing:  1.000
Number of scan points: 12415
Resolution points: 8192
Number of FFT points: 65536
Apodization: N-B fort;
Phase correction: Mertz;
Laser frequency: 15798.0 cm-1
Number of rejected sample scans: 0
Number of rejected background scans: 0
Bench serial number: ASB1000141;
##RESOLUTION=4.000
##XUNITS=1/CM
##YUNITS=ABSORBANCE
##FIRSTX=649.893372
##LASTX=4000.122314
##FIRSTY=0.109300
##MAXX=4000.122314
##MINX=649.893372
##MAXY=0.303992
##MINY=-0.002250
##XFACTOR=1.000000
##YFACTOR=1.000000E-009
##NPOINTS=6950
##DELTAX=0.482117
##ZPD=6100
##XYDATA=(X++(Y..Y))
649.893 109299896 108214840 107174600 106203688 105303312 104466400 
652.786 103689656 102984344 102376768 101898008 101566904 101383496 
655.679 101323160 101349520 101428192 101538984 101679576 101859672 
658.571 102086376 102355880 102651448 102951504 103243232 103531968 
661.464 103841504 104202152 104640784 105164824 105760056 106395880 
664.357 107039336 107663712 108247664 108773360 109217872 109549824 
667.250 109744824 109808656 109798704 109796920 109872136 110044704 
670.142 110287584 110545184 110756360 110875888 110882472 110787232 
673.035 110626048 110442880 110268328 110106568 109936584 109726616 
675.928 109452104 109105448 108697896 108249616 107777512 107284576 
678.820 106763264 106202256 105596912 104954832 104292840 103626136 
681.713 102960824 102289408 101597096 100869808 100106552 99319816 98532840 
685.088 97768200 97037144 96337912 95659928 94993264 94337536 93705088 
688.463 93115400 92586944 92126880 91727376 91369952 91035824 90714328 
691.838 90408160 90132352 89906136 89746408 89661224 89651616 89715528 
695.212 89854384 90074856 90387600 90801224 91317856 91929152 92621224 
698.587 93377336 94187040 95048608 95967048 96947128 97987912 99076416 
701.962 100191008 101306712 102402144 103465688 104495224 105491672 
704.855 106453376 107371848 108232360 109021616 109734256 110376096 
707.747 110961912 111509104 112029328 112523736 112987488 113416720 
710.640 113817232 114210176 114626376 115096104 115637896 116247752 
713.533 116897656 117541328 118130408 118623496 118995752 119242000 
716.425 119372608 119410168 119384784 119337456 119319832 119389792 
719.318 119611304 120040672 120710896 121623264 122737072 123974592 
722.211 125221264 126350328 127241912 127795160 127956616 127727704 
725.104 127170976 126394256 125534576 124731720 124087320 123658912 
727.996 123450872 123428160 123534536 123716048 123938184 124187024 
730.889 124464560 124776016 125120608 125487432 125860480 126225528 
733.782 126577272 126920520 127265840 127620920 127985360 128350776 
736.674 128706512 129046928 129376472 129708528 130058232 130434064 
739.567 130832272 131236968 131628288 131993456 132331832 132656096 
742.460 132984232 133330512 133696480 134072560 134441008 134788432 
745.352 135111536 135418704 135722896 136034592 136353904 136671008 
748.245 136972000 137247744 137500416 137743504 137995072 138266752 
751.138 138558224 138855456 139138656 139391104 139608288 139798304 
754.031 139977856 140162592 140358768 140562432 140763392 140952704 
756.923 141128080 141296400 141467728 141650384 141844816 142044656 
759.816 142241168 142430240 142616160 142810688 143025920 143267520 
762.709 143530528 143802544 144070416 144330976 144596640 144896288 
765.601 145268240 145747024 146356624 147100000 147957216 148882144 
768.494 149806656 150648944 151315936 151728608 151842080 151666480 
771.387 151276224 150801872 150405408 150218160 150306304 150633136 
774.279 151068896 151412000 151448448 151024784 150073536 148630000 
777.172 146796368 144702928 142452688 140091216 137608976 134958432 
780.065 132087544 128961664 125583336 121988272 118240984 114416376 
782.958 110591424 106842880 103235840 99825464 96655824 93752376 91126096 
786.332 88773528 86682184 84834848 83216360 81815656 80626840 79646168 
789.707 78871560 78299360 77924984 77745656 77761392 77976048 78397656 
793.082 79033984 79889752 80960672 82229432 83664344 85217856 86822464 
796.457 88401872 89869056 91136808 92138056 92836256 93243016 93420064 
799.832 93480256 93566360 93812160 94325768 95146312 96227456 97424272 
803.206 98513344 99236568 99327600 98593784 96955736 94472280 91328616 
806.581 87796096 84179592 80723032 77579680 74787064 72281600 69937264 
809.956 67616056 65223044 62721772 60142532 57557032 55057124 52723160 
813.331 50604672 48724004 47076644 45644592 44403648 43330660 42405148 
816.706 41607500 40919652 40325736 39812988 39373072 39001816 38697408 
820.081 38457252 38276860 38149788 38070280 38035448 38047744 38113796 
823.455 38242736 38442768 38717328 39064816 39478476 39948360 40460680 
826.830 40999536 41545516 42074364 42560660 42981648 43322752 43585656 
830.205 43790624 43979628 44207452 44539024 45041208 45766952 46750808 
833.580 47992896 49452368 51034428 52590444 53943716 54891472 55254180 
836.955 54917264 53848588 52117188 49871100 47319808 44677708 42128724 
840.329 39815244 37814092 36149656 34806760 33749064 32931540 32308892 
843.704 31842350 31497918 31245794 31063352 30933608 30846800 30799278 
847.079 30790776 30821118 30887854 30986162 31109694 31253732 31415596 
850.454 31595438 31794504 32013704 32252036 32507926 32780868 33073108 
853.829 33390988 33743588 34139732 34585748 35083912 35633900 36234824 
857.204 36889064 37603724 38391152 39267556 40249316 41354504 42601920 
860.578 44011748 45607680 47410968 49433060 51664488 54063560 56552192 
863.953 59009804 61296112 63266756 64791136 65787332 66230104 66161996 
867.328 65682820 64945212 64134076 63428076 62998796 62985196 63478352 
870.703 64530648 66150032 68306480 70930016 73913704 77117704 80352776 
874.078 83400288 86028512 87997544 89115480 89261136 88403336 86608848 
877.452 84027544 80871848 77364512 73725384 70144584 66753932 63638104 
880.827 60831388 58329400 56103708 54117600 52339416 50747876 49335684 
884.202 48106076 47066932 46223608 45574960 45111964 44820920 44688248 
887.577 44704220 44866620 45180308 45653424 46293340 47103860 48084088 
890.952 49230124 50538628 52010916 53653740 55480692 57509592 59758644 
894.327 62244504 64976424 67949488 71133592 74462024 77825960 81056056 
897.701 83943240 86260344 87779784 88333968 87839000 86314176 83876392 
901.076 80722752 77105040 73271536 69459040 65866060 62627188 59829792 
904.451 57512316 55674632 54292756 53328476 52741564 52492952 52551324 
907.826 52895920 53513880 54400568 55556640 56986556 58694424 60682340 
911.201 62943788 65459288 68188888 71063888 73994160 76867368 79561272 
914.575 81972288 84023328 85683608 86972984 87960864 88754176 89469912 
917.950 90227320 91115840 92175544 93387608 94668784 95884856 96858416 
921.325 97415184 97418256 96798240 95585800 93915512 92026408 90208936 
924.700 88782960 88053952 88241272 89465512 91709616 94824400 98523688 
928.075 102417408 106091536 109115152 111126344 111886720 111274912 
930.967 109302584 106081336 101803168 96700032 91019272 85026752 78969720 
934.342 73072480 67537192 62512992 58104388 54372664 51335528 48983628 
937.717 47289804 46220068 45734224 45782084 46300160 47193496 48334484 
941.092 49575028 50742736 51673072 52237276 52348392 51983128 51177252 
944.467 50019268 48626860 47125092 45636272 44253088 43038352 42026108 
947.841 41222924 40617424 40187376 39907164 39749628 39688304 39699412 
951.216 39758524 39842988 39934080 40016836 40083548 40133624 40173132 
954.591 40211404 40258916 40325116 40416568 40537284 40689652 40874508 
957.966 41092040 41341312 41619864 41924208 42249764 42593040 42951724 
961.341 43325612 43716048 44124552 44551872 44997508 45459792 45938032 
964.716 46432400 46945016 47479380 48037860 48621556 49229756 49860064 
968.090 50510900 51183140 51879728 52606376 53368752 54171164 55015524 
971.465 55902192 56831424 57804844 58826968 59903648 61041420 62245000 
974.840 63516856 64857528 66267968 67750344 69310000 70953696 72689568 
978.215 74525512 76469552 78532384 80729288 83082064 85620448 88377376 
981.590 91386232 94676528 98268144 102169120 106371032 110846128 115536296 
984.964 120341352 125122992 129687128 133797240 137214016 139700064 
987.857 141071120 141228800 140166976 137980992 134844880 131008568 
990.750 126751232 122350744 118078792 114152896 110732976 107924808 
993.643 105772736 104277544 103409520 103125704 103379632 104128616 
996.535 105340088 106985456 109038360 111474624 114266472 117383040 
999.428 120790568 124442224 128272104 132192328 136076064 139769184 
1002.321 143105920 145913440 148051520 149430032 150020368 149864480 
1005.213 149069376 147803536 146261824 144660064 143214048 142101472 
1008.106 141467824 141412576 141985424 143201104 145047984 147502624 
1010.999 150537024 154125056 158245392 162874848 167990048 173566992 
1013.891 179579088 185999520 192794864 199904960 207229168 214601680 
1016.784 221764784 228400432 234140896 238616320 241548432 242788032 
1019.677 242370960 240511776 237601920 234156672 230706032 227788992 
1022.570 225859424 225228976 226087072 228474736 232315248 237429168 
1025.462 243577984 250500288 257902864 265503520 273025408 280181120 
1028.355 286708480 292372800 296986496 300443008 302717824 303865952 
1031.249 303992224 303236768 301748480 299659488 297091808 294142560 
1034.142 290873216 287309920 283434944 279197152 274522656 269344448 
1037.035 263627680 257383056 250671888 243593872 236277104 228851872 
1039.928 221443392 214171408 207133840 200410784 194056304 188086352 
1042.821 182479440 177177760 172105952 167183984 162352656 157591808 
1045.714 152925952 148422240 144172320 140287600 136874080 134019136 
1048.607 131792976 130236536 129364056 129165144 129608080 130644944 
1051.500 132213488 134249808 136689760 139469616 142531344 145810288 
1054.393 149225392 152679344 156044416 159167312 161892544 164061744 
1057.286 165540176 166237760 166110576 165176144 163510496 161256368 
1060.179 158606816 155783792 153038864 150606992 148690640 147459344 
1063.072 147023440 147443008 148729280 150849872 153729936 157250592 
1065.965 161265360 165587664 170003264 174304080 178283392 181765936 
1068.858 184627728 186784560 188194848 188847328 188750544 187926816 
1071.751 186407520 184235984 181463552 178150336 174370560 170210928 
1074.645 165777984 161209840 156661712 152309920 148342640 144926800 
1077.538 142210352 140307424 139282288 139154912 139891344 141407520 
1080.431 143555760 146128960 148883488 151528096 153775872 155391856 
1083.324 156212112 156193552 155415504 154076336 152446496 150827472 
1086.217 149530544 148811280 148863984 149808608 151676016 154413504 
1089.110 157882544 161886832 166166960 170428480 174393424 177797184 
1092.003 180427952 182148400 182882224 182619728 181403376 179321344 
1094.896 176492000 173046656 169129200 164872832 160394672 155801200 
1097.789 151178976 146602032 142135712 137828224 133710680 129791392 
1100.682 126054568 122465248 118978368 115556400 112179280 108856488 
1103.575 105626240 102555144 99727032 97225232 95133608 93521720 92439832 
1106.950 91924152 91992536 92647800 93877720 95657200 97948680 100698632 
1110.326 103844536 107308800 110994552 114792768 118569896 122169144 
1113.219 125432224 128196344 130317760 131697160 132279040 132061808 
1116.112 131089616 129446896 127244312 124600064 121641896 118485360 
1119.005 115225480 111938688 108674064 105459744 102312224 99242440 96265208 
1122.380 93403872 90687624 88150744 85828040 83747672 81932720 80401104 
1125.755 79166360 78242184 77643816 77385728 77481808 77939808 78758664 
1129.131 79924800 81410488 83174872 85158632 87288280 89477608 91624216 
1132.506 93626488 95393184 96854304 97980984 98789752 99344640 99740456 
1135.881 100093992 100523776 101122912 101954112 103034496 104334720 
1138.774 105778144 107249200 108616448 109731432 110457488 110687696 
1141.667 110342736 109383608 107805752 105633720 102914584 99713064 96113952 
1145.042 92210496 88105168 83906256 79710696 75606736 71669000 67950336 
1148.418 64490288 61313628 58432040 55848716 53559272 51553440 49816472 
1151.793 48330332 47076828 46037048 45195276 44539684 44061764 43756836 
1155.168 43622328 43656436 43858356 44227444 44764680 45472852 46356856 
1158.543 47423016 48677596 50125724 51770156 53610476 55641748 57852804 
1161.919 60225044 62726712 65311416 67921560 70482544 72912624 75131528 
1165.294 77057520 78619536 79760656 80436584 80623960 80320560 79547424 
1168.669 78344840 76768936 74887640 72767448 70474512 68071248 65610252 
1172.044 63141204 60708556 58348920 56095032 53973204 52001728 50193896 
1175.420 48557416 47095552 45809296 44697832 43758996 42989624 42385420 
1178.795 41941396 41652756 41516056 41530092 41696376 42018476 42500728 
1182.170 43146916 43958876 44936212 46076616 47375600 48824840 50409224 
1185.545 52105456 53875932 55669132 57425820 59076424 60553000 61797820 
1188.921 62762620 63417764 63753212 63778840 63522720 63028984 62356444 
1192.296 61567188 60725512 59894136 59124676 58461116 57937912 57577308 
1195.671 57392880 57388344 57557824 57884644 58340620 58888360 59477184 
1199.046 60047520 60535668 60870456 60984104 60818200 60326492 59487332 
1202.422 58306208 56819752 55088452 53190672 51216100 49246196 47353356 
1205.797 45594612 44005844 42607256 41404836 40394492 39565140 38901276 
1209.172 38386880 38004168 37736636 37571460 37498416 37511564 37608784 
1212.547 37789696 38053968 38400744 38827320 39329144 39900848 40534444 
1215.923 41220552 41946396 42695092 43447684 44183792 44883412 45531136 
1219.298 46114564 46625620 47059140 47412036 47683860 47877196 48000816 
1222.673 48069652 48104448 48132656 48183484 48284708 48462492 48736680 
1226.048 49119884 49617628 50226924 50935908 51722672 52559104 53411316 
1229.424 54242972 55023196 55726764 56338020 56852344 57274948 57621872 
1232.799 57918076 58200116 58513960 58909840 59444888 60173280 61141300 
1236.174 62388348 63941620 65817744 68025672 70566808 73435752 76617200 
1239.549 80085944 83802448 87711416 91749720 95843536 99911624 103874888 
1242.925 107647192 111140680 114274440 116971256 119170232 120832272 
1245.818 121939216 122493928 122515152 122035888 121098912 119753856 
1248.711 118059136 116071104 113838760 111398184 108765952 105942232 
1251.604 102918704 99690344 96267032 92682456 88992432 85275392 81623040 
1254.979 78122496 74857008 71892040 69267176 66999012 65076524 63466228 
1258.354 62111104 60939496 59873104 58827804 57729716 56521584 55165192 
1261.729 53647740 51978684 50187424 48314224 46407920 44519636 42693520 
1265.105 40968220 39372420 37922480 36625428 35478692 34473096 33594600 
1268.480 32828000 32159258 31576234 31069580 30632348 30258110 29941130 
1271.855 29675608 29456732 29281104 29147638 29057042 29010742 29010034 
1275.230 29054668 29142004 29266608 29419360 29588486 29757780 29907124 
1278.606 30015898 30063052 30032230 29915252 29712862 29434394 29094596 
1281.981 28710494 28296882 27864764 27422590 26976460 26534346 26107038 
1285.356 25708166 25353388 25058888 24838080 24702292 24661012 24721898 
1288.731 24893062 25183168 25599586 26148594 26832670 27649234 28588670 
1292.107 29632542 30753324 31908710 33045184 34102272 35013584 35722676 
1295.482 36191500 36405544 36379424 36151492 35780060 35327748 34856944 
1298.857 34423380 34067976 33820192 33696352 33699220 33818652 34030420 
1302.232 34301128 34587148 34842764 35028344 35110244 35068180 34895400 
1305.608 34596796 34187476 33689552 33131682 32544174 31956602 31397000 
1308.983 30886288 30438400 30060388 29753488 29516238 29347674 29248600 
1312.358 29221596 29269512 29393762 29592990 29863536 30201628 30604792 
1315.733 31073070 31608806 32215246 32894798 33647908 34473816 35371420 
1319.109 36339940 37379412 38487876 39658536 40875888 42114920 43339448 
1322.484 44502900 45556748 46451468 47145000 47613644 47855888 47899432 
1325.859 47796812 47626028 47474796 47422832 47536152 47849672 48364628 
1329.234 49051732 49861104 50736852 51624896 52486896 53302176 54067048 
1332.610 54792260 55498844 56215020 56969368 57789592 58697652 59704124 
1335.985 60806956 61989020 63222028 64466416 65677464 66810964 67821608 
1339.360 68668856 69321240 69757016 69969424 69966192 69768184 69403600 
1342.735 68903688 68299928 67618608 66880568 66101648 65291660 64456120 
1346.111 63597516 62716492 61812492 60884408 59931492 58953976 57954988 
1349.486 56941980 55929212 54939036 54000444 53152024 52436912 51899256 
1352.861 51585116 51533888 51774932 52322448 53168088 54276840 55581720 
1356.236 56995092 58411796 59718536 60817436 61625876 62087668 62179612 
1359.612 61910680 61322976 60483796 59490104 58456412 57498248 56729164 
1362.987 56233880 56053600 56182552 56569704 57132788 57765292 58358092 
1366.362 58806748 59017056 58926196 58507440 57778652 56795544 55642804 
1369.737 54416488 53198984 52057868 51038040 50163100 49447060 48899852 
1373.113 48531956 48355776 48379924 48603028 49009408 49571016 50255344 
1376.488 51030552 51874276 52774116 53726176 54732720 55800340 56940692 
1379.863 58169088 59504732 60964848 62553860 64251080 65998300 67703872 
1383.238 69239432 70458648 71225872 71417760 70952368 69806664 68039040 
1386.614 65797776 63298800 60800552 58526244 56620244 55141832 54071664 
1389.989 53344472 52873952 52577804 52380872 52215340 52024440 51755188 
1393.364 51362412 50818864 50119628 49286796 48358960 47379000 46377464 
1396.739 45367016 44348308 43321400 42297464 41307344 40396312 39610616 
1400.115 38985360 38531796 38240240 38087532 38048652 38103160 38238212 
1403.490 38448668 38734140 39094076 39525832 40023196 40577988 41182264 
1406.865 41830072 42518196 43245368 44010796 44812360 45645696 46503980 
1410.240 47379260 48264012 49151568 50037004 50915900 51783480 52634952 
1413.615 53466288 54276464 55068632 55850720 56633456 57428504 58245508 
1416.991 59091684 59971848 60889552 61845692 62834376 63840708 64837180 
1420.366 65787404 66650972 67391256 67983784 68416664 68698320 68857440 
1423.741 68942320 69007568 69100680 69253112 69472848 69753128 70080768 
1427.116 70446024 70844280 71275648 71740560 72238440 72768272 73331432 
1430.492 73937312 74602584 75345864 76182712 77117432 78143048 79242584 
1433.867 80398224 81599248 82843656 84141392 85508920 86964120 88511872 
1437.242 90143072 91836704 93561592 95278576 96934944 98468248 99795192 
1440.617 100820272 101455520 101620832 101260064 100346064 98876072 96874520 
1443.993 94389960 91502056 88311680 84926904 81465648 78035848 74735704 
1447.368 71660328 68888152 66473692 64436056 62757568 61396176 60304636 
1450.743 59452528 58834824 58468772 58375864 58561884 58998836 59625856 
1454.118 60345756 61038024 61578912 61846376 61763136 61334196 60671444 
1457.494 59950924 59334984 58925324 58748628 58789564 59020660 59416128 
1460.869 59953968 60608960 61350568 62135036 62905184 63602692 64172900 
1464.244 64584628 64840840 64979844 65058508 65126680 65216764 65335296 
1467.619 65468952 65589944 65662204 65643856 65480516 65109320 64463384 
1470.995 63486712 62164968 60553572 58788764 57044212 55478132 54184412 
1474.370 53180820 52438708 51915612 51581124 51422760 51440516 51632580 
1477.745 51985332 52469584 53048044 53681596 54340748 55012216 55698664 
1481.120 56416908 57190880 58047768 59013260 60113344 61379456 62848768 
1484.496 64562984 66559732 68859024 71445408 74251184 77159888 79994544 
1487.871 82530848 84533600 85762192 86024344 85226160 83400000 80711176 
1491.246 77405176 73753976 69978416 66216328 62543304 58978908 55524332 
1494.621 52197592 49043164 46139988 43586828 41468988 39832456 38673176 
1497.997 37952636 37614672 37605132 37880864 38405632 39145560 40066544 
1501.372 41128352 42286508 43496028 44701100 45835988 46820108 47536968 
1504.747 47839056 47559224 46552880 44782384 42377860 39615772 36787972 
1508.122 34091916 31598006 29291524 27130740 25085988 23149254 21337866 
1511.498 19680356 18199008 16904202 15789447 14836635 14022741 13325014 
1514.873 12723112 12196939 11727976 11302671 10914273 10565874 10266368 
1518.248 10023759 9836731 9692878 9568211 9437281 9283710 9111448 8945816 
1522.105 8821058 8759758 8761212 8804861 8861772 8908172 8932219 8938916 
1525.963 8944835 8970001 9026290 9112124 9216049 9325415 9433251 9541757 
1529.820 9659472 9794570 9948999 10115862 10280719 10428126 10551038 
1533.196 10656293 10764527 10897896 11069679 11277234 11506288 11736758 
1536.571 11950457 12136455 12288447 12405511 12488606 12538839 12555926 
1539.946 12542489 12508146 12468726 12440732 12433230 12442505 12453825 
1543.321 12446255 12403499 12320250 12206515 12082486 11971607 11888133 
1546.697 11831983 11791228 11747924 11687741 11605581 11507990 11409945 
1550.072 11327667 11269310 11232621 11206984 11180192 11145210 11102752 
1553.447 11061181 11032122 11023830 11037050 11064206 11091671 11104553 
1556.822 11086809 11023014 10901599 10721800 10503953 10287742 10117455 
1560.198 10018605 9990836 10015960 10068790 10124951 10162395 10166839 
1563.573 10133735 10069571 9989547 9912048 9850966 9809549 9780370 9749633 
1567.430 9703754 9634774 9542875 9436772 9330967 9239741 9171749 9130295 
1571.288 9114121 9120550 9145895 9184846 9229655 9267800 9285233 9270001 
1575.145 9218689 9142409 9064620 9013570 9007278 9046926 9121193 9214458 
1579.002 9314007 9413205 9511987 9613466 9721034 9835917 9956661 10080557 
1582.860 10206288 10334057 10465326 10599791 10733110 10856345 10958480 
1586.235 11029165 11063798 11065804 11046295 11020975 11006701 11018834 
1589.610 11068523 11163908 11310867 11512311 11767294 12066543 12391976 
1592.986 12714855 12999564 13212894 13327406 13329353 13220716 13018069 
1596.361 12747780 12438754 12120305 11817070 11548140 11330048 11174481 
1599.736 11089223 11076952 11135929 11260776 11445969 11688081 11985504 
1603.111 12337022 12738670 13179489 13640792 14099163 14526770 14896228 
1606.487 15185392 15376076 15457098 15424619 15281101 15034852 14699241 
1609.862 14293447 13840276 13365401 12896437 12455734 12058333 11709560 
1613.237 11405149 11134604 10884102 10641011 10396496 10148896 9905776 
1616.612 9683052 9500166 9372609 9307439 9301651 9344610 9420959 9514222 
1620.470 9609706 9696503 9770915 9836900 9906013 9991514 10103619 10245198 
1624.327 10412209 10596769 10792040 10995452 11206780 11426749 11654419 
1627.702 11884932 12111583 12328295 12532939 12728298 12920467 13115795 
1631.078 13316951 13521960 13723236 13910132 14071782 14197510 14279785 
1634.453 14316356 14311356 14275881 14226576 14181111 14150918 14139793 
1637.828 14143353 14152424 14155265 14140649 14101764 14038038 13956390 
1641.203 13868429 13787463 13722346 13674540 13637784 13599970 13547152 
1644.579 13466896 13352416 13205414 13037701 12868518 12719666 12610158 
1647.954 12551118 12544535 12584611 12660508 12755902 12848108 12909920 
1651.329 12906916 12807770 12601596 12321204 12042083 11839270 11747345 
1654.704 11750681 11810397 11887044 11953828 11997663 12015376 12010539 
1658.080 11989251 11956689 11914083 11859495 11788539 11696591 11580807 
1661.455 11441513 11282165 11110230 10936291 10771083 10625052 10504496 
1664.830 10410274 10337383 10275426 10210766 10127223 10010874 9852931 
1668.205 9653678 9423837 9181495 8948387 8741434 8569285 8431866 8322758 
1672.063 8231237 8144192 8048151 7928544 7774258 7582970 7364939 7143244 
1675.920 6943985 6786548 6674824 6599327 6542544 6487114 6422544 6346955 
1679.778 6267514 6195078 6137575 6093520 6050377 5985940 5876068 5705017 
1683.635 5478599 5228856 5003322 4839417 4746181 4708866 4702033 4703138 
1687.492 4696071 4673061 4632638 4577451 4512863 4444234 4379030 4324042 
1691.350 4284554 4263139 4257083 4257585 4250023 4218203 4148316 4037437 
1695.207 3898802 3761348 3656716 3602054 3592665 3605528 3610840 3578868 
1699.065 3489577 3342268 3162801 2994917 2877294 2824864 2825965 2857115 
1702.922 2893605 2917221 2918322 2893538 2847310 2788381 2728060 2674647 
1706.780 2632476 2601042 2576776 2555378 2533614 2510319 2487124 2467330 
1710.637 2454201 2450136 2455101 2466197 2478760 2487724 2489790 2483725 
1714.494 2470363 2451302 2426545 2394426 2351682 2296684 2232734 2168760 
1718.352 2117481 2088748 2086817 2108825 2147382 2193503 2239195 2279963 
1722.209 2314105 2342554 2367506 2391028 2413950 2436341 2457966 2479293 
1726.067 2501187 2524216 2547579 2568643 2584076 2591009 2588909 2580509 
1729.924 2569977 2561111 2553445 2540380 2509519 2444971 2334492 2177352 
1733.781 1991807 1810301 1668019 1584041 1555676 1565918 1593353 1619992 
1737.639 1633095 1627142 1602997 1567148 1528110 1493530 1468528 1454199 
1741.496 1449279 1451839 1460416 1473848 1491136 1511485 1533563 1556540 
1745.354 1579519 1601667 1622020 1639049 1651388 1656943 1654215 1641976 
1749.211 1619227 1585671 1541876 1490039 1434419 1381498 1338056 1309275 
1753.069 1297078 1298806 1308477 1317184 1316154 1298839 1263680 1214933 
1756.926 1161541 1113537 1076931 1052518 1035745 1019603 997219 964608 
1760.783 922104 874126 827150 787547 759499 743999 739286 742339 749873 
1765.123 758005 762851 761159 751068 733179 711838 692556 680741 678452 
1769.463 682567 685786 679447 656052 614308 560359 507081 467972 450890 
1773.802 455732 475269 500512 523700 541383 554188 564838 575720 587034 
1778.142 596590 600737 597187 586404 571905 559596 554354 557904 568123 
1782.481 579835 587831 588262 579934 564573 545795 527084 510895 498787 
1786.821 492054 491755 498787 513848 534781 556975 573763 577910 563843 
1791.161 530866 483893 432316 386349 353286 335014 328714 329145 331301 
1795.500 332561 331500 328250 322911 315119 303846 288991 271021 251493 
1799.840 233260 218706 208562 202529 198617 195070 191192 187081 184032 
1804.179 183004 184463 187579 191225 194341 196529 197722 198319 197755 
1808.519 195103 189137 178794 164574 149128 135572 127518 126689 132357 
1812.859 141671 150984 157382 159801 159105 157647 157713 161359 168618 
1817.198 178695 190595 203358 217148 232663 250366 270524 292904 316247 
1821.538 339292 360515 378157 390096 394706 391124 380545 366650 354745 
1825.877 349870 355209 370298 390627 409630 420608 419845 408104 391555 
1830.217 378124 375902 388239 413610 446876 482202 515606 545463 573066 
1834.557 600571 629937 661428 693950 725943 757308 789340 825789 870375 
1838.896 925956 992769 1068893 1149980 1230949 1307912 1376978 1437012 
1842.754 1488576 1535126 1582578 1637751 1707202 1793067 1893590 2001594 
1846.611 2107526 2201662 2275866 2326297 2353215 2360577 2353114 2334592 
1850.469 2306044 2265707 2211420 2141988 2059151 1967875 1874422 1783884 
1854.326 1699019 1618794 1540446 1461015 1379138 1295881 1214036 1136392 
1858.183 1064076 996356 931800 868914 807862 750371 698297 652567 612284 
1862.523 574559 536207 496067 454936 415865 382203 355673 334351 314224 
1866.863 289721 257859 220065 182441 153470 140544 146344 167558 197059 
1871.202 226497 250200 265716 273607 275895 274403 270292 263429 254212 
1875.542 243901 234121 227624 225767 227823 230873 231337 226165 214330 
1879.881 197324 177071 155691 133451 108428 78037 40889 -2485 -48869 -93858 
1884.703 -133244 -164976 -189717 -210283 -230021 -250652 -272806 -295322 
1888.561 -316314 -334359 -349622 -361937 -371505 -377828 -379980 -376901 
1892.418 -369750 -359885 -350184 -343199 -339424 -337107 -333333 -325122 
1896.275 -310951 -292309 -271812 -252838 -237108 -224358 -213297 -202468 
1900.133 -192201 -184153 -181470 -186040 -196904 -210648 -222007 -226014 
1903.990 -221477 -210880 -198593 -190313 -189121 -193857 -200613 -204918 
1907.848 -203362 -196440 -187696 -181072 -180178 -185047 -193625 -202236 
1911.705 -208760 -213132 -217867 -226345 -240155 -259295 -282077 -306481 
1915.563 -331876 -359819 -392163 -430231 -472300 -513009 -545705 -565925 
1919.420 -573668 -574396 -576216 -587201 -611356 -647552 -689104 -727213 
1923.277 -755329 -771040 -776299 -776232 -775108 -774116 -771900 -765814 
1927.135 -754601 -740014 -726849 -720266 -723673 -737434 -757809 -780631 
1930.992 -802559 -822865 -843634 -867774 -896178 -927656 -958437 -984422 
1934.850 -1004059 -1019727 -1034966 -1053973 -1078299 -1104443 -1126354 
1938.225 -1138582 -1138615 -1129659 -1118951 -1114919 -1123545 -1145687 
1941.600 -1177047 -1209760 -1238076 -1258626 -1272204 -1281950 -1289317 
1944.975 -1293777 -1292489 -1281587 -1259915 -1230477 -1198691 -1169612 
1948.351 -1146480 -1127841 -1109103 -1086364 -1058997 -1030504 -1008323 
1951.726 -1000125 -1008852 -1033214 -1066731 -1101666 -1132435 -1159798 
1955.101 -1186960 -1220994 -1266059 -1322088 -1384615 -1447497 -1505714 
1958.476 -1557815 -1607039 -1656685 -1709033 -1762529 -1811861 -1851355 
1961.852 -1878211 -1894145 -1905230 -1917534 -1934325 -1954216 -1971895 
1965.227 -1981197 -1977799 -1963352 -1943627 -1926045 -1917237 -1919283 
1968.602 -1931488 -1952170 -1980042 -2015729 -2060250 -2112318 -2165534 
1971.977 -2212018 -2242082 -2250421 -2238785 -2215776 -2190689 -2170183 
1975.353 -2152577 -2127486 -2081256 -2003229 -1892859 -1761176 -1627770 
1978.728 -1510238 -1421540 -1363278 -1328232 -1305703 -1286807 -1266885 
1982.103 -1245179 -1224166 -1203944 -1182995 -1159798 -1132633 -1103782 
1985.478 -1079192 -1065078 -1065244 -1079820 -1103418 -1128106 -1148165 
1988.854 -1161846 -1171297 -1182367 -1197898 -1216632 -1233318 -1239662 
1992.229 -1229948 -1205233 -1171925 -1140432 -1119579 -1112242 -1114622 
1995.604 -1119150 -1118224 -1107582 -1089768 -1071557 -1058897 -1055890 
1998.979 -1060749 -1068450 -1073408 -1074333 -1073341 -1078167 -1095618 
2002.354 -1129295 -1177047 -1232690 -1286641 -1332064 -1365722 -1387291 
2005.730 -1398916 -1402351 -1396472 -1380255 -1353964 -1320205 -1285419 
2009.105 -1256280 -1235697 -1222844 -1212502 -1198625 -1177047 -1149719 
2012.480 -1123281 -1105731 -1103881 -1116770 -1138218 -1158773 -1169249 
2015.855 -1165019 -1148397 -1125363 -1101138 -1079456 -1058931 -1035561 
2019.231 -1007034 -973611 -939063 -908280 -884870 -867972 -853819 -838210 
2023.088 -819195 -800376 -789131 -791910 -812779 -848396 -889102 -923853 
2026.946 -944848 -948783 -939988 -925771 -910429 -893897 -871279 -835069 
2030.803 -780697 -709978 -629984 -549776 -476471 -409840 -343927 -270124 
2034.660 -182397 -80442 27667 131164 218607 284117 328482 358160 379716 
2039.000 399946 422399 447042 473876 503465 535643 571341 609431 645798 
2043.340 675432 694813 702678 702844 702578 709946 731652 771714 829673 
2047.679 903078 989282 1084836 1184897 1284283 1374352 1446520 1495226 
2051.537 1519132 1522989 1517337 1513978 1522856 1547263 1583409 1622918 
2055.394 1656810 1679028 1689340 1693032 1696824 1705073 1718945 1735079 
2059.251 1748419 1756603 1760629 1764954 1775733 1797159 1829134 1867334 
2063.109 1905771 1939351 1966377 1988911 2010648 2035315 2063945 2094075 
2066.966 2121710 2143387 2157438 2164731 2167895 2168660 2167162 2162300 
2070.824 2151611 2134296 2111855 2088015 2066841 2052259 2045069 2043671 
2074.681 2045801 2049097 2052659 2058252 2067940 2083221 2104363 2129701 
2078.539 2156739 2183745 2210620 2237630 2266273 2297117 2329096 2360677 
2082.396 2390295 2416516 2440406 2462865 2483958 2502854 2516817 2522349 
2086.253 2517317 2502120 2479460 2454668 2432876 2417149 2407520 2401822 
2090.111 2396158 2386963 2372803 2353747 2331261 2307576 2283560 2259879 
2093.968 2237630 2218114 2203294 2195468 2195434 2202128 2213251 2225407 
2097.826 2236298 2246323 2257514 2272868 2294752 2322866 2353981 2384364 
2101.683 2410618 2431476 2449536 2469396 2495189 2529415 2571543 2617809 
2105.541 2663679 2705554 2741163 2770740 2795517 2815693 2831301 2841440 
2109.398 2845275 2843474 2838605 2833502 2830968 2831901 2835070 2837238 
2113.255 2835703 2828466 2816460 2802754 2791015 2785046 2787280 2797785 
2117.113 2816193 2841940 2874092 2911684 2953916 2997954 3040194 3077566 
2120.970 3107300 3128258 3141941 3150251 3155725 3159763 3163268 3165771 
2124.828 3167607 3169509 3172046 3176051 3180223 3180958 3173848 3154156 
2128.685 3119347 3070692 3012734 2951180 2892337 2841006 2798118 2763371 
2132.542 2736462 2716656 2705287 2703820 2712022 2727126 2744564 2757702 
2136.400 2762070 2756302 2742631 2725059 2708088 2692384 2676748 2657945 
2140.257 2632843 2600342 2562844 2523749 2486758 2452735 2419648 2383298 
2144.115 2340855 2291621 2238896 2188374 2145085 2111588 2086384 2064111 
2147.972 2038078 2002792 1956326 1898083 1830798 1756670 1676567 1591224 
2151.830 1501111 1405797 1305453 1198287 1078957 940599 776892 584911 372785 
2156.169 159834 -25512 -149011 -182198 -112939 49770 277851 532293 773539 
2160.509 973640 1117291 1202208 1236000 1229520 1197490 1154398 1112906 
2164.366 1083209 1071583 1077130 1092742 1109783 1117423 1109185 1085401 
2168.224 1051654 1015585 984732 962549 946809 932630 914102 887241 852513 
2172.563 813605 775066 742107 717779 702247 696206 698928 707922 720567 
2176.903 730955 730855 712966 672711 610194 533520 455467 388770 344863 
2181.242 328184 335313 357464 385221 409962 427274 437224 440508 438584 
2185.582 432913 424322 414970 409464 412781 430060 464024 513151 571673 
2189.922 633388 691295 741244 782800 816527 843682 865262 880634 889133 
2194.261 891756 892287 894944 905203 926321 956837 993300 1029368 1059094 
2198.601 1078559 1087461 1086597 1079356 1069125 1057965 1048034 1041690 
2202.458 1040394 1045476 1057201 1074041 1092975 1111278 1127090 1140711 
2206.316 1155029 1172471 1194898 1222243 1250255 1274546 1291727 1300800 
2210.173 1304157 1306782 1312731 1323665 1339419 1355971 1369266 1377310 
2214.031 1379836 1378507 1375482 1371593 1365411 1355705 1341181 1323333 
2217.888 1306749 1297643 1300036 1316088 1342244 1371892 1397520 1413642 
2221.745 1417299 1410750 1397819 1381831 1365377 1348958 1331044 1311634 
2225.603 1291794 1273317 1259460 1252515 1252382 1258097 1267900 1280462 
2229.460 1295483 1314227 1336561 1361522 1386318 1407459 1421221 1426507 
2233.318 1424446 1418396 1412479 1409986 1412479 1420723 1434020 1452570 
2237.175 1477372 1508791 1546232 1587999 1629803 1666688 1695859 1716849 
2241.032 1732318 1747188 1766550 1792767 1826006 1863707 1901943 1938053 
2244.890 1971104 2001594 2031154 2060582 2088615 2113153 2131566 2142154 
2248.747 2145351 2143253 2139124 2135994 2136094 2140356 2149247 2163532 
2252.605 2183712 2209921 2242260 2277698 2311974 2340688 2360044 2368339 
2256.462 2367806 2362109 2356113 2353881 2356912 2364242 2373970 2383131 
2260.320 2389428 2392227 2391427 2387196 2380366 2371604 2361410 2351749 
2264.177 2344320 2340988 2343254 2351149 2363009 2377334 2391827 2404688 
2268.034 2415949 2425445 2433409 2439773 2443971 2445304 2443938 2440939 
2271.892 2437740 2435841 2436874 2440073 2444704 2449336 2453468 2457333 
2275.749 2463065 2471795 2484792 2501887 2521183 2540380 2558078 2573376 
2279.607 2587442 2602475 2620142 2641443 2667013 2695751 2726559 2759236 
2283.464 2793050 2827366 2861785 2894339 2922792 2945276 2961021 2970096 
2287.322 2974132 2975600 2976301 2977369 2979304 2981606 2984408 2988312 
2291.179 2994417 3004426 3019674 3040260 3065820 3095086 3126756 3159897 
2295.036 3193875 3227822 3261138 3292320 3319764 3342302 3359431 3371719 
2298.894 3380535 3387548 3393291 3397900 3400404 3399670 3394493 3385511 
2302.751 3373790 3360800 3348579 3338128 3329781 3323904 3320365 3319464 
2306.609 3321367 3326275 3333453 3341701 3349514 3355324 3359231 3362069 
2310.466 3365141 3370283 3378131 3387748 3397733 3405948 3410690 3411558 
2314.323 3409187 3404278 3397766 3390152 3380769 3369649 3357227 3344772 
2318.181 3334322 3328178 3327243 3331617 3340131 3351083 3362503 3373189 
2322.038 3381670 3386278 3384475 3372788 3347577 3306743 3250422 3181759 
2325.896 3106465 3031051 2961922 2903445 2856882 2821296 2794317 2773108 
2329.753 2755701 2741463 2730360 2722725 2718657 2718090 2720824 2726892 
2333.611 2736795 2750666 2768373 2788914 2810391 2830567 2847943 2861318 
2337.468 2871491 2879863 2887934 2897241 2909015 2923759 2942173 2965092 
2341.325 2992782 3024845 3060181 3095953 3129893 3160831 3189536 3220045 
2345.183 3258134 3308946 3376361 3460619 3558055 3662095 3766161 3863097 
2349.040 3947149 4014596 4062955 4091184 4099479 4089913 4065564 4030648 
2352.898 3990050 3947918 3907729 3870987 3837591 3807173 3778561 3751021 
2356.755 3725254 3702262 3683582 3671719 3669146 3677533 3699254 3734912 
2360.613 3783274 3841970 3906459 3971157 4031651 4084795 4130621 4171399 
2364.470 4211110 4252566 4297739 4346364 4395932 4443731 4488021 4527761 
2368.327 4564459 4599417 4634413 4670013 4706488 4743334 4780719 4819381 
2372.185 4860358 4904791 4953584 5006473 5062955 5122629 5185161 5250990 
2376.042 5320753 5395156 5473935 5556486 5641940 5729090 5817667 5908143 
2379.900 6000721 6095604 6192053 6288356 6382360 6471946 6555797 6633979 
2383.757 6707262 6776788 6843463 6907288 6967284 7022405 7071639 7114480 
2387.615 7151295 7182892 7209707 7232279 7250439 7263781 7272204 7276450 
2391.472 7276787 7274327 7270082 7264253 7256840 7248485 7239388 7230561 
2395.329 7223621 7220084 7220824 7226215 7235951 7249125 7265162 7283761 
2399.187 7304955 7329285 7357289 7388968 7424256 7462715 7503774 7547466 
2403.044 7593659 7642789 7695298 7752266 7814199 7882317 7957700 8040793 
2406.902 8132004 8230528 8334647 8442609 8552422 8662737 8773417 8885039 
2410.759 8997873 9112733 9229012 9345592 9460782 9572953 9680952 9783962 
2414.616 9881674 9973442 10058244 10135193 10202929 10260601 10308405 
2417.992 10346917 10377254 10400840 10418182 10430061 10437121 10440073 
2421.367 10440345 10440141 10441159 10445097 10452801 10464341 10479208 
2424.742 10497198 10518583 10543806 10574022 10610588 10654119 10705431 
2428.117 10765342 10834332 10913730 11004492 11107443 11222795 11349536 
2431.493 11485807 11629336 11777950 11929988 12084633 12241345 12399987 
2434.868 12560871 12724238 12891010 13062320 13240222 13426295 13622090 
2438.243 13828441 14044677 14269512 14501932 14740510 14984637 15234393 
2441.618 15489340 15749246 16013915 16282462 16554615 16830934 17112186 
2444.994 17399312 17693012 17992436 18295936 18601482 18906484 19209204 
2448.369 19508914 19805048 20096978 20383896 20664228 20935562 21196802 
2451.744 21447024 21686242 21915908 22137220 22350376 22555892 22752670 
2455.119 22939512 23115252 23279210 23430082 23566630 23686530 23786476 
2458.495 23863098 23913052 23933848 23924292 23884696 23815842 23719388 
2461.870 23597030 23450436 23281590 23092886 22886838 22666854 22436724 
2465.245 22199670 21960132 21722120 21490190 21269452 21064926 20881218 
2468.620 20722262 20590672 20487984 20413902 20367888 20348512 20353860 
2471.996 20382092 20430606 20496008 20575454 20665862 20764074 20868632 
2475.371 20977984 21090526 21204942 21318798 21429652 21535104 21632920 
2478.746 21721980 21801686 21871546 21930580 21977524 22010986 22029040 
2482.121 22031690 22020152 21996346 21963616 21924828 21881930 21835866 
2485.497 21787020 21735042 21680182 21623134 21564562 21504814 21444132 
2488.872 21381340 21315352 21245130 21170012 21089516 21004100 20913204 
2492.247 20815864 20710864 20596440 20471416 20336288 20191868 20040554 
2495.622 19884126 19724112 19560658 19393314 19221118 19043000 18859038 
2498.998 18669654 18475650 18278346 18078644 17877550 17675860 17474952 
2502.373 17275964 17080618 16890148 16705235 16526183 16352849 16184982 
2505.748 16022922 15867144 15718360 15576805 15442266 15313775 15190230 
2509.123 15070732 14955006 14843733 14738179 14639367 14547911 14464043 
2512.499 14386803 14315568 14249755 14189327 14134282 14084617 14040057 
2515.874 13999471 13962104 13927787 13896652 13870413 13850607 13838668 
2519.249 13835180 13839421 13849614 13864085 13881668 13901579 13924399 
2522.624 13950608 13980171 14012919 14047517 14082769 14117612 14151500 
2526.000 14183781 14214251 14242496 14266704 14285845 14299405 14306733 
2529.375 14308822 14307213 14302350 14294542 14283277 14267149 14245133 
2532.750 14217777 14186144 14152629 14119905 14089921 14063124 14039338 
2536.125 14017607 13996972 13977844 13960872 13947084 13937503 13931653 
2539.500 13928402 13926657 13924844 13922620 13920260 13918891 13918651 
2542.876 13920054 13922038 13923476 13923612 13922106 13919369 13916530 
2546.251 13914512 13913040 13911740 13909037 13903597 13895147 13884371 
2549.626 13872705 13862477 13855670 13852899 13854198 13858099 13862990 
2553.001 13866924 13868942 13868293 13865282 13860732 13855293 13849990 
2556.377 13845065 13840652 13836411 13831792 13825704 13817255 13806036 
2559.752 13791328 13773064 13751039 13725287 13695639 13662368 13625680 
2563.127 13586227 13545204 13503605 13462488 13422775 13384775 13348282 
2566.502 13313808 13281454 13251802 13225875 13204663 13188711 13178602 
2569.878 13174366 13175460 13181778 13193220 13209342 13229734 13253168 
2573.253 13278380 13303661 13328055 13350435 13371688 13393216 13416316 
2576.628 13442631 13473117 13507125 13543632 13581338 13618466 13653991 
2580.003 13687569 13719303 13750047 13781205 13814417 13851427 13893710 
2583.379 13941986 13995877 14054259 14115114 14176079 14236266 14295124 
2586.754 14353684 14413930 14477472 14545272 14617367 14692489 14768756 
2590.129 14844659 14919169 14991668 15062431 15131626 15198739 15263563 
2593.504 15325171 15382942 15437254 15488516 15537552 15585667 15633751 
2596.880 15682047 15731277 15781922 15834702 15890205 15949117 16011234 
2600.255 16076110 16142752 16210159 16278127 16347378 16418912 16494416 
2603.630 16575268 16661473 16752377 16846606 16942476 17038644 17134764 
2607.005 17230904 17327720 17426248 17526904 17629928 17735360 17842922 
2610.381 17952030 18062582 18173854 18285016 18395274 18503966 18610266 
2613.756 18713930 18814780 18912228 19006304 19096040 19180702 19259770 
2617.131 19332998 19400592 19463410 19522394 19578612 19632688 19685246 
2620.506 19736282 19786010 19834910 19883154 19931232 19979558 20028202 
2623.882 20077408 20127380 20178296 20230642 20285390 20342782 20403170 
2627.257 20466554 20532238 20599114 20666730 20734252 20801402 20868564 
2630.632 20935840 21003404 21071710 21140512 21209570 21279056 21348586 
2634.007 21417818 21487196 21556274 21625328 21694742 21764758 21836006 
2637.383 21908694 21983868 22061320 22141298 22223454 22307542 22392728 
2640.758 22478384 22563708 22648354 22731754 22813672 22894768 22975738 
2644.133 23057630 23141460 23228106 23317806 23410290 23505136 23601264 
2647.508 23698008 23794666 23890928 23986648 24082286 24178296 24275554 
2650.884 24374794 24476688 24581866 24690400 24801910 24915274 25029298 
2654.259 25143106 25255994 25368072 25480352 25593610 25709044 25827110 
2657.634 25947388 26069636 26192620 26315606 26438132 26559988 26681386 
2661.009 26802536 26923508 27043948 27164246 27284014 27403250 27521988 
2664.385 27640230 27757762 27874018 27988398 28100334 28209576 28316192 
2667.760 28420500 28523136 28624838 28726600 28829166 28933598 29040250 
2671.135 29149444 29260970 29373802 29486912 29598950 29709066 29817116 
2674.510 29923878 30030526 30138586 30248944 30361856 30476608 30591994 
2677.885 30706950 30820940 30934212 31047834 31163196 31281862 31405050 
2681.261 31533546 31667534 31807444 31953178 32105024 32263420 32428340 
2684.636 32600458 32779794 32966570 33161148 33363760 33574376 33792900 
2688.011 34018556 34250356 34487552 34729364 34975188 35225252 35479844 
2691.386 35739224 36003656 36272644 36545980 36823460 37104972 37390712 
2694.762 37681232 37976828 38277688 38583720 38894860 39210652 39531132 
2698.137 39856280 40186176 40520984 40860052 41203140 41549560 41899176 
2701.512 42251664 42607292 42966212 43328356 43692632 44058100 44422988 
2704.887 44785432 45143732 45496216 45841104 46176472 46500292 46810216 
2708.263 47104376 47381068 47639264 47879044 48100708 48304820 48492056 
2711.638 48663364 48818684 48958672 49083044 49191348 49282564 49355544 
2715.013 49408592 49440152 49449692 49436960 49402764 49348712 49276296 
2718.388 49187340 49083596 48966492 48838448 48701616 48559192 48414744 
2721.764 48271748 48133316 48002332 47881228 47771956 47676428 47596636 
2725.139 47533604 47488360 47461304 47452360 47461008 47487288 47531204 
2728.514 47592568 47671768 47768184 47880416 48006664 48144536 48291708 
2731.889 48446748 48608736 48777496 48952660 49133280 49317756 49503832 
2735.265 49689396 49871992 50050688 50225288 50396052 50563944 50729404 
2738.640 50892992 51054476 51214084 51371440 51526464 51679344 51829772 
2742.015 51978088 52124212 52268820 52413432 52559816 52710212 52866728 
2745.390 53030484 53201944 53380212 53563808 53750740 53938916 54126232 
2748.766 54310704 54489884 54661580 54823196 54972992 55109408 55232056 
2752.141 55341076 55437624 55522900 55597948 55663856 55721752 55772160 
2755.516 55815524 55852260 55881692 55902832 55914364 55914024 55900156 
2758.891 55871288 55825996 55764056 55685140 55588760 55475084 55344276 
2762.267 55196800 55033500 54856092 54666240 54466032 54257580 54042584 
2765.642 53822780 53600168 53376620 53154044 52934956 52721140 52514604 
2769.017 52317328 52130492 51955756 51794900 51649076 51519376 51406200 
2772.392 51309092 51226872 51158132 51100688 51052504 51012108 50977828 
2775.768 50947832 50920560 50893512 50864380 50830820 50790256 50740688 
2779.143 50680248 50607236 50520016 50417636 50299536 50166260 50019344 
2782.518 49861772 49696936 49528828 49361148 49197132 49039008 48888244 
2785.893 48744984 48608516 48477312 48348888 48220504 48089308 47952968 
2789.269 47810128 47660528 47505140 47345448 47183488 47020480 46857500 
2792.644 46695496 46534628 46375660 46219772 46068324 45923228 45786136 
2796.019 45658652 45541472 45435252 45340016 45255360 45181560 45118104 
2799.394 45065208 45022648 44990196 44967520 44954108 44949036 44950908 
2802.770 44958296 44969872 44983836 44999420 45015776 45032868 45050504 
2806.145 45068924 45087780 45106708 45124652 45140456 45152884 45160972 
2809.520 45163584 45159796 45148580 45128584 45098660 45057564 45004860 
2812.895 44940656 44865996 44781904 44690160 44592516 44490640 44386292 
2816.271 44281560 44178876 44081532 43992972 43916864 43857292 43817600 
2819.646 43800336 43807736 43841240 43901280 43987180 44098036 44231664 
2823.021 44385260 44555984 44740144 44934668 45136196 45341712 45547692 
2826.396 45751160 45948420 46136120 46310848 46469460 46608876 46727192 
2829.771 46822988 46895404 46945236 46974476 46985476 46981564 46966244 
2833.147 46942176 46911720 46876580 46837788 46796712 46754680 46712948 
2836.522 46672880 46635584 46601204 46569556 46540268 46513676 46490740 
2839.897 46474000 46466736 46473036 46496716 46540936 46608544 46701772 
2843.272 46822844 46974700 47160588 47383880 47647400 47951528 48294004 
2846.648 48667960 49062896 49463096 49849544 50201484 50496868 50716260 
2850.023 50844976 50873768 50801804 50635496 50388536 50077792 49723616 
2853.398 49346408 48963192 48589060 48235536 47909976 47617416 47359824 
2856.773 47137172 46947416 46787484 46652956 46539092 46440960 46353944 
2860.149 46273436 46196004 46118436 46038412 45954720 45866884 45775716 
2863.524 45682760 45590160 45500888 45418256 45345864 45287684 45247856 
2866.899 45230500 45239656 45278600 45349544 45453060 45588392 45752448 
2870.274 45940796 46147356 46364380 46583572 46796820 46995964 47175288 
2873.650 47331112 47462596 47571792 47662748 47741220 47812236 47880860 
2877.025 47950380 48022912 48099744 48181888 48270008 48365520 48470052 
2880.400 48585056 48712104 48852016 49004956 49169860 49344480 49525560 
2883.775 49707972 49886340 50054368 50205684 50335216 50439296 50516260 
2887.151 50567588 50596664 50609808 50614388 50619412 50634156 50668076 
2890.526 50731080 50833688 50987324 51205812 51505536 51904560 52424944 
2893.901 53089940 53922560 54945200 56173236 57611508 59247816 61048856 
2897.276 62954968 64876920 66708960 68329520 69616384 70471824 70827472 
2900.652 70660408 69993672 68893704 67457696 65791108 64005160 62197356 
2904.027 60441904 58796620 57297444 55963548 54803164 53816180 52996756 
2907.402 52336576 51826520 51457824 51222548 51114964 51129988 51262144 
2910.777 51504564 51847432 52276780 52776284 53325404 53901664 54483196 
2914.153 55046592 55570120 56035692 56427056 56733504 56949572 57075084 
2917.528 57114496 57075992 56970272 56808496 56601828 56361184 56095940 
2920.903 55814884 55525952 55236040 54951668 54679168 54424300 54193756 
2924.278 53994252 53831936 53712644 53640468 53616928 53641292 53709980 
2927.654 53817944 53958048 54122556 54303380 54491496 54677968 54853684 
2931.029 55008864 55134872 55223136 55265732 55256252 55188936 55059376 
2934.404 54865528 54607772 54289904 53918956 53505452 53062124 52602304 
2937.779 52140204 51688820 51259792 50863860 50510416 50206840 49959452 
2941.155 49771840 49644672 49575064 49556196 49577996 49625912 49683636 
2944.530 49732900 49753600 49728148 49640548 49479436 49240108 48924696 
2947.905 48543072 48109664 47643816 47165684 46693172 46241736 45822032 
2951.280 45439704 45097004 44793184 44525292 44290000 44083772 43903188 
2954.656 43745072 43607012 43486432 43381224 43289660 43210048 43140952 
2958.031 43081820 43032352 42992620 42963324 42944664 42936656 42938812 
2961.406 42950152 42969028 42994196 43024928 43060964 43103152 43152516 
2964.781 43210632 43278900 43358340 43449148 43551736 43665740 43791136 
2968.156 43927784 44076580 44238304 44414988 44609040 44822828 45059068 
2971.532 45319604 45605064 45914720 46245940 46594340 46952732 47311900 
2974.907 47659644 47980944 48259308 48477864 48620596 48675964 48638236 
2978.282 48508764 48296560 48016620 47689372 47335880 46977652 46633812 
2981.657 46318884 46042828 45810728 45622216 45472336 45352196 45250908 
2985.033 45155568 45054108 44937132 44798400 44635368 44449892 44246520 
2988.408 44030632 43807592 43580344 43348784 43110176 42859232 42590444 
2991.783 42299836 41986616 41653668 41308112 40960136 40619572 40295776 
2995.158 39994604 39717784 39463164 39225592 38998804 38776308 38553596 
2998.534 38327920 38098744 37867416 37635956 37407000 37182932 36965328 
3001.909 36755080 36552724 36357952 36170652 35990880 35818776 35655192 
3005.284 35500660 35355708 35220220 35093864 34975336 34863408 34757004 
3008.659 34655292 34557472 34463376 34372668 34285028 34200164 34117868 
3012.035 34038556 33962768 33891620 33825672 33765216 33709852 33658472 
3015.410 33610064 33563992 33520468 33480596 33446134 33418220 33397574 
3018.785 33383832 33375672 33371414 33369448 33368732 33369128 33370666 
3022.160 33373744 33378430 33384726 33392492 33402116 33414818 33432032 
3025.536 33455900 33488364 33530418 33582464 33643896 33712824 33786848 
3028.911 33862924 33937116 34005084 34062780 34106576 34133816 34143960 
3032.286 34138188 34119048 34090264 34055360 34017340 33978532 33940196 
3035.661 33903080 33868044 33835772 33806904 33781976 33761312 33744984 
3039.037 33733416 33726968 33726180 33731660 33743440 33760844 33782440 
3042.412 33806512 33831332 33856300 33881912 33909352 33940592 33977280 
3045.787 34019776 34067476 34118868 34172100 34225544 34278896 34332004 
3049.162 34385328 34439484 34494620 34550444 34606524 34662396 34717808 
3052.538 34773192 34828692 34884628 34941504 34999396 35058448 35119152 
3055.913 35181776 35246780 35314556 35385292 35459096 35536440 35617788 
3059.288 35703896 35795352 35892044 35993288 36097372 36202268 36305500 
3062.663 36406124 36503852 36599796 36695728 36793812 36895488 37001408 
3066.039 37111576 37225164 37341240 37458824 37576628 37693588 37808272 
3069.414 37919404 38025792 38126924 38222760 38313844 38401212 38485344 
3072.789 38566884 38646120 38723524 38800148 38877396 38957344 39041836 
3076.164 39132144 39228384 39329432 39433516 39538568 39642668 39744908 
3079.540 39844912 39942764 40039180 40134644 40229796 40325336 40422060 
3082.915 40520480 40620736 40722656 40825108 40927004 41027500 41126460 
3086.290 41224888 41324656 41427836 41536072 41650204 41769764 41893920 
3089.665 42021396 42150956 42282236 42415268 42549840 42685844 42822772 
3093.041 42959848 43096528 43233108 43370132 43508408 43649180 43792564 
3096.416 43938416 44085824 44233756 44381116 44527644 44673152 44817980 
3099.791 44962708 45107888 45253668 45400784 45549792 45700832 45853996 
3103.166 46008572 46163572 46317892 46470424 46621120 46770364 46919472 
3106.542 47069924 47222752 47378560 47536896 47696916 47857660 48018172 
3109.917 48178076 48337108 48495428 48652840 48809524 48965604 49121812 
3113.292 49278820 49437628 49598500 49761176 49924696 50087608 50248724 
3116.667 50407624 50565248 50723220 50883564 51047692 51216100 51387812 
3120.042 51560864 51733832 51905156 52074452 52242320 52409620 52577020 
3123.418 52744896 52912908 53080880 53248572 53416524 53585248 53755800 
3126.793 53928448 54102964 54278680 54454424 54629152 54801924 54972576 
3130.168 55141044 55307540 55472976 55637908 55803504 55971200 56142468 
3133.543 56318100 56498412 56682872 56869832 57057512 57243952 57428240 
3136.919 57610068 57790008 57969112 58148368 58328116 58508312 58688512 
3140.294 58868172 59047044 59225488 59404124 59583744 59765224 59948492 
3143.669 60133016 60318116 60502684 60686076 60867900 61048776 61229308 
3147.044 61410904 61594640 61781204 61970904 62163288 62357404 62552676 
3150.420 62748148 62943712 63139364 63335292 63531504 63727692 63923500 
3153.795 64117944 64310856 64501664 64690100 64876424 65060668 65242796 
3157.170 65422656 65600960 65778076 65955608 66135028 66317832 66504776 
3160.545 66695668 66889152 67083576 67277264 67468880 67657984 67845312 
3163.921 68031408 68217112 68402784 68587984 68772336 68954864 69135176 
3167.296 69312416 69486376 69656720 69823280 69986240 70146104 70303696 
3170.671 70460288 70616744 70773648 70930680 71087312 71242856 71397048 
3174.046 71550136 71702800 71855608 72008576 72160656 72310248 72455752 
3177.422 72595848 72731056 72862784 72993368 73125336 73259848 73397064 
3180.797 73536016 73675216 73813040 73948784 74082376 74213680 74342352 
3184.172 74468320 74590888 74709728 74825520 74939224 75052392 75166272 
3187.547 75281080 75396160 75510288 75621520 75729032 75832752 75933576 
3190.923 76032840 76131648 76231000 76330688 76430800 76530616 76629856 
3194.298 76728008 76824256 76917552 77006912 77091424 77171368 77248232 
3197.673 77324440 77402560 77484456 77570368 77658672 77746760 77831504 
3201.048 77910584 77983264 78050280 78112864 78173152 78232384 78291344 
3204.424 78350744 78410992 78472552 78535720 78600280 78664608 78726960 
3207.799 78784992 78837360 78884200 78927312 78969440 79013392 79060576 
3211.174 79110776 79161864 79211608 79257776 79299968 79339392 79378376 
3214.549 79419104 79463192 79510616 79559720 79609032 79656672 79701776 
3217.925 79744376 79785024 79824440 79863632 79903168 79943920 79986736 
3221.300 80032392 80081120 80132880 80186752 80241240 80295288 80348032 
3224.675 80399904 80451776 80505056 80560696 80618896 80679144 80740064 
3228.050 80800168 80858360 80913720 80965776 81014576 81060728 81104976 
3231.426 81149392 81196096 81247856 81306712 81373888 81448496 81528400 
3234.801 81610560 81691864 81770808 81846896 81921472 81995776 82071224 
3238.176 82147440 82224312 82300032 82374128 82446592 82518432 82591152 
3241.551 82665896 82743064 82821768 82901480 82980976 83060400 83140640 
3244.927 83223184 83309112 83399080 83492960 83589592 83687928 83787456 
3248.302 83887768 83989304 84091928 84195280 84298424 84400024 84499024 
3251.677 84595032 84688248 84779464 84869816 84960264 85050896 85141744 
3255.052 85232536 85322928 85412792 85502024 85590144 85676504 85760136 
3258.427 85839912 85915096 85985816 86052616 86116576 86179032 86241304 
3261.803 86303752 86366600 86429304 86490848 86549768 86604528 86653472 
3265.178 86695824 86731296 86760912 86786408 86810168 86834568 86860992 
3268.553 86889848 86920120 86950280 86978568 87003952 87025696 87044280 
3271.928 87059624 87072536 87083112 87091488 87097968 87103192 87107760 
3275.304 87112416 87117648 87122952 87127280 87130120 87130768 87129312 
3278.679 87127280 87126072 87127328 87132184 87140936 87153240 87168832 
3282.054 87187176 87208688 87233392 87261792 87293424 87327864 87364088 
3285.429 87401480 87439936 87480064 87522608 87568904 87619048 87673176 
3288.805 87730432 87790288 87852024 87915792 87982776 88054072 88131216 
3292.180 88215936 88308832 88410968 88522352 88643064 88772472 88910008 
3295.555 89054096 89204168 89359552 89520320 89686928 89860328 90040648 
3298.930 90227240 90418936 90614016 90810736 91008408 91207312 91409008 
3302.306 91615664 91828880 92050320 92280600 92519856 92767536 93023600 
3305.681 93287576 93559120 93837376 94121968 94412192 94708096 95010376 
3309.056 95319848 95637752 95963944 96296928 96634384 96973552 97311744 
3312.431 97648496 97984840 98323320 98666680 99017264 99375504 99740496 
3315.807 100109680 100480888 100851952 101221920 101590224 101957048 
3318.700 102322496 102686536 103049200 103410656 103771104 104130552 
3321.593 104488360 104842952 105192136 105534176 105867600 106192776 
3324.486 106511248 106825000 107135208 107442240 107744088 108038208 
3327.379 108322408 108595776 108858752 109112560 109358632 109596528 
3330.272 109824520 110039320 110237528 110417368 110578432 110721640 
3333.165 110847920 110957424 111048208 111117912 111163752 111184336 
3336.058 111181168 111157376 111116840 111062456 110994760 110911952 
3338.951 110810664 110687480 110540056 110367384 110169800 109947728 
3341.844 109701016 109429000 109130704 108805536 108454328 108078408 
3344.737 107679680 107259424 106817752 106353760 105867096 105358000 
3347.630 104828784 104283616 103727264 103164400 102598024 102028952 
3350.523 101456696 100880296 100299152 99713360 99124400 98533552 97942168 
3353.899 97350832 96759856 96169808 95582208 94999240 94424136 93859992 
3357.274 93309480 92774016 92254872 91752016 91265768 90796608 90344672 
3360.649 89909728 89491248 89087696 88697400 88318664 87950600 87592664 
3364.024 87245184 86909032 86584832 86273720 85976728 85694912 85429048 
3367.400 85179392 84945072 84724048 84513280 84309328 84109456 83911760 
3370.775 83715488 83520912 83327744 83134824 82939544 82738296 82526960 
3374.150 82302032 82061296 81804128 81530240 81240312 80933848 80609960 
3377.525 80267504 79905048 79521520 79116704 78690504 78242936 77774112 
3380.901 77283664 76771304 76237320 75682144 75106200 74510520 73895944 
3384.276 73263296 72614288 71951320 71277800 70597680 69915320 69234064 
3387.651 68556208 67882536 67212936 66546796 65883912 65224848 64570940 
3391.026 63924388 63286768 62659608 62043712 61438880 60844384 60258884 
3394.402 59680860 59108388 58540200 57974832 57412168 56852648 56297544 
3397.777 55748160 55205640 54670112 54140984 53616548 53095328 52576048 
3401.152 52058464 51542692 51029360 50519016 50011608 49506728 49003844 
3404.527 48502688 48003556 47507656 47016420 46530976 46051968 45579084 
3407.903 45111676 44649100 44190796 43736348 43286256 42840540 42399452 
3411.278 41962928 41531440 41105480 40686012 40274656 39872188 39479712 
3414.653 39096796 38722328 38355172 37994260 37638848 37289100 36945484 
3418.028 36608128 36276932 35951356 35630484 35313876 35001552 34694156 
3421.404 34392896 34098476 33810988 33529736 33252820 32978404 32704838 
3424.779 32430910 32156582 31881858 31608198 31336382 31067908 30804506 
3428.154 30548090 30299888 30061098 29830992 29607888 29388870 29170458 
3431.529 28950032 28726210 28499358 28271352 28045088 27822864 27606052 
3434.905 27394816 27188444 26985628 26785056 26586302 26389082 26193358 
3438.280 25999450 25806574 25614208 25421258 25227094 25031580 24835030 
3441.655 24638288 24442792 24250116 24061274 23876854 23696852 23520002 
3445.030 23344448 23168408 22990200 22809728 22627898 22447086 22270082 
3448.406 22099564 21936190 21779354 21627000 21476160 21324712 21171264 
3451.781 21016236 20860880 20706902 20555166 20405670 20257650 20110340 
3455.156 19962420 19814724 19668256 19524196 19383578 19246676 19112520 
3458.531 18979582 18846650 18712720 18577690 18442252 18307134 18173198 
3461.906 18040960 17910386 17781992 17656120 17533182 17413418 17296894 
3465.282 17182536 17069590 16956430 16842578 16727893 16613686 16501024 
3468.657 16391385 16285729 16184019 16085636 15989885 15895668 15802126 
3472.032 15708912 15615238 15520656 15424756 15327401 15228696 15130013 
3475.407 15033274 14940328 14853264 14773007 14699447 14631794 14567920 
3478.783 14505667 14443490 14379473 14312931 14243593 14172073 14099506 
3482.158 14027840 13959162 13895319 13837676 13786643 13741737 13701521 
3485.533 13664351 13628791 13593440 13557955 13521721 13485011 13448372 
3488.908 13412386 13378385 13348350 13324365 13308444 13301576 13303934 
3492.284 13313672 13328806 13346471 13364615 13382384 13400152 13419461 
3495.659 13442016 13469631 13503878 13545785 13596380 13656315 13726040 
3499.034 13805318 13893026 13987254 14085267 14184637 14284031 14383651 
3502.409 14485626 14593276 14710415 14839996 14983539 15140958 15310755 
3505.785 15490748 15678475 15871646 16068684 16268769 16471529 16678171 
3509.160 16890732 17111188 17342100 17584658 17838744 18102376 18372666 
3512.535 18646514 18921018 19194832 19467500 19739474 20010716 20280702 
3515.910 20547626 20809292 21063396 21307800 21541164 21761830 21967870 
3519.286 22156918 22326028 22471824 22592260 22686160 22753370 22794570 
3522.661 22809936 22799636 22762412 22697016 22602032 22476814 22321494 
3526.036 22137114 21924862 21686800 21424500 21140998 20839640 20523658 
3529.411 20196484 19861062 19519240 19172148 18820420 18464586 18105726 
3532.787 17745300 17383620 17021034 16657099 16291026 15922546 15552834 
3536.162 15184499 14821516 14467880 14126409 13797827 13481217 13173854 
3539.537 12873160 12577106 12285039 11997425 11715551 11440152 11171523 
3542.912 10908904 10651198 10397073 10145776 9897403 9653035 9413984 9182307 
3546.770 8960022 8748838 8549719 8362614 8185990 8016694 7850534 7683359 
3550.627 7511966 7334609 7152676 6969708 6789610 6617393 6455937 6306174 
3554.485 6167351 6037778 5915297 5798392 5685714 5576086 5468667 5361710 
3558.342 5253673 5143081 5029869 4914207 4797872 4683444 4572763 4468002 
3562.199 4370461 4280171 4196590 4118211 4042019 3964001 3880047 3785814 
3566.057 3678302 3557921 3428356 3296460 3170477 3057345 2961055 2882197 
3569.914 2817661 2762904 2713155 2663846 2612375 2557111 2498088 2435741 
3573.772 2371471 2306444 2242026 2178884 2117881 2058785 2001227 1944343 
3577.629 1886868 1828003 1767548 1704907 1640778 1575595 1510088 1445257 
3581.487 1382828 1324529 1272719 1229454 1195363 1169282 1148485 1127522 
3585.344 1100116 1061120 1006850 937478 857659 774237 695875 629008 577280 
3589.684 540122 515341 497925 482998 466313 444488 414771 376764 331068 
3594.023 279907 226629 175115 128943 90730 61666 40889 26806 16501 6958 
3598.845 -4605 -20343 -41216 -66793 -95514 -125361 -153516 -177992 -197632 
3603.185 -212105 -222769 -231478 -240917 -253467 -271514 -296514 -328929 
3607.042 -368724 -413415 -460120 -505066 -544613 -576216 -600040 -618403 
3610.899 -634715 -653441 -677989 -709251 -745802 -783443 -817243 -842741 
3614.757 -857986 -864136 -864699 -864566 -868237 -879281 -899022 -926928 
3618.614 -960222 -995827 -1030537 -1061905 -1088843 -1111482 -1129229 
3621.990 -1142647 -1151734 -1155568 -1153552 -1144828 -1129031 -1107186 
3625.365 -1081836 -1057509 -1040420 -1038338 -1057410 -1101038 -1166242 
3628.740 -1242602 -1315349 -1370115 -1399148 -1403904 -1391419 -1371437 
3632.115 -1352973 -1342502 -1342865 -1353072 -1369521 -1387753 -1403705 
3635.490 -1415463 -1422365 -1426097 -1427947 -1429135 -1429928 -1430853 
3638.866 -1431579 -1432900 -1435542 -1440232 -1447761 -1457999 -1469854 
3642.241 -1481345 -1490756 -1496436 -1497756 -1495016 -1490030 -1484812 
3645.616 -1482270 -1484779 -1494058 -1511195 -1535629 -1565706 -1599182 
3648.991 -1633282 -1665003 -1691969 -1711508 -1721937 -1722498 -1713158 
3652.367 -1695930 -1673453 -1649226 -1627605 -1611924 -1605025 -1607138 
3655.742 -1616777 -1629981 -1642294 -1650051 -1651800 -1647971 -1641105 
3659.117 -1633942 -1628727 -1626614 -1628595 -1634206 -1642921 -1653847 
3662.492 -1666357 -1678965 -1690517 -1699495 -1703818 -1702498 -1694742 
3665.868 -1681507 -1665102 -1649226 -1638861 -1638993 -1653286 -1682332 
3669.243 -1722234 -1763849 -1793647 -1800213 -1776026 -1721574 -1643251 
3672.618 -1552401 -1461862 -1383459 -1327835 -1301342 -1304447 -1331040 
3675.993 -1370049 -1411863 -1450502 -1485704 -1520011 -1556099 -1594494 
3679.369 -1633480 -1668766 -1696392 -1713884 -1721277 -1720320 -1714148 
3682.744 -1705105 -1694544 -1682167 -1667578 -1650777 -1633282 -1618329 
3686.119 -1609614 -1611297 -1626482 -1655926 -1697184 -1745797 -1796187 
3689.494 -1842942 -1883060 -1915324 -1940329 -1959427 -1974138 -1985781 
3692.870 -1995940 -2004878 -2012464 -2017477 -2018037 -2011936 -1998249 
3696.245 -1976612 -1948608 -1917600 -1887283 -1861286 -1842546 -1832846 
3699.620 -1832483 -1841259 -1857492 -1878409 -1900644 -1919712 -1931620 
3702.995 -1933566 -1924066 -1903943 -1875769 -1843305 -1810145 -1779622 
3706.371 -1753751 -1733587 -1718802 -1709198 -1704709 -1705798 -1713884 
3709.746 -1730221 -1755764 -1790050 -1830569 -1872833 -1911597 -1942011 
3713.121 -1960483 -1965760 -1958933 -1942901 -1920998 -1896817 -1873460 
3716.496 -1852675 -1835518 -1821397 -1809650 -1799421 -1790413 -1783285 
3719.872 -1778896 -1778071 -1781239 -1787674 -1795362 -1802985 -1808858 
3723.247 -1812950 -1816513 -1822023 -1831196 -1845152 -1863299 -1882698 
3726.622 -1899490 -1909683 -1910409 -1901040 -1883522 -1860329 -1835617 
3729.997 -1813148 -1795197 -1782724 -1775102 -1770185 -1766060 -1762199 
3733.373 -1759625 -1761572 -1771901 -1792690 -1823112 -1858251 -1890483 
3736.748 -1911333 -1915687 -1901931 -1872107 -1830635 -1781239 -1727614 
3740.123 -1671869 -1615886 -1562702 -1516709 -1485011 -1476557 -1499308 
3743.498 -1556165 -1639950 -1732927 -1811201 -1857030 -1865641 -1844064 
3746.874 -1805822 -1764575 -1732003 -1714148 -1712861 -1724049 -1741375 
3750.249 -1758272 -1770548 -1776686 -1777247 -1772363 -1760978 -1741408 
3753.624 -1713059 -1676127 -1633909 -1590566 -1550585 -1518030 -1496171 
3756.999 -1485572 -1486364 -1497360 -1516841 -1542298 -1570724 -1597828 
3760.375 -1618494 -1628529 -1625954 -1611660 -1590103 -1567456 -1550222 
3763.750 -1543057 -1547383 -1560721 -1577888 -1592876 -1601262 -1601856 
3767.125 -1597498 -1591919 -1589806 -1593570 -1603209 -1616513 -1629420 
3770.500 -1637870 -1640148 -1635758 -1626020 -1613179 -1599347 -1585614 
3773.875 -1572837 -1560589 -1548175 -1534902 -1520738 -1506176 -1493068 
3777.251 -1483888 -1481510 -1487817 -1503271 -1525988 -1552137 -1577063 
3780.626 -1596970 -1609713 -1616249 -1618956 -1620936 -1625129 -1632556 
3784.001 -1642624 -1653913 -1663815 -1670813 -1674476 -1675301 -1674476 
3787.376 -1672892 -1670945 -1668403 -1664706 -1659392 -1652658 -1645100 
3790.752 -1637441 -1630707 -1625327 -1621630 -1619814 -1620276 -1623280 
3794.127 -1629189 -1637606 -1647476 -1656289 -1661141 -1659161 -1648995 
3797.502 -1631698 -1610571 -1591358 -1580860 -1585614 -1610637 -1656487 
3800.877 -1718109 -1784275 -1839709 -1871415 -1872701 -1845317 -1797507 
3804.253 -1740451 -1686457 -1645958 -1624733 -1623082 -1635560 -1651536 
3807.628 -1660250 -1655134 -1635560 -1606213 -1573696 -1544543 -1522058 
3811.003 -1506705 -1495973 -1486265 -1475434 -1463645 -1454267 -1452252 
3814.378 -1462985 -1488643 -1526549 -1568843 -1604101 -1623775 -1624105 
3817.754 -1608359 -1584788 -1564716 -1558113 -1572474 -1608920 -1661967 
3821.129 -1718538 -1763387 -1784440 -1777576 -1746788 -1700848 -1650711 
3824.504 -1605784 -1571946 -1551311 -1541770 -1538402 -1535067 -1527473 
3827.879 -1513705 -1495478 -1477085 -1462622 -1455621 -1457569 -1467080 
3831.255 -1480222 -1492440 -1499143 -1497855 -1488478 -1472958 -1455059 
3834.630 -1439010 -1428937 -1428112 -1438548 -1459947 -1490690 -1527341 
3838.005 -1564881 -1598456 -1624601 -1640610 -1645694 -1640610 -1627043 
3841.380 -1607435 -1584953 -1562867 -1544345 -1531865 -1525624 -1524733 
3844.756 -1526615 -1527836 -1525327 -1517436 -1503502 -1484284 -1461301 
3848.131 -1435707 -1408197 -1379430 -1350660 -1324070 -1304547 -1298931 
3851.506 -1315085 -1359876 -1435641 -1535001 -1641072 -1733224 -1794636 
3854.881 -1819450 -1812356 -1783549 -1743389 -1699759 -1657115 -1617074 
3858.257 -1579638 -1543850 -1508686 -1474609 -1442048 -1412358 -1387092 
3861.632 -1367770 -1355846 -1352543 -1358225 -1372427 -1392872 -1415298 
3865.007 -1434552 -1445945 -1447002 -1438878 -1426361 -1416751 -1416751 
3868.382 -1431976 -1463447 -1506540 -1551741 -1588255 -1608524 -1610901 
3871.758 -1599908 -1582576 -1566432 -1556231 -1552962 -1554217 -1554910 
3875.133 -1550849 -1539128 -1520837 -1499011 -1478307 -1462952 -1455720 
3878.508 -1456843 -1464471 -1474014 -1479595 -1476260 -1460607 -1432438 
3881.883 -1394887 -1353633 -1315613 -1287633 -1275607 -1282314 -1307123 
3885.259 -1344087 -1383823 -1416222 -1433924 -1434816 -1421969 -1401955 
3888.634 -1382237 -1368761 -1365359 -1372328 -1386927 -1404366 -1419426 
3892.009 -1429102 -1432075 -1429301 -1422365 -1412457 -1399412 -1382600 
3895.384 -1361230 -1335664 -1307388 -1279770 -1256247 -1240752 -1236060 
3898.760 -1242206 -1257370 -1278118 -1300483 -1321295 -1338769 -1353534 
3902.135 -1366746 -1380123 -1394524 -1409980 -1424908 -1437656 -1445912 
3905.510 -1448488 -1444789 -1435377 -1421242 -1403904 -1384450 -1364467 
3908.885 -1344748 -1326184 -1308940 -1293149 -1278283 -1263615 -1248351 
3912.260 -1231402 -1212667 -1193040 -1173280 -1155733 -1142614 -1135905 
3915.636 -1136962 -1146183 -1162276 -1183127 -1206059 -1228626 -1248285 
3919.011 -1264540 -1275805 -1282347 -1283899 -1281058 -1274616 -1266357 
3922.386 -1257734 -1250862 -1246798 -1246005 -1247525 -1249474 -1249937 
3925.761 -1247162 -1240653 -1231104 -1219738 -1208603 -1198525 -1190099 
3929.137 -1183226 -1176948 -1170636 -1164127 -1157683 -1152098 -1147934 
3932.512 -1145753 -1145456 -1146744 -1149124 -1152098 -1155766 -1160194 
3935.887 -1165316 -1171000 -1176717 -1182037 -1186299 -1189240 -1191190 
3939.262 -1192578 -1194296 -1196609 -1200211 -1205233 -1211742 -1219672 
3942.638 -1228924 -1238803 -1248351 -1256148 -1260740 -1260641 -1255553 
3946.013 -1245510 -1231930 -1216533 -1201400 -1187985 -1177212 -1168621 
3949.388 -1161384 -1154114 -1146117 -1136202 -1124834 -1112044 -1098494 
3952.763 -1085372 -1073507 -1063657 -1057146 -1054435 -1055295 -1058798 
3956.139 -1063426 -1066863 -1067359 -1063492 -1055030 -1042635 -1028619 
3959.514 -1014835 -1003265 -995364 -991496 -991067 -993182 -996125 -998769 
3963.371 -999860 -998769 -995199 -989943 -982901 -975231 -967628 -960354 
3967.229 -953511 -947064 -940286 -932748 -924217 -914662 -904610 -894889 
3971.086 -886457 -879711 -874751 -871015 -868072 -865062 -861392 -857027 
3974.944 -852562 -848660 -845849 -844758 -845023 -845816 -845816 -843733 
3978.801 -838243 -829314 -817276 -803320 -788966 -776299 -766905 -762175 
3982.658 -762870 -768923 -779904 -794423 -810728 -826569 -839500 -847867 
3986.516 -850711 -848330 -842079 -833812 -825974 -820054 -817276 -817376 
3990.373 -819856 -823858 -828752 -834473 -840889 -847801 -854844 -860896 
3994.231 -864864 -865592 -862847 -856961 -849057 -840393 -832324 -824982 
3998.088 -818169 -811390 -804114 -796209 -788536 -782087 
##END=
