
##TITLE=Z295_1_b
##JCAMP-DX=5.01  $$ Nicolet v. 1
##DATATYPE=INFRARED SPECTRUM
##ORIGIN=UniL
##OWNER=Nicolet
##LONGDATE=2011/09/09
##TIME=13:32:58
##SPECTROMETER/DATA SYSTEM=Nicolet iS5
##DATA PROCESSING=
Ratio against background
%Transmittance->Absorbance
Truncated
ElementMultiply or ElementDivide
##COMMENTS=
Number of sample scans: 32
Collection length: 51.20 sec
Sample gain: 2.0
Background collected on: Ven Sep 09 13:27:55 2011 (GMT+02:00);
Number of background scans: 32
Background gain: 2.0
Sample spacing:  1.000
Number of scan points: 12415
Resolution points: 8192
Number of FFT points: 65536
Apodization: N-B fort;
Phase correction: Mertz;
Laser frequency: 15798.0 cm-1
Number of rejected sample scans: 0
Number of rejected background scans: 0
Bench serial number: ASB1000141;
##RESOLUTION=4.000
##XUNITS=1/CM
##YUNITS=ABSORBANCE
##FIRSTX=649.893372
##LASTX=4000.122314
##FIRSTY=0.100070
##MAXX=4000.122314
##MINX=649.893372
##MAXY=0.266152
##MINY=-0.001550
##XFACTOR=1.000000
##YFACTOR=1.000000E-009
##NPOINTS=6950
##DELTAX=0.482117
##ZPD=6100
##XYDATA=(X++(Y..Y))
649.893 100069752 98941608 97878896 96925344 96091048 95364168 94727048 
653.268 94172016 93702912 93330512 93059232 92878392 92761832 92678888 
656.643 92608144 92547456 92514776 92538184 92640336 92825544 93077456 
660.018 93365056 93660768 93948912 94233880 94532992 94868960 95255928 
663.393 95695688 96179360 96692712 97222288 97752976 98264160 98723952 
666.767 99083864 99298496 99353136 99292496 99201760 99167952 99234400 
670.142 99392912 99600160 99800280 99946400 100011264 99996328 99924792 
673.517 99829056 99731160 99631288 99510936 99344096 99113200 98818496 
676.892 98478096 98115688 97749944 97383960 97006320 96599952 96154264 
680.267 95669720 95158272 94633712 94104648 93568576 93016704 92439216 
683.642 91835232 91213608 90590504 89979176 89383528 88795600 88201648 
687.016 87592136 86969384 86350032 85758848 85220152 84746520 84335760 
690.391 83974320 83646832 83344328 83068624 82830144 82641856 82512176 
693.766 82441504 82425480 82460896 82551200 82709192 82952896 83296752 
697.141 83745384 84289608 84910104 85584168 86295424 87038648 87819368 
700.516 88647008 89526224 90451904 91409008 92377400 93338352 94281752 
703.890 95204064 96104768 96979392 97816464 98597120 99304488 99927600 
707.265 100468488 100939232 101357720 101738880 102091112 102418672 
710.158 102726704 103027184 103342928 103701096 104124696 104621856 
713.051 105179768 105765464 106332640 106837800 107248184 107548584 
715.943 107740520 107838152 107862968 107839216 107799504 107785712 
718.836 107846784 108039568 108416472 109009872 109824352 110825728 
721.729 111944432 113075312 114100880 114908928 115404632 115537856 
724.621 115310160 114781376 114054392 113258864 112525576 111948888 
727.514 111579400 111416080 111421312 111537168 111709096 111903568 
730.407 112107992 112326064 112566240 112830896 113113608 113403088 
733.300 113689872 113972752 114259528 114561248 114884488 115225824 
736.192 115571960 115907344 116222288 116518440 116808280 117109216 
739.085 117432896 117779096 118135200 118482176 118805576 119101840 
741.978 119380112 119655776 119943304 120247376 120562640 120877176 
744.870 121181768 121474792 121763360 122057696 122363176 122675800 
747.763 122981536 123264376 123512784 123727944 123922576 124115320 
750.656 124319656 124538704 124763160 124978896 125173432 125344752 
753.548 125500960 125656712 125822992 126002224 126186280 126362208 
756.441 126519768 126657184 126781944 126906576 127041432 127189640 
759.334 127346872 127505808 127662616 127820912 127990424 128180352 
762.227 128394320 128625808 128861312 129088104 129302960 129518864 
765.119 129764584 130078392 130494344 131037232 131711752 132500600 
768.012 133361888 134232384 135033136 135671520 136064272 136157600 
770.905 135947168 135492384 134912192 134363808 133985536 133861992 
773.797 133986112 134259328 134509328 134539584 134198440 133404152 
776.690 132166776 130563480 128703968 126683888 124554552 122321720 
779.583 119956672 117422208 114692696 111769232 108679216 105472544 
782.475 102207272 98944152 95743728 92658256 89733120 87004240 84493840 
785.850 82211496 80155632 78316624 76682744 75243448 73992704 72928072 
789.225 72048976 71353784 70839248 70500736 70334824 70341720 70526312 
792.600 70897136 71464312 72234176 73205840 74366968 75693184 77146312 
795.975 78672072 80207840 81680984 83016752 84155904 85062984 85742656 
799.350 86242072 86653024 87092504 87671024 88474984 89530088 90786928 
802.724 92108528 93289312 94095096 94284312 93682728 92218560 89945064 
806.099 87031448 83726336 80310952 77012336 73974472 71235360 68738488 
809.474 66370108 64006196 61564400 59018760 56407964 53808492 51314720 
812.849 49007180 46933648 45112372 43534924 42178704 41015992 40021492 
816.224 39173152 38450012 37832420 37302208 36843328 36445328 36103600 
819.598 35817552 35588044 35414448 35293568 35220616 35191188 35204052 
822.973 35261836 35370376 35536404 35764804 36057228 36412068 36824360 
826.348 37285708 37784272 38304360 38824348 39320836 39772284 40164408 
829.723 40497560 40790168 41080892 41420584 41869256 42487900 43323156 
833.098 44402948 45722112 47236456 48851348 50422400 51779152 52726972 
836.473 53093200 52766632 51714460 50001276 47769180 45221676 42570196 
839.847 39999256 37655432 35621672 33928300 32564924 31496956 30678608 
843.222 30061560 29603880 29267564 29020058 28837380 28702458 28606896 
846.597 28548824 28530672 28554450 28619318 28720406 28850342 29001780 
849.972 29168970 29349660 29543900 29753170 29978442 30220562 30480872 
853.347 30762074 31068228 31405050 31776786 32186162 32633536 33118594 
856.721 33643220 34214112 34842404 35544172 36337560 37238740 38263612 
860.096 39427640 40746564 42239980 43926504 45816912 47904132 50152500 
863.471 52492136 54813536 56988068 58880736 60367688 61369152 61856004 
866.846 61861660 61472776 60825288 60086096 59417800 58977504 58892992 
870.221 59249072 60095232 61440372 63258856 65488756 68034392 70772080 
873.596 73535272 76133704 78368056 80034264 80971208 81078864 80333480 
876.970 78792544 76582616 73882040 70877280 67753712 64672796 61747284 
880.345 59050688 56612696 54428060 52469628 50701180 49092060 47622556 
883.720 46288956 45100092 44072876 43222672 42558136 42078600 41774616 
887.095 41633100 41641088 41790960 42081484 42515636 43098136 43831636 
890.470 44716088 45748616 46926888 48251232 49726512 51362976 53174756 
893.844 55176672 57383012 59801992 62430540 65244100 68187136 71167824 
897.219 74043032 76634792 78749568 80191576 80813776 80537888 79370216 
900.594 77398952 74781360 71723632 68434352 65117904 61951412 59060672 
903.969 56533360 54415252 52716688 51425372 50514436 49952872 49708752 
907.344 49755976 50075488 50654152 51484904 52564228 53891308 55465900 
910.719 57286708 59346720 61628852 64099356 66700264 69355560 71969816 
914.093 74439688 76677608 78618144 80234344 81541632 82594840 83479464 
917.468 84288608 85116264 86031616 87062088 88185168 89322832 90354512 
920.843 91122536 91473872 91291688 90521928 89201688 87462952 85532808 
924.218 83682664 82209216 81393064 81432752 82432488 84367792 87092016 
927.593 90333824 93731728 96908896 99482272 101141440 101692144 101049272 
930.967 99242440 96382016 92638656 88206928 83286112 78087160 72805960 
934.342 67624456 62712504 58202276 54193496 50752644 47908864 45666752 
937.717 44013584 42926780 42376800 42323288 42713044 43465448 44469276 
941.092 45594576 46686348 47594124 48195292 48401220 48178744 47548984 
944.467 46582652 45381032 44057144 42725144 41474132 40366896 39438596 
947.841 38697696 38134884 37730312 37460992 37303436 37235092 37236032 
951.216 37285564 37363340 37451748 37536276 37608532 37667172 37717296 
954.591 37767644 37827648 37906172 38009232 38140128 38301104 38493164 
957.966 38716784 38970752 39252284 39556316 39877020 40209404 40550560 
961.341 40901084 41264204 41643896 42043260 42463312 42902528 43358340 
964.716 43828668 44312824 44812176 45328504 45863568 46417948 46991460 
968.090 47583992 48196772 48832924 49496776 50192220 50922012 51686732 
971.465 52485516 53318172 54186440 55095072 56050888 57061440 58132344 
974.840 59266960 60466236 61730020 63059284 64456500 65925644 67471704 
978.215 69099944 70815648 72626976 74546120 76591392 78788568 81165848 
981.590 83751728 86570920 89639312 92961744 96528560 100314088 104267144 
984.964 108302120 112303064 116108552 119523896 122353200 124402608 
987.857 125522152 125631032 124722888 122873176 120221984 116972128 
990.750 113353576 109597376 105933768 102550024 99587240 97141848 95257664 
994.125 93940488 93168280 92905640 93112320 93749736 94787008 96196400 
997.500 97952256 100031288 102407760 105054080 107940992 111028392 114261848 
1000.874 117568728 120845792 123967808 126800656 129204664 131065696 
1003.767 132309008 132907960 132891312 132339744 131384608 130181360 
1006.660 128905176 127735480 126823160 126295192 126241312 126709760 
1009.552 127719480 129265744 131332368 133896856 136936112 140428864 
1012.445 144349408 148670016 153362432 158394864 163736464 169352880 
1015.338 175190128 181164608 187145072 192931488 198281504 202918144 
1018.231 206565568 209017888 210164480 210031168 208776416 206693040 
1021.123 204173072 201627728 199485488 198116448 197783120 198651936 
1024.016 200767584 204074256 208428320 213634384 219476080 225713136 
1026.909 232116096 238463440 244527152 250100912 254998736 259069504 
1029.802 262223088 264429360 265717024 266152448 265827536 264842992 
1032.695 263290704 261259936 258828752 256054576 252973056 249588576 
1035.588 245878768 241801808 237317680 232407888 227087344 221408512 
1038.481 215453232 209326016 203131952 196972752 190945504 185129424 
1041.374 179588832 174364720 169464848 164861776 160493952 156282432 
1044.267 152142592 148008752 143853488 139693856 135592144 131638736 
1047.160 127947672 124632416 121788976 119497896 117809472 116744984 
1050.053 116299320 116443872 117133256 118307376 119905360 121866528 
1052.947 124131816 126648232 129357768 132188424 135055328 137847216 
1055.840 140432768 142680160 144457200 145652672 146193888 146046528 
1058.733 145225552 143793488 141866352 139601808 137182160 134816224 
1061.626 132700888 131008160 129884360 129426808 129691240 130692440 
1064.519 132407072 134775872 137700512 141057376 144687200 148404992 
1067.412 152029664 155380448 158303248 160689488 162466208 163599440 
1070.305 164083600 163932016 163170720 161833488 159963312 157609040 
1073.198 154823488 151670016 148219424 144557120 140792816 137049760 
1076.091 133468520 130200936 127382280 125134232 123550608 122685072 
1078.984 122554256 123129680 124341008 126065520 128131312 130338552 
1081.877 132449552 134232528 135499472 136121440 136066720 135401776 
1084.770 134287728 132942376 131608856 130538912 129941208 129977448 
1087.663 130752472 132300112 134587552 137511648 140919008 144601824 
1090.556 148318864 151838944 154937216 157429712 159191440 160146144 
1093.449 160271696 159590080 158161664 156074496 153430512 150345824 
1096.343 146931648 143288832 139512384 135682352 131868336 128132912 
1099.236 124521664 121063224 117762928 114602912 111545000 108541056 
1102.129 105550232 102548760 99542728 96567832 93689552 90991816 88559848 
1105.504 86479720 84823408 83642608 82973792 82833952 83223792 84129600 
1108.879 85525384 87374176 89625392 92220824 95090872 98149464 101301696 
1112.254 104434152 107415800 110116384 112404344 114165648 115322648 
1115.147 115833144 115697976 114952184 113662448 111915016 109802680 
1118.041 107426496 104879184 102238088 99566352 96905048 94277104 91695248 
1121.416 89167144 86703184 84321680 82046808 79908032 77936360 76157632 
1124.791 74593336 73260552 72171960 71340112 70778288 70499496 70516056 
1128.166 70835776 71459200 72376984 73567456 74998040 76619496 78369640 
1131.542 80175000 81947000 83597704 85047824 86236496 87137976 87765024 
1134.917 88171160 88434808 88652904 88923952 89324952 89907808 90687624 
1138.292 91641480 92708296 93795720 94798096 95596616 96081912 96168408 
1141.667 95793184 94925232 93561096 91720008 89437992 86764600 83764472 
1145.042 80509400 77079040 73558856 70027272 66557036 63211864 60038728 
1148.418 57073952 54342172 51856280 49621420 47635308 45890524 44374876 
1151.793 43073768 41972676 41056820 40314244 39736516 39317316 39052708 
1155.168 38940016 38976552 39159992 39488964 39963616 40586356 41362008 
1158.543 42296404 43394588 44660224 46094004 47693776 49453780 51363572 
1161.919 53406820 55556940 57774640 60011072 62202976 64281196 66177936 
1165.294 67825360 69165560 70153192 70754032 70950816 70743192 70148832 
1168.669 69200408 67943056 66430800 64717212 62854976 60894624 58878876 
1172.044 56848152 54839136 52882368 51005700 49231684 47576600 46052780 
1175.420 44668012 43426888 42332052 41384860 40585592 39933864 39428112 
1178.795 39066012 38845400 38764604 38823952 39025632 39373004 39870156 
1182.170 40520004 41323928 42281248 43389572 44644288 46036972 47552272 
1185.545 49166672 50842180 52527804 54164784 55684800 57022032 58120564 
1188.921 58934808 59438392 59624220 59505684 59114196 58496144 57711592 
1192.296 56822360 55891300 54977992 54131340 53392020 52792112 52352612 
1195.671 52086628 51997920 52081028 52319796 52686608 53145096 53646580 
1199.046 54134944 54551756 54833008 54918956 54759220 54314388 53566428 
1202.422 52521224 51210696 49687912 48021244 46288656 44561012 42901396 
1205.797 41359568 39966740 38740696 37687124 36803008 36079440 35503720 
1209.172 35062144 34739416 34521240 34396268 34355456 34393900 34509688 
1212.547 34702484 34971636 35315276 35729476 36209472 36749276 37341748 
1215.923 37979104 38650648 39342240 40037876 40719164 41367916 41969536 
1219.298 42512640 42989768 43396824 43731844 43995284 44189768 44322508 
1222.673 44405520 44455108 44493136 44543280 44628316 44770300 44986116 
1226.048 45287168 45678528 46157788 46714720 47330300 47980984 48638384 
1229.424 49273884 49864188 50392628 50851308 51241784 51574336 51867480 
1232.799 52145916 52443528 52800608 53260260 53870268 54674960 55711544 
1236.174 57010244 58590704 60462924 62629484 65086684 67823736 70819936 
1239.549 74045512 77457096 80997448 84604624 88209160 91739368 95129192 
1242.925 98311192 101220032 103798168 105993232 107765704 109092200 
1245.818 109963984 110385240 110369224 109936280 109112000 107926808 
1248.711 106418608 104626408 102587200 100331712 97878312 95235456 92406424 
1252.086 89397200 86225912 82929112 79558888 76184992 72886368 69736744 
1255.461 66806332 64149856 61799964 59769408 58047616 56604620 55390196 
1258.836 54341644 53390220 52461772 51491172 50427236 49235172 47902908 
1262.212 46437748 44865300 43220956 41547956 39891220 38289560 36775892 
1265.587 35374436 34098368 32952878 31935170 31037406 30248164 29555358 
1268.962 28948296 28417778 27956912 27560258 27222980 26939688 26705310 
1272.337 26515080 26365808 26256290 26187410 26161298 26179880 26244252 
1275.713 26352604 26500040 26677438 26872076 27065988 27237478 27364430 
1279.088 27425026 27403144 27291528 27092544 26817550 26482608 26106088 
1282.463 25703842 25287252 24864290 24441178 24024082 23622570 23248274 
1285.838 22914608 22635786 22423430 22287418 22236008 22276744 22417254 
1289.214 22665912 23030308 23515874 24124456 24852536 25690096 26619062 
1292.589 27614312 28638782 29646838 30587800 31406582 32056260 32505106 
1295.964 32740958 32774686 32637640 32377462 32045844 31694978 31372212 
1299.339 31113430 30944886 30882270 30929018 31076592 31303764 31580012 
1302.715 31865240 32116834 32297186 32374680 32329596 32155048 31855650 
1306.090 31446300 30949086 30392486 29806966 29222092 28665646 28158346 
1309.465 27714038 27339622 27036190 26802146 26635832 26537058 26507332 
1312.840 26548470 26660950 26842962 27090816 27400498 27768890 28195292 
1316.216 28680938 29227796 29837274 30509734 31244548 32041098 32899226 
1319.591 33819008 34798896 35832664 36906128 37997296 39074424 40097324 
1322.966 41024408 41813252 42428200 42848624 43073184 43125548 43050684 
1326.341 42915552 42796004 42761012 42868008 43147720 43601992 44206352 
1329.717 44918944 45692996 46482444 47255152 47993084 48691976 49359664 
1333.092 50012504 50672952 51364616 52110612 52929232 53829496 54808760 
1336.467 55851016 56930984 58013684 59060628 60034888 60899692 61622972 
1339.842 62180152 62554508 62741332 62747112 62589220 62290776 61877972 
1343.218 61377396 60811336 60198020 59551816 58881988 58195040 57494920 
1346.593 56783612 56061556 55326736 54576172 53805192 53010344 52191540 
1349.968 51354732 50514700 49694188 48926476 48251680 47712112 47353508 
1353.343 47216252 47331040 47715740 48367000 49257588 50331680 51514972 
1356.719 52716652 53838684 54795684 55514356 55943424 56059448 55866016 
1360.094 55395880 54704084 53872740 53000796 52189372 51538516 51123244 
1363.469 50979764 51102480 51444992 51933756 52473624 52968268 53326604 
1366.844 53467524 53337880 52916916 52222332 51304428 50238120 49107972 
1370.219 47986308 46932468 45986212 45168544 44492472 43967344 43603128 
1373.595 43411580 43401616 43573164 43913084 44397260 44996740 45682944 
1376.970 46435276 47242740 48101560 49014676 49989192 51037632 52176144 
1380.345 53424616 54800904 56310820 57936212 59622624 61283676 62796964 
1383.720 64022204 64828024 65093616 64736136 63728496 62119208 60043332 
1387.096 57701560 55338068 53165768 51326128 49880468 48814716 48070800 
1390.471 47569908 47236124 47000872 46802468 46590320 46318004 45946580 
1393.846 45453024 44833336 44106436 43304632 42462800 41604872 40738740 
1397.221 39862708 38975248 38085652 37221484 36424100 35735772 35189176 
1400.597 34795092 34545204 34418864 34393648 34451288 34580472 34777036 
1403.972 35040556 35369980 35761892 36209076 36702796 37235092 37800756 
1407.347 38397776 39026972 39689392 40384532 41109812 41859440 42626556 
1410.722 43404512 44187788 44972296 45754800 46531564 47298488 48052000 
1414.098 48790432 49515976 50235184 50957484 51693000 52450780 53237712 
1417.473 54058496 54915872 55810400 56735392 57675716 58604964 59489000 
1420.848 60290208 60975716 61523476 61923408 62184508 62334604 62419752 
1424.223 62491564 62594772 62758484 62990248 63282772 63622868 64000212 
1427.599 64409464 64848952 65318660 65817208 66344044 66901556 67499224 
1430.974 68153576 68882056 69698576 70606176 71597568 72656240 73765288 
1434.349 74914216 76100032 77329352 78613504 79963792 81380920 82854928 
1437.724 84368560 85896968 87409784 88864472 90209048 91373840 92277200 
1441.100 92843320 93001392 92699152 91907040 90615280 88837392 86610760 
1444.475 84003064 81105096 78017720 74853424 71716600 68702232 65900268 
1447.850 63382716 61196576 59354512 57835544 56596312 55590416 54788992 
1451.225 54187788 53805456 53665252 53777664 54121656 54644896 55260200 
1454.601 55857724 56323760 56545924 56452712 56048924 55436684 54777376 
1457.976 54219472 53855936 53710544 53768516 54002772 54387500 54899068 
1461.351 55509644 56185492 56880068 57534068 58088368 58490836 58715896 
1464.726 58775452 58717828 58609892 58509072 58453872 58455088 58502852 
1468.102 58572500 58630860 58638256 58543344 58287072 57806664 57048672 
1471.477 55996304 54693072 53253332 51825740 50546448 49498228 48699204 
1474.852 48126988 47747432 47536376 47484036 47590128 47851484 48253532 
1478.227 48767188 49356952 49984880 50622468 51255768 51885328 52524964 
1481.603 53195576 53921772 54726936 55635308 56675776 57881808 59290884 
1484.978 60936296 62835216 64973264 67289608 69681000 71991672 74025944 
1488.353 75580272 76448936 76470192 75570016 73783976 71262688 68224168 
1491.728 64907932 61506636 58139920 54872824 51722000 48687828 45786244 
1495.104 43056280 40565768 38399184 36628132 35289292 34376004 33852288 
1498.479 33667456 33772380 34128188 34701152 35459096 36370344 37397536 
1501.854 38500116 39637988 40760576 41808324 42707268 43349484 43598552 
1505.229 43299908 42322008 40634928 38365708 35776896 33142480 30646002 
1508.604 28351278 26242422 24278566 22429570 20685496 19059238 17574066 
1511.980 16247030 15085208 14080989 13217062 12472682 11828340 11267100 
1515.355 10773120 10332462 9935201 9577220 9262453 8998618 8791337 8637961 
1519.212 8524612 8427305 8321509 8190852 8039308 7891359 7780735 7730408 
1523.070 7741303 7794802 7863356 7923956 7963337 7983518 7997895 8023377 
1526.927 8070768 8139668 8221106 8304621 8385584 8466935 8557322 8664934 
1530.785 8791337 8929953 9066481 9185523 9279851 9355647 9432743 9533425 
1534.642 9672380 9848626 10050106 10258565 10457485 10636326 10788779 
1538.017 10912778 11007075 11069373 11095988 11086300 11048708 10999564 
1541.393 10957222 10933912 10928883 10930379 10919914 10882301 10811809 
1544.768 10716095 10612083 10519433 10449747 10402163 10365004 10322046 
1548.143 10260906 10177863 10081100 9985818 9908894 9858591 9832561 9820190 
1552.000 9809040 9791655 9768272 9746787 9738891 9753971 9794061 9853846 
1555.858 9921675 9984088 10025047 10026811 9972222 9851338 9674141 9473819 
1559.715 9296980 9177975 9125085 9127080 9161596 9204407 9232667 9230501 
1563.573 9191682 9121126 9033767 8948420 8880575 8834956 8805369 8777779 
1567.430 8737377 8673012 8581722 8469705 8350285 8239510 8149931 8088962 
1571.288 8058616 8057535 8082244 8126704 8181972 8234816 8269801 8273955 
1575.145 8241536 8180790 8112727 8064050 8052371 8080522 8138249 8211111 
1579.002 8286586 8357784 8424636 8491059 8562222 8641341 8728925 8823222 
1582.860 8921869 9023144 9125897 9228098 9325077 9409413 9472532 9507651 
1586.717 9512393 9491497 9455837 9419571 9397089 9401252 9441005 9522757 
1590.575 9651273 9829477 10056820 10325913 10621590 10918486 11185123 
1593.950 11391780 11513604 11537897 11466075 11312704 11100679 10855360 
1597.325 10602236 10362594 10153170 9988530 9879573 9833816 9854423 9940489 
1601.183 10087543 10290558 10545674 10850469 11202938 11598298 12026208 
1604.558 12469135 12905414 13309230 13655016 13921902 14092865 14158380 
1607.933 14116038 13970282 13731374 13413651 13036028 12620050 12188488 
1611.308 11765456 11370249 11015673 10706279 10438139 10201844 9984631 
1614.684 9774778 9563400 9347116 9131547 8929750 8759758 8636710 8569319 
1618.541 8557119 8592300 8662128 8751577 8847163 8937360 9016749 9086917 
1622.398 9156385 9236864 9338347 9466064 9618445 9789994 9974901 10169654 
1626.256 10372741 10583188 10799071 11016421 11230003 11436036 11633794 
1629.631 11826331 12018885 12215921 12418501 12623836 12824082 13009670 
1633.006 13170336 13296486 13380914 13420451 13417991 13382656 13330105 
1636.382 13277662 13237967 13215968 13208659 13207976 13203057 13182906 
1639.757 13140487 13074544 12990449 12898383 12809954 12733108 12669719 
1643.132 12614456 12557393 12486663 12391328 12265747 12111207 11938127 
1646.507 11763277 11607283 11488869 11419265 11402087 11433042 11502036 
1649.883 11593943 11686957 11754494 11762460 11677904 11486419 11213988 
1653.258 10930446 10709676 10590591 10563939 10595920 10650112 10700914 
1656.633 10734638 10746866 10740106 10719389 10689537 10652421 10606581 
1660.008 10548152 10472691 10376236 10257547 10118168 9964085 9804566 
1663.384 9650867 9513781 9400643 9313567 9248710 9197401 9148060 9086782 
1667.241 9001357 8883652 8732069 8552794 8357716 8162356 7980042 7819664 
1671.098 7684337 7572551 7478593 7392945 7303945 7197748 7062243 6892846 
1674.956 6697066 6495219 6311654 6165234 6061197 5991281 5939784 5890846 
1678.813 5834860 5770656 5705353 5649325 5610589 5587598 5568937 5532927 
1682.671 5456386 5322531 5133659 4916888 4714527 4562115 4470311 4428200 
1686.528 4414576 4410057 4400719 4379163 4343955 4296133 4238747 4175480 
1690.385 4111989 4054661 4010248 3983229 3973598 3975571 3976541 3960892 
1694.243 3913881 3828833 3713992 3593133 3496291 3442583 3432965 3450632 
1698.100 3470906 3466096 3414597 3309480 3165738 3017505 2899509 2830401 
1701.958 2806556 2811358 2824898 2830701 2818195 2782512 2725659 2654945 
1705.815 2581476 2514818 2460966 2420947 2392060 2369572 2348917 2327763 
1709.673 2305778 2285692 2270703 2263875 2266107 2276166 2290555 2305178 
1713.530 2316970 2324599 2327897 2327430 2321401 2306377 2277398 2231335 
1717.387 2170659 2104530 2047233 2010515 2000562 2016040 2050229 2094008 
1721.245 2139258 2180582 2215749 2245457 2271303 2295552 2319202 2342654 
1725.102 2366174 2390528 2416682 2445138 2474994 2503487 2526282 2540047 
1728.960 2543713 2539913 2533514 2529615 2529548 2528682 2515151 2472495 
1732.817 2385630 2248654 2073999 1890595 1733948 1628106 1576260 1566549 
1736.675 1579884 1598740 1608884 1602432 1577823 1539315 1494694 1452271 
1740.532 1418728 1396623 1385952 1385155 1392634 1407160 1427637 1453634 
1744.389 1484553 1520229 1559732 1601567 1643339 1682321 1714820 1738339 
1748.247 1750914 1752178 1742863 1723669 1695959 1661400 1622752 1584873 
1752.104 1552683 1530770 1521360 1523554 1532798 1542474 1545434 1536389 
1755.962 1514211 1482924 1449878 1423249 1407393 1401775 1400977 1398052 
1759.819 1385686 1359727 1320009 1270725 1218588 1170511 1132339 1106860 
1763.677 1094835 1094935 1104933 1121277 1138983 1152505 1156923 1150013 
1767.534 1133070 1112009 1094137 1084471 1084338 1089487 1092476 1085169 
1771.391 1063113 1028238 989415 957501 940566 940334 952354 969622 985496 
1775.731 996887 1004725 1011632 1020633 1031892 1043118 1049993 1048632 
1779.588 1037605 1019504 999843 984799 978124 979917 986891 994529 998581 
1783.928 997053 990511 981511 973043 966999 964874 967098 974404 987621 
1788.268 1007149 1031992 1059028 1082777 1096728 1094935 1074440 1037538 
1792.125 991075 944086 904838 877745 862871 857294 857194 859684 862407 
1796.465 864233 864299 861377 853941 841093 822535 799364 773805 748479 
1800.804 726076 708021 695410 688739 687877 693120 704105 719903 738555 
1805.144 757607 774535 788045 797871 804742 810286 815332 819846 822900 
1809.483 823266 820178 814137 806900 800460 796443 795481 796609 798601 
1813.823 800626 802684 805605 811315 821307 836445 856099 879638 905502 
1818.163 932862 961353 990843 1021131 1051853 1082246 1110813 1136724 
1822.020 1158817 1175761 1186293 1189549 1185728 1176757 1167056 1162139 
1825.877 1167056 1183967 1211411 1244041 1274214 1294353 1300102 1292126 
1829.735 1276341 1261919 1257831 1269130 1295350 1332107 1373754 1415404 
1833.592 1454831 1492101 1528708 1566450 1605591 1645501 1684916 1723103 
1837.450 1760762 1800253 1844573 1896386 1957590 2027958 2106327 2190339 
1841.307 2277432 2364108 2447270 2523516 2590809 2649444 2702353 2755101 
1845.165 2813292 2879829 2954049 3031752 3106232 3170310 3218810 3249120 
1849.022 3261405 3257766 3240207 3209797 3166606 3110203 3041161 2962123 
1852.879 2877561 2792549 2710922 2633676 2559444 2485325 2408353 2328096 
1856.737 2246023 2165597 2089647 2019835 1955493 1894422 1835024 1776465 
1860.594 1720043 1668052 1622120 1582811 1548526 1517403 1488144 1461347 
1864.452 1439406 1425011 1419360 1421255 1426474 1428901 1423582 1408656 
1868.309 1386085 1361455 1340981 1329581 1327986 1334434 1345368 1357866 
1872.167 1369898 1381133 1391204 1399947 1406130 1408922 1407459 1402407 
1876.024 1395326 1387980 1380767 1372823 1361322 1343374 1317384 1284483 
1879.881 1248128 1212906 1183568 1161907 1147721 1138286 1130811 1123004 
1883.739 1115131 1107989 1103106 1101346 1101611 1102010 1099851 1093108 
1887.596 1080884 1062947 1039531 1011799 980946 949333 920743 899625 889997 
1891.936 894114 911578 938408 968692 996555 1017644 1030796 1038501 1044114 
1896.275 1051189 1061353 1073576 1085534 1095898 1103770 1110381 1117756 
1900.133 1127589 1140412 1155528 1171275 1186725 1201576 1215930 1230152 
1903.990 1243011 1252448 1255937 1251950 1241250 1226397 1211976 1201809 
1907.848 1197623 1198320 1200447 1200712 1196858 1189183 1180146 1172704 
1911.705 1168285 1166923 1166890 1166425 1165096 1163667 1163601 1165362 
1915.563 1166956 1164033 1151574 1125961 1088225 1043915 1001869 969423 
1919.420 950030 940765 934589 923133 900555 866025 824328 783066 749409 
1923.760 727470 716949 714227 715157 717048 720367 726640 737361 752462 
1928.099 769556 785423 797207 803912 805970 805008 802352 796941 787713 
1932.439 773174 753989 732813 714692 702844 699160 701782 706030 707158 
1936.778 703143 695012 687445 685587 692124 706329 723852 738788 746222 
1941.118 745492 738854 731818 729196 733909 746388 764810 787348 812709 
1945.458 841657 873363 906531 938408 966102 988319 1007846 1029966 1060821 
1949.797 1104501 1159348 1217758 1269030 1301996 1310238 1294585 1261719 
1953.655 1221114 1182273 1149947 1124333 1102110 1078957 1052451 1022758 
1957.512 991374 960590 930405 900688 871437 844147 823133 813539 819614 
1961.852 841524 875919 914932 952122 982906 1006618 1025914 1043517 1060124 
1966.191 1073277 1079289 1075038 1061618 1045111 1033785 1035114 1052617 
1970.049 1082644 1118486 1151574 1175528 1189150 1194366 1194566 1192273 
1973.906 1188187 1182472 1178419 1184798 1213870 1278335 1386152 1533430 
1977.763 1704741 1875354 2021566 2124474 2177418 2183512 2153443 2100268 
1981.621 2034616 1964380 1894955 1829700 1772772 1728293 1698354 1682720 
1985.478 1677531 1677498 1676234 1672143 1665557 1660867 1663528 1675868 
1989.336 1697656 1724534 1750282 1769511 1779526 1779692 1771873 1758865 
1993.193 1742265 1723436 1703809 1684916 1668950 1658273 1653517 1654215 
1997.051 1658240 1662830 1665856 1667885 1670014 1673207 1677432 1679427 
2000.908 1674505 1658040 1627608 1585903 1538650 1494328 1460317 1441733 
2004.765 1440104 1454565 1483523 1526447 1582478 1650224 1725166 1799887 
2008.623 1864406 1912127 1939052 1949003 1949070 1949170 1956525 1972701 
2012.480 1995502 2018337 2037146 2049929 2058918 2067707 2079326 2093243 
2016.338 2106627 2115550 2117714 2115051 2113886 2121144 2141755 2176486 
2020.195 2220844 2267972 2311441 2348117 2377634 2403055 2426145 2446804 
2024.052 2462732 2470929 2469263 2461065 2450669 2444805 2448570 2462165 
2027.910 2482692 2505853 2527349 2546879 2568243 2596675 2636676 2690450 
2031.767 2755101 2825431 2897040 2964725 3026380 3081504 3129292 3168541 
2035.625 3198681 3218509 3229458 3234365 3236468 3238271 3240541 3241275 
2039.482 3238104 3229825 3217541 3205191 3198348 3201385 3215004 3236936 
2043.340 3260905 3281135 3294223 3299297 3299865 3302035 3312152 3335156 
2047.197 3375092 3432898 3506612 3590861 3675328 3748447 3796243 3809245 
2051.054 3784811 3729598 3658253 3589659 3542521 3528391 3548601 3593601 
2054.912 3648362 3696113 3726189 3735447 3729097 3715729 3703498 3697182 
2058.769 3696815 3700156 3704200 3708110 3712688 3720174 3730768 3742666 
2062.627 3751756 3753628 3745908 3729632 3708645 3688460 3673891 3667108 
2066.484 3667542 3673089 3681577 3692203 3705904 3723082 3743735 3765326 
2070.342 3784310 3796410 3799251 3792700 3778762 3760412 3739691 3717668 
2074.199 3693941 3668645 3643116 3620864 3606263 3603858 3615518 3639040 
2078.056 3669012 3699388 3723516 3738421 3744003 3742732 3738421 3734845 
2081.914 3733910 3737151 3744838 3756502 3771642 3788722 3805100 3817367 
2085.771 3822883 3819340 3806905 3788053 3766195 3744571 3725087 3707274 
2089.629 3688962 3667809 3642047 3612077 3580705 3551273 3527422 3511689 
2093.486 3504975 3507514 3518603 3536809 3561228 3589659 3619460 3647894 
2097.344 3672488 3692370 3707909 3721611 3735480 3750653 3766128 3779464 
2101.201 3786950 3786583 3778461 3766061 3754831 3750419 3757404 3777592 
2105.058 3810181 3852400 3900541 3950793 4000182 4045932 4086301 4119983 
2108.916 4146476 4167217 4184245 4199769 4215359 4230516 4242962 4249287 
2112.773 4246041 4232055 4208233 4179127 4149520 4124533 4107406 4098877 
2116.631 4097773 4102523 4110952 4122091 4135203 4149287 4163203 4175447 
2120.488 4185015 4192174 4198966 4207263 4219307 4235066 4252566 4267422 
2124.345 4276156 4275988 4267790 4255075 4242595 4235033 4234598 4240386 
2128.203 4249186 4257618 4261834 4260161 4252967 4241089 4226802 4212348 
2132.060 4199869 4192509 4193512 4205256 4227538 4258187 4291314 4319591 
2135.918 4338533 4345929 4344825 4341043 4340809 4347837 4361191 4376084 
2139.775 4386192 4387364 4378829 4364136 4349176 4338868 4335186 4336324 
2143.633 4338064 4336090 4329095 4317751 4305402 4294292 4284889 4274014 
2147.490 4257685 4231821 4196223 4153100 4106570 4060346 4015265 3969418 
2151.347 3918662 3858986 3788488 3706907 3614683 3511522 3395662 3265345 
2155.205 3122885 2978837 2854047 2775475 2774042 2869689 3065820 3341801 
2159.062 3659356 3972929 4241858 4441054 4563287 4615625 4614185 4576346 
2162.920 4519793 4456552 4395095 4341010 4294828 4254540 4214757 4169024 
2166.777 4112290 4042454 3962630 3879779 3803061 3739290 3691802 3659389 
2170.635 3635766 3613513 3587287 3553812 3513392 3468701 3423046 3379466 
2174.492 3341066 3309013 3284741 3269685 3262073 3259202 3257199 3250322 
2178.349 3235333 3212300 3184496 3157828 3138537 3130093 3130727 3136768 
2182.207 3140606 3137235 3124086 3101693 3072494 3039493 3003659 2965425 
2186.064 2925027 2884365 2847577 2820596 2808590 2813259 2832835 2860884 
2189.922 2890069 2914552 2932232 2945209 2957619 2975133 2998854 3028649 
2193.779 3061082 3092616 3120715 3144878 3166138 3185664 3203522 3218509 
2197.636 3228790 3233030 3231361 3225619 3218609 3213002 3209663 3208595 
2201.494 3208462 3208462 3207994 3208195 3209029 3210364 3210899 3208762 
2205.351 3202287 3192473 3181425 3173381 3171712 3177854 3189903 3203922 
2209.209 3214904 3219544 3217141 3209530 3200617 3195010 3194776 3200851 
2213.066 3212568 3228757 3248352 3271220 3295892 3320832 3343838 3361001 
2216.924 3369883 3369950 3362670 3351518 3340599 3331851 3326175 3322435 
2220.781 3317827 3309748 3297361 3280067 3258367 3232997 3203855 3171145 
2224.638 3135867 3100258 3068189 3043964 3030751 3029450 3038992 3055009 
2228.496 3073462 3090948 3105864 3118012 3128758 3138270 3145979 3150518 
2232.353 3150185 3145212 3137035 3129092 3124854 3127290 3136935 3152688 
2236.211 3171979 3191672 3209764 3224952 3237770 3248419 3258668 3269184 
2240.068 3281469 3296860 3315757 3338161 3362403 3385811 3405948 3420809 
2243.926 3430527 3437774 3446925 3462189 3486737 3520775 3562264 3607199 
2247.783 3651269 3691468 3726490 3755867 3779296 3796476 3805969 3807106 
2251.640 3800554 3788588 3775352 3765626 3762986 3768400 3780466 3795340 
2255.498 3809011 3818471 3822014 3819875 3813457 3803195 3789524 3772612 
2259.355 3752558 3730734 3709446 3691000 3676932 3668244 3663399 3660525 
2263.213 3658387 3656415 3655747 3658420 3665504 3676965 3691100 3704701 
2267.070 3714961 3720308 3720842 3718470 3715863 3714326 3714593 3715930 
2270.927 3716899 3716531 3714894 3712922 3711920 3713323 3717868 3725588 
2274.785 3736316 3749684 3765225 3782271 3800053 3817401 3832777 3844711 
2278.642 3852734 3857749 3861493 3866140 3873795 3885563 3901444 3921002 
2282.500 3943304 3967579 3993193 4019679 4045597 4069443 4089277 4103560 
2286.357 4112056 4115334 4115300 4113695 4111955 4110517 4109279 4107641 
2290.215 4105801 4104864 4106302 4111989 4122760 4138214 4156780 4176183 
2294.072 4194516 4211044 4225899 4240152 4254740 4269697 4284019 4296367 
2297.929 4305135 4309987 4311359 4311125 4311292 4314036 4320495 4331070 
2301.787 4345795 4363600 4383782 4404936 4425689 4444468 4460001 4471550 
2305.644 4479417 4485242 4490799 4497897 4508209 4521300 4536299 4551701 
2309.502 4566233 4579326 4591916 4605010 4620079 4638297 4659698 4683478 
2313.359 4708866 4734424 4759246 4782830 4804773 4825077 4843940 4862402 
2317.217 4881501 4902947 4928014 4957740 4992362 5031445 5074185 5120115 
2321.074 5168128 5216616 5263030 5302305 5328199 5333835 5313407 5264774 
2324.931 5190158 5097049 4995479 4897050 4812245 4747354 4704679 4681635 
2328.789 4673329 4673463 4676745 4679458 4680128 4678721 4676109 4673731 
2332.646 4673162 4675975 4683544 4696808 4715699 4739348 4765644 4792981 
2336.504 4819984 4846118 4872253 4899630 4929354 4961527 4995244 5028830 
2340.361 5060474 5088868 5113577 5135034 5153509 5168698 5179495 5184089 
2344.219 5180702 5168765 5149854 5127423 5107240 5095305 5097384 5117701 
2348.076 5158304 5219131 5297945 5391097 5493330 5598741 5701761 5797720 
2351.933 5884095 5960208 6027128 6086868 6140264 6187819 6228858 6262875 
2355.791 6290172 6312628 6332969 6354487 6379805 6409463 6442182 6476183 
2359.648 6508101 6535682 6557647 6573054 6581699 6584592 6582506 6576956 
2363.506 6570363 6564778 6561549 6561717 6563836 6566191 6566326 6562827 
2367.363 6555393 6545369 6534976 6526432 6520916 6518494 6518023 6518158 
2371.220 6517889 6516779 6515131 6513651 6512137 6511128 6510321 6510287 
2375.078 6511767 6516308 6524750 6538036 6555461 6575812 6597107 6618200 
2378.935 6639025 6660659 6685356 6714799 6750403 6791764 6837405 6884531 
2382.793 6931124 6975331 7016478 7054598 7090566 7125224 7159076 7192695 
2386.650 7226215 7259670 7292555 7324298 7353919 7379969 7401270 7417380 
2390.508 7428267 7434941 7438514 7440131 7440030 7438581 7435177 7429918 
2394.365 7423784 7418695 7416672 7419942 7429548 7445424 7466019 7489447 
2398.222 7513618 7537251 7560279 7582666 7605393 7629469 7655570 7684809 
2402.080 7718199 7756718 7801077 7852187 7909446 7972347 8039781 8111005 
2405.937 8185821 8264196 8346164 8431291 8518631 8606393 8692990 8777779 
2409.795 8861705 8946695 9035931 9131209 9233682 9341834 9452485 9561233 
2413.652 9664452 9759326 9844797 9921369 9989784 10051123 10105823 10153848 
2417.510 10195026 10229389 10257683 10280991 10300466 10317057 10331308 
2420.885 10343151 10352652 10359642 10365004 10369686 10374981 10382582 
2424.260 10393849 10409834 10431350 10458978 10492921 10533283 10580269 
2427.635 10633847 10694326 10762047 10837661 10921680 11014212 11114955 
2431.010 11223067 11337088 11455868 11578153 11703433 11831609 11962785 
2434.386 12097000 12234426 12374964 12518514 12665216 12815925 12971262 
2437.761 13132017 13298775 13471373 13649648 13833297 14021816 14215244 
2441.136 14413587 14616612 14824088 15034714 15247743 15462489 15678648 
2444.511 15896562 16117545 16341943 16570104 16801384 17034542 17267448 
2447.887 17498616 17726800 17951306 18172264 18389604 18603558 18813984 
2451.262 19020462 19222364 19419196 19610018 19793776 19969846 20137410 
2454.637 20295980 20445714 20586502 20718232 20840336 20951382 21049276 
2458.012 21131780 21196626 21242380 21268546 21275262 21263152 21232604 
2461.388 21184066 21117726 21034252 20935004 20822086 20698770 20568402 
2464.763 20434218 20299312 20166426 20038162 19917426 19807580 19711562 
2468.138 19632376 19571714 19530366 19507838 19502882 19515082 19543986 
2471.513 19590362 19654980 19738226 19839002 19954718 20081570 20215090 
2474.889 20351046 20486318 20619334 20749650 20877256 21002326 21124650 
2478.264 21243250 21356488 21461992 21557424 21640130 21708082 21759742 
2481.639 21794580 21813114 21817086 21808028 21788168 21758592 21719890 
2485.014 21672762 21617284 21554602 21486676 21415590 21343994 21273906 
2488.390 21205810 21139364 21073030 21004760 20932536 20854936 20770954 
2491.765 20680282 20582542 20477182 20363790 20241820 20110896 19971060 
2495.140 19822736 19666628 19503160 19333240 19156808 18974320 18786304 
2498.515 18592940 18394754 18192616 17987324 17779818 17571546 17363410 
2501.891 17156788 16952916 16752446 16556129 16364135 16177004 15995007 
2505.266 15819170 15650377 15489751 15338283 15195822 15061916 14935561 
2508.641 14815482 14700543 14590535 14485420 14385603 14291289 14202371 
2512.016 14118502 14039270 13964430 13894019 13828645 13768584 13714447 
2515.392 13665958 13622843 13584893 13552075 13525549 13506408 13496256 
2518.767 13495914 13504972 13521892 13544247 13569612 13595525 13620962 
2522.142 13645716 13670232 13695399 13721765 13749295 13778092 13807268 
2525.517 13836411 13864632 13891692 13916940 13940138 13960941 13979590 
2528.893 13995672 14008846 14018360 14022945 14021337 14012474 13996185 
2532.268 13973532 13946399 13917180 13888031 13860117 13833058 13805420 
2535.643 13775391 13741805 13704872 13666061 13628176 13594602 13567732 
2539.018 13549102 13538983 13536179 13539052 13545648 13553887 13561783 
2542.394 13567595 13569612 13566706 13558638 13545888 13529685 13511910 
2545.769 13494274 13477594 13462692 13449124 13436411 13424382 13413002 
2549.144 13402852 13394377 13387782 13382623 13378556 13374559 13370048 
2552.519 13365230 13360002 13354979 13350435 13346266 13342200 13337553 
2555.895 13331916 13325014 13317566 13310391 13304652 13300996 13300073 
2559.270 13301372 13303866 13305266 13303319 13295632 13280600 13257370 
2562.645 13226729 13190795 13151654 13112380 13074920 13040057 13008168 
2566.020 12978397 12950439 12923608 12898656 12876231 12857119 12841692 
2569.396 12830020 12821386 12815516 12811967 12811217 12813639 12820021 
2572.771 12830430 12844900 12862784 12883364 12906097 12931118 12958665 
2576.146 12988606 13020868 13054603 13088578 13121874 13153874 13184750 
2579.521 13215320 13246336 13278448 13311963 13346710 13382212 13418640 
2582.896 13456335 13496017 13538504 13584005 13632040 13682064 13732845 
2586.272 13783975 13835829 13889126 13944654 14003337 14064800 14128052 
2589.647 14192032 14255097 14316732 14377007 14436365 14495766 14555688 
2593.022 14616270 14676826 14736773 14795358 14852065 14906721 14958950 
2596.397 15008783 15056050 15100852 15143772 15185838 15228216 15272109 
2599.773 15318718 15368593 15421529 15477459 15536075 15597034 15660819 
2603.148 15727567 15797282 15869686 15944201 16019931 16096672 16174287 
2606.523 16253462 16335130 16420392 16510008 16604219 16702652 16804656 
2609.898 16909128 17014902 17120734 17225594 17328340 17428318 17525076 
2613.274 17618714 17709440 17797664 17883558 17967190 18048318 18126212 
2616.649 18200630 18271226 18338238 18402082 18463410 18522430 18579316 
2620.024 18634200 18686948 18737834 18787412 18836544 18885926 18936108 
2623.399 18987440 19039816 19092818 19146280 19200096 19254160 19308818 
2626.775 19364248 19419820 19475400 19530678 19585128 19638754 19692214 
2630.150 19746096 19801096 19857730 19916282 19976470 20037952 20099790 
2633.525 20161428 20222414 20282022 20340596 20398378 20456064 20514384 
2636.900 20574274 20636118 20700160 20766124 20833590 20901592 20969360 
2640.276 21036338 21102144 21166778 21230654 21294018 21357566 21421820 
2643.651 21487336 21554464 21623378 21693870 21765872 21838722 21912352 
2647.026 21986830 22062680 22140706 22221884 22306670 22395204 22487108 
2650.401 22580952 22675372 22769360 22861762 22952262 23041314 23129474 
2653.777 23217200 23305466 23394624 23485306 23577616 23671658 23767542 
2657.152 23865196 23964520 24064916 24166106 24267670 24369152 24470202 
2660.527 24570400 24669394 24766902 24862324 24955560 25046392 25134890 
2663.902 25221406 25306322 25390518 25474414 25558924 25644752 25732002 
2667.278 25820286 25909156 25997724 26085010 26170344 26253650 26335460 
2670.653 26416616 26498000 26580488 26664544 26749990 26836968 26925094 
2674.028 27014364 27104922 27196628 27289694 27383346 27476768 27569084 
2677.403 27659724 27748934 27837594 27926948 28018334 28112848 28210600 
2680.779 28311454 28414982 28520978 28629758 28742354 28859902 28983218 
2684.154 29113374 29250268 29393586 29542978 29698138 29859172 30026122 
2687.529 30199356 30378626 30563448 30753076 30946808 31143832 31344112 
2690.904 31547408 31753686 31962916 32174994 32389958 32607782 32828786 
2694.280 33053518 33282652 33516600 33755580 33999532 34248100 34501184 
2697.655 34758652 35020804 35287600 35558880 35834212 36112928 36394196 
2701.030 36676872 36960564 37244876 37529516 37813948 38097876 38380436 
2704.405 38660900 38938096 39211484 39480000 39742836 39998528 40245936 
2707.781 40483592 40710280 40925620 41129592 41322324 41504388 41676132 
2711.156 41837256 41987672 42127296 42256012 42374244 42482132 42579808 
2714.531 42666800 42742220 42804776 42853120 42886844 42905716 42910324 
2717.906 42901616 42880916 42849356 42808216 42759220 42704232 42645852 
2721.281 42587152 42531096 42480340 42437224 42402920 42378628 42364928 
2724.657 42362444 42371428 42392580 42426304 42473180 42533360 42607512 
2728.032 42695752 42798012 42914128 43042816 43182524 43331140 43486176 
2731.407 43645920 43808872 43974640 44143224 44314364 44487736 44662212 
2734.782 44836128 45007760 45175640 45338732 45496544 45649120 45796592 
2738.158 45939176 46076984 46209896 46338020 46461976 46582208 46699852 
2741.533 46816052 46931984 47049060 47168676 47292428 47421576 47557152 
2744.908 47699800 47849412 48005776 48168040 48335112 48505912 48679300 
2748.283 48853168 49025396 49192720 49352204 49500936 49636424 49757572 
2751.659 49864376 49957260 50037676 50106464 50164700 50213200 50252292 
2755.034 50282724 50304188 50316352 50318140 50307648 50282648 50241096 
2758.409 50181768 50104044 50007964 49894664 49764672 49618484 49456264 
2761.784 49278112 49084636 48877084 48657544 48428412 48192548 47952600 
2765.160 47710972 47469768 47231100 46997332 46770696 46553548 46347716 
2768.535 46154912 45975676 45810616 45660160 45524952 45405492 45302576 
2771.910 45216232 45146376 45091712 45050768 45021472 45001956 44990492 
2775.285 44985048 44983800 44984536 44984572 44981448 44972372 44955172 
2778.661 44927648 44888224 44835024 44766956 44683144 44583628 44469932 
2782.036 44344268 44210604 44072840 43934532 43799052 43668084 43542616 
2785.411 43423004 43309356 43201188 43098176 42999132 42902240 42804816 
2788.786 42704380 42598304 42484980 42364048 42236220 42102652 41965336 
2792.162 41825728 41685432 41545912 41408772 41275756 41149044 41030452 
2795.537 40921360 40822632 40734084 40655664 40586792 40527388 40478140 
2798.912 40439732 40412968 40398424 40396276 40405840 40426420 40456828 
2802.287 40496068 40542772 40596104 40654352 40716540 40781324 40847348 
2805.663 40913752 40979544 41044072 41106752 41166600 41222960 41274992 
2809.038 41321556 41361536 41393972 41417556 41431044 41433448 41424008 
2812.413 41402100 41368172 41322616 41266100 41199496 41123436 41038976 
2815.788 40947468 40850988 40752280 40655192 40563364 40480976 40412020 
2819.164 40359332 40326024 40314244 40325916 40362276 40424132 40511272 
2822.539 40622228 40754428 40904504 41068364 41241908 41421056 41601924 
2825.914 41780820 41954240 42118464 42270108 42406280 42524808 42624436 
2829.289 42704856 42766604 42810812 42838896 42852096 42852096 42840576 
2832.665 42818968 42789420 42753552 42713080 42669944 42625348 42581016 
2836.040 42537820 42496380 42457320 42420384 42385128 42351484 42319524 
2839.415 42290160 42264740 42245492 42235012 42236292 42251812 42284572 
2842.790 42337312 42413224 42516184 42649948 42818420 43024524 43269308 
2846.166 43550856 43863636 44198572 44541740 44876356 45183768 45444416 
2849.541 45641020 45760508 45795152 45744312 45613972 45416268 45166340 
2852.916 44881464 44579040 44273344 43976988 43699232 43445964 43220700 
2856.291 43024596 42856780 42714872 42595232 42493856 42406464 42329060 
2859.667 42258460 42191960 42127408 42063084 41997492 41929612 41858308 
2863.042 41783336 41704436 41622888 41540336 41459656 41384316 41319048 
2866.417 41268356 41237132 41229812 41249888 41299548 41379760 41489768 
2869.792 41627664 41789356 41970044 42162788 42360324 42554772 42738452 
2873.167 42905896 43053100 43179048 43285120 43374304 43450688 43517892 
2876.543 43579208 43636468 43691428 43745108 43799200 43855132 43915432 
2879.918 43982012 44056964 44141536 44236616 44342360 44458044 44582420 
2883.293 44713440 44847408 44979608 45104728 45216640 45310376 45382172 
2886.668 45430584 45456736 45464540 45459644 45449012 45440588 45442280 
2890.044 45461596 45506332 45585044 45706540 45881984 46124916 46450620 
2893.419 46877612 47426044 48115328 48964196 49985216 51181316 52540592 
2896.794 54033728 55610076 57195304 58703304 60036368 61096868 61807676 
2900.169 62114848 61999644 61479384 60604732 59451080 58100488 56640856 
2903.545 55149808 53688008 52303836 51028984 49881804 48872524 48003740 
2906.920 47273920 46678560 46211664 45866848 45637564 45518620 45504460 
2910.295 45589460 45766916 46027652 46359068 46746268 47170780 47612464 
2913.670 48051556 48467900 48844004 49165560 49422108 49607600 49720604 
2917.046 49763408 49741408 49661904 49533948 49366752 49169492 48951512 
2920.421 48721296 48486720 48254792 48031088 47820448 47627064 47454652 
2923.796 47307208 47189028 47104008 47055708 47046588 47077604 47147660 
2927.171 47254452 47393708 47560444 47748212 47950344 48158492 48364184 
2930.547 48558676 48733012 48878864 48989304 49057776 49079632 49050508 
2933.922 48967460 48828880 48635384 48389592 48097080 47765816 47406088 
2937.297 47028420 46644916 46267020 45905516 45570876 45272200 45016508 
2940.672 44808868 44651524 44543428 44480652 44456464 44462116 44486308 
2944.048 44516920 44540160 44540856 44504880 44418916 44273048 44062424 
2947.423 43788752 43459660 43087636 42689244 42281832 41880348 41497972 
2950.798 41143216 40820596 40531536 40274872 40048124 39848184 39671964 
2954.173 39516908 39380876 39262256 39160172 39073628 39001488 38942664 
2957.549 38895804 38859892 38833880 38817752 38811848 38816668 38832608 
2960.924 38859640 38897108 38943860 38998804 39060648 39128700 39202672 
2964.299 39282568 39368576 39461020 39560204 39666808 39781760 39906440 
2967.674 40041908 40189484 40349840 40523932 40711992 40915280 41135016 
2971.050 41373020 41630984 41909868 42209048 42525868 42855464 43190064 
2974.425 43519576 43832884 44116632 44357772 44544160 44665480 44715020 
2977.800 44691036 44597032 44441380 44236472 43998072 43741808 43483208 
2981.175 43235924 43010328 42813776 42649800 42518232 42415268 42333368 
2984.551 42263644 42195212 42117952 42024028 41908408 41769400 41609104 
2987.926 41431624 41241868 41044436 40842328 40635908 40423984 40203192 
2991.301 39970156 39722176 39458408 39180480 38892800 38601504 38313048 
2994.676 38033388 37766452 37513296 37273108 37042868 36819168 36599076 
2998.052 36380648 36163304 35947684 35734588 35525220 35320056 35119368 
3001.427 34923012 34731016 34543268 34360012 34181668 34008704 33841648 
3004.802 33681100 33527520 33381540 33243734 33114374 32993558 32880786 
3008.177 32775186 32675616 32580956 32490286 32403416 32320134 32241046 
3011.552 32166500 32097142 32032896 31973616 31918622 31867132 31817750 
3014.928 31770014 31722960 31676478 31630792 31586070 31542812 31501484 
3018.303 31462044 31424750 31389698 31357288 31328228 31303264 31283182 
3021.678 31268652 31260036 31257116 31259752 31267904 31281684 31301982 
3025.053 31329584 31365552 31409968 31463258 31524356 31592126 31664826 
3028.429 31740210 31815964 31889204 31956352 32014738 32061112 32093502 
3031.804 32111056 32114376 32104846 32084796 32056794 32023120 31985850 
3035.179 31946830 31907640 31869948 31834934 31803560 31776250 31753008 
3038.554 31733618 31717862 31705740 31697188 31692590 31691984 31695266 
3041.930 31701644 31710624 31721712 31735114 31751476 31771544 31796142 
3045.305 31825236 31858146 31893552 31930104 31966872 32003932 32041956 
3048.680 32082052 32125328 32171960 32221846 32274022 32327634 32381926 
3052.055 32436658 32492038 32548066 32604854 32662146 32719772 32777652 
3055.431 32836076 32895974 32957956 33022660 33090200 33160112 33231646 
3058.806 33304188 33377428 33451680 33527016 33604192 33682892 33762888 
3062.181 33843868 33925904 34009168 34094964 34184392 34279076 34379552 
3065.556 34485868 34597160 34712172 34829088 34946320 35062000 35174336 
3068.932 35281852 35383136 35477540 35565280 35647424 35725772 35802260 
3072.307 35878548 35955280 36032672 36109972 36186600 36261948 36336228 
3075.682 36409692 36483164 36557156 36631916 36707628 36784400 36862412 
3079.057 36942132 37023704 37106992 37191628 37276648 37360776 37443584 
3082.433 37524640 37604592 37683908 37763380 37843556 37924540 38006372 
3085.808 38089452 38174424 38262672 38355392 38453776 38558156 38667780 
3089.183 38781488 38897688 39015372 39133960 39253516 39374308 39496512 
3092.558 39619476 39742472 39864196 39983888 40101136 40216564 40331480 
3095.934 40447040 40564744 40685104 40808328 40934140 41061880 41191264 
3099.309 41321708 41453312 41585764 41718916 41852364 41985776 42118572 
3102.684 42250204 42380380 42509132 42636568 42763204 42889692 43016476 
3106.059 43143988 43272016 43400372 43528768 43657132 43785896 43915652 
3109.435 44047608 44182140 44319572 44459252 44600224 44741208 44881464 
3112.810 45020736 45159576 45298752 45438600 45579084 45719496 45858560 
3116.185 45995532 46129744 46261900 46393356 46525260 46658788 46794352 
3119.560 46931504 47069372 47207240 47344968 47482704 47621188 47760932 
3122.936 47902280 48044784 48187772 48330112 48471496 48611552 48750804 
3126.311 48890248 49030848 49173572 49319092 49467184 49617444 49768272 
3129.686 49918192 50065408 50208884 50348056 50483656 50617176 50750968 
3133.061 50887028 51027160 51171624 51319900 51470468 51621608 51771872 
3136.437 51920688 52067468 52212948 52357396 52501256 52644788 52788596 
3139.812 52932896 53078108 53224752 53373020 53522728 53673760 53825180 
3143.187 53976884 54128412 54279656 54430724 54581884 54732912 54883536 
3146.562 55033804 55183820 55334152 55485400 55638208 55792652 55948360 
3149.938 56104272 56258996 56411812 56562080 56710056 56856540 57002196 
3153.313 57148096 57294304 57441248 57588920 57737552 57887408 58038788 
3156.688 58191632 58345772 58500388 58654868 58808340 58960580 59111540 
3160.063 59261604 59410960 59559800 59707888 59855156 60001712 60147932 
3163.438 60294132 60441024 60588388 60735916 60882616 61027384 61169568 
3166.814 61308860 61445676 61580744 61714780 61848096 61980688 62112212 
3170.189 62242132 62370408 62497308 62623212 62748724 62874392 63000060 
3173.564 63125564 63250116 63372864 63492924 63609444 63721820 63829884 
3176.939 63934176 64036072 64137144 64239204 64343864 64451700 64561904 
3180.315 64672640 64781980 64887964 64989812 65087840 65183580 65278372 
3183.690 65373808 65470068 65566824 65663128 65757640 65849864 65939912 
3187.065 66028236 66115692 66203132 66291204 66380144 66469872 66560544 
3190.440 66652052 66744348 66837052 66929856 67022092 67113504 67203656 
3193.816 67292008 67378208 67460984 67539368 67612064 67678392 67739072 
3197.191 67795584 67850392 67906872 67967272 68033224 68104920 68181400 
3200.566 68260768 68341040 68420472 68497424 68570984 68640176 68704296 
3203.941 68763792 68819232 68872344 68925352 68979840 69037048 69096752 
3207.317 69157360 69217120 69274248 69327808 69377952 69426000 69472888 
3210.692 69519320 69565048 69608920 69650152 69688384 69724136 69759384 
3214.067 69796272 69836896 69882504 69932832 69986552 70042376 70098248 
3217.442 70152648 70204672 70254024 70300696 70345576 70389720 70434176 
3220.818 70480664 70530088 70583024 70639360 70698112 70758200 70818656 
3224.193 70878640 70937856 70996224 71053584 71109472 71163848 71216464 
3227.568 71267728 71318712 71370776 71424864 71481544 71540368 71600264 
3230.943 71660552 71720544 71781248 71844264 71911120 71982840 72058944 
3234.319 72137688 72216488 72292712 72365200 72433944 72500688 72567528 
3237.694 72636576 72708968 72784848 72863488 72944336 73026144 73108432 
3241.069 73190312 73270672 73348144 73421592 73490456 73554936 73617032 
3244.444 73678904 73743256 73812168 73886368 73965712 74049048 74135352 
3247.820 74223152 74311768 74400480 74488968 74576616 74662544 74746408 
3251.195 74827920 74907240 74984264 75059288 75132152 75202984 75271784 
3254.570 75339480 75407320 75476928 75549200 75624640 75701544 75777480 
3257.945 75849328 75914952 75972920 76024200 76070616 76114752 76158776 
3261.321 76203872 76250112 76296840 76342976 76387816 76430640 76471376 
3264.696 76509744 76545352 76577920 76607560 76634480 76659656 76683968 
3268.071 76708360 76732952 76757352 76780600 76802152 76821168 76838176 
3271.446 76853480 76867720 76881248 76894024 76905808 76916448 76926016 
3274.822 76935232 76944928 76955680 76967824 76981680 76996584 77012768 
3278.197 77030536 77050120 77072160 77096968 77124192 77153200 77183240 
3281.572 77214112 77246256 77280848 77318936 77361184 77407832 77457920 
3284.947 77510400 77564032 77618424 77673256 77729448 77786912 77846488 
3288.323 77908048 77972312 78039728 78111872 78190216 78276264 78370752 
3291.698 78473032 78581736 78695152 78811808 78931688 79055216 79183816 
3295.073 79318624 79460000 79607560 79760176 79917192 80078448 80244264 
3298.448 80415768 80593408 80777616 80967264 81160944 81357216 81555712 
3301.823 81756448 81961128 82170856 82387104 82610152 82840008 83075880 
3305.199 83317752 83565328 83819288 84079816 84347424 84622048 84903296 
3308.574 85190920 85484272 85783232 86087488 86396032 86708288 87023144 
3311.949 87340096 87659304 87982008 88309480 88643264 88983568 89329712 
3315.324 89679480 90030496 90380376 90728456 91074480 91419112 91763112 
3318.700 92106312 92448360 92787968 93123856 93455408 93782432 94105304 
3322.075 94424216 94739568 95051360 95359544 95665008 95968328 96270088 
3325.450 96570816 96869096 97162648 97448480 97723592 97986048 98235824 
3328.825 98473888 98701656 98920184 99129448 99327856 99513440 99684304 
3332.201 99838976 99977016 100097872 100201144 100285744 100349912 100392248 
3335.576 100412576 100411864 100392360 100357000 100307624 100245096 
3338.469 100168928 100076968 99966760 99836264 99684472 99510232 99313360 
3341.844 99093344 98849992 98582688 98291704 97977160 97639904 97279656 
3345.219 96896840 96490984 96062152 95611280 95140704 94653864 94155104 
3348.595 93648280 93135680 92618072 92094768 91564440 91026096 90480024 
3351.970 89927168 89369400 88808696 88246344 87683840 87122264 86563192 
3355.345 86008632 85460952 84922304 84394184 83877032 83370616 82874656 
3358.720 82389464 81916024 81455808 81010256 80579968 80163880 79760216 
3362.096 79366320 78980256 78600832 78228336 77864088 77509840 77167296 
3365.471 76837384 76520616 76217136 75926352 75647472 75379768 75121832 
3368.846 74871936 74628544 74390176 74155424 73923720 73694024 73464712 
3372.221 73233920 72998664 72756248 72504568 72242504 71970168 71688032 
3375.597 71396472 71095312 70783440 70458848 70120136 69766312 69397696 
3378.972 69015216 68620152 68213040 67793064 67358320 66906348 66435472 
3382.347 65944888 65435560 64909704 64370768 63822092 63266680 62706844 
3385.722 62144136 61579408 61012816 60444568 59874856 59304180 58733264 
3389.098 58163140 57595392 57031368 56472072 55918320 55370396 54828648 
3392.473 54293244 53765176 53244716 52732212 52226812 51726668 51229484 
3395.848 50732828 50234920 49736320 49238700 48745240 48259268 47782976 
3399.223 47316556 46858644 46406556 45957592 45509792 45062600 44616528 
3402.599 44172932 43732868 43296504 42863032 42431088 41999644 41567756 
3405.974 41135928 40705076 40276472 39851704 39431848 39017616 38609324 
3409.349 38207020 37810480 37419208 37033088 36652324 36276716 35906944 
3412.724 35543344 35186480 34836412 34493796 34158012 33829144 33507116 
3416.100 33192300 32884576 32584350 32290798 32002504 31717542 31433690 
3419.475 31149918 30865940 30583000 30303406 30029638 29763422 29505280 
3422.850 29254024 29007696 28764092 28521720 28279696 28038902 27800504 
3426.225 27566118 27336624 27112716 26893966 26679766 26469614 26262556 
3429.601 26057742 25854398 25651536 25448730 25245880 25043268 24841730 
3432.976 24642566 24446576 24254742 24067158 23883610 23703640 23526928 
3436.351 23353050 23181968 23013362 22846152 22679458 22512478 22344202 
3439.726 22174248 22003386 21832416 21662802 21495658 21331394 21169942 
3443.102 21010498 20851634 20691820 20529806 20364520 20195998 20024872 
3446.477 19853084 19682956 19517472 19358910 19208822 19067060 18932336 
3449.852 18801908 18673250 18544076 18413248 18280488 18146838 18013088 
3453.227 17880416 17749338 17620026 17492510 17366962 17243416 17121974 
3456.603 17002944 16886150 16770905 16656617 16542602 16428340 16313354 
3459.978 16198121 16081955 15965203 15847212 15728667 15610051 15493117 
3463.353 15379716 15271560 15169642 15073854 14983060 14895131 14808043 
3466.728 14720252 14630971 14540030 14447943 14354883 14261055 14166425 
3470.104 14071543 13976612 13883276 13792868 13706684 13625065 13547529 
3473.479 13472809 13399196 13325698 13251836 13178158 13105721 13035448 
3476.854 12967815 12902649 12839269 12776272 12713252 12649387 12584849 
3480.229 12519912 12455223 12391498 12329965 12271849 12218920 12172301 
3483.604 12132537 12098976 12070359 12044093 12018136 11990647 11960912 
3486.980 11929988 11899099 11870222 11844887 11823709 11806549 11792590 
3490.355 11781491 11772299 11765694 11761677 11761030 11764435 11772367 
3493.730 11785066 11802804 11825446 11852685 11884116 11919396 11958085 
3497.105 12000695 12047534 12099453 12157240 12220930 12290425 12364975 
3500.481 12443562 12525573 12611352 12702266 12800193 12907497 13025546 
3503.856 13155377 13296383 13447313 13607081 13774535 13948384 14128086 
3507.231 14312692 14500938 14691700 14884398 15078382 15274614 15474438 
3510.606 15678717 15888384 16103275 16322332 16543876 16766496 16989094 
3513.982 17210804 17430906 17648700 17862704 18071564 18273578 18468216 
3517.357 18655368 18835056 19007344 19170902 19323506 19461158 19579652 
3520.732 19675676 19746894 19792320 19812402 19808170 19780356 19729870 
3524.107 19656402 19560520 19442136 19302132 19141156 18959920 18758834 
3527.483 18538752 18300636 18046072 17777574 17497754 17209356 16915158 
3530.858 16616613 16315451 16012162 15706852 15399214 15088399 14772903 
3534.233 14451745 14124971 13793757 13461360 13132256 12810944 12501633 
3537.608 12205458 11921575 11647646 11380929 11118898 10861408 10609366 
3540.984 10364902 10128953 9902013 9682646 9468333 9256056 9043915 8831067 
3544.841 8618121 8406698 8199496 7998705 7806609 7624916 7454895 7296767 
3548.698 7149880 7011427 6877832 6744311 6606223 6460544 6306644 6146145 
3552.556 5983185 5822469 5668560 5524101 5390560 5267055 5152737 5045791 
3556.413 4944904 4849234 4757906 4670114 4585119 4502116 4420601 4339872 
3560.271 4259860 4180565 4101887 4023892 3946581 3869951 3793736 3716632 
3564.128 3636902 3551941 3458448 3354322 3238838 3114575 2986877 2863553 
3567.986 2751500 2656045 2578543 2517151 2467397 2424879 2385130 2345186 
3571.843 2303546 2259579 2212818 2162966 2109424 2052293 1991541 1928002 
3575.700 1863407 1799521 1737674 1679328 1624548 1573466 1526081 1482160 
3579.558 1441666 1404833 1371194 1340383 1311668 1284317 1257765 1231846 
3583.415 1206128 1179714 1150943 1117523 1075968 1023821 959261 883257 
3587.273 799099 713265 632658 563577 510099 472914 450259 438352 432448 
3591.612 428103 421138 408602 389035 362438 329808 293169 254544 215822 
3595.952 178430 143262 111576 83969 60540 41717 26673 14512 3611 -6924 
3600.774 -18157 -29885 -41316 -51056 -57881 -61293 -61127 -58709 -55694 
3605.113 -54468 -57351 -66826 -85013 -112740 -149839 -194254 -241711 -287144 
3609.453 -326049 -355647 -376074 -389878 -401034 -413448 -429701 -449826 
3613.310 -471374 -491033 -505728 -514531 -518867 -522805 -530847 -547493 
3617.168 -575024 -613010 -658668 -706273 -750036 -784865 -807818 -818731 
3621.025 -819922 -815259 -808248 -802129 -798458 -796441 -794092 -788139 
3624.883 -775935 -757181 -734589 -714080 -704818 -716396 -754965 -819955 
3628.740 -901237 -982868 -1047791 -1086463 -1098560 -1091685 -1075887 
3632.115 -1060550 -1051989 -1052320 -1059757 -1070763 -1081373 -1089471 
3635.490 -1095089 -1100245 -1107087 -1116902 -1129229 -1142283 -1153651 
3638.866 -1161648 -1165845 -1167035 -1167035 -1167960 -1170273 -1173776 
3642.241 -1176684 -1176618 -1171562 -1160690 -1144398 -1125164 -1106723 
3645.616 -1093239 -1089107 -1098461 -1123248 -1163466 -1216533 -1277623 
3648.991 -1340322 -1397727 -1443699 -1473057 -1482765 -1472330 -1443633 
3652.367 -1401426 -1351718 -1301871 -1259947 -1232856 -1225487 -1239199 
3655.742 -1270784 -1312045 -1353798 -1387555 -1408957 -1417874 -1417312 
3659.117 -1411335 -1403243 -1395085 -1387191 -1379033 -1369851 -1359017 
3662.492 -1346763 -1333253 -1318586 -1302862 -1285551 -1266258 -1245311 
3665.868 -1223769 -1203746 -1188546 -1182532 -1188646 -1210454 -1247888 
3669.243 -1297543 -1351321 -1396902 -1422332 -1419327 -1385804 -1326349 
3672.618 -1251225 -1174205 -1108739 -1068912 -1063194 -1092875 -1148595 
3675.993 -1214584 -1274814 -1320238 -1349835 -1368596 -1382898 -1397463 
3679.369 -1413514 -1428838 -1440067 -1444525 -1441223 -1431943 -1419327 
3682.744 -1405720 -1391980 -1377085 -1358423 -1334541 -1305438 -1273592 
3686.119 -1244122 -1223241 -1216335 -1226644 -1253241 -1291762 -1335202 
3689.494 -1377481 -1414538 -1444723 -1468401 -1486265 -1498219 -1504360 
3692.870 -1504426 -1498747 -1488742 -1475930 -1461961 -1448554 -1435939 
3696.245 -1424446 -1413646 -1403970 -1396010 -1391782 -1393070 -1401625 
3699.620 -1418402 -1442444 -1471075 -1500596 -1526252 -1543421 -1549826 
3702.995 -1544444 -1528365 -1504063 -1474245 -1441784 -1408957 -1377481 
3706.371 -1347919 -1321229 -1297543 -1277292 -1261599 -1251688 -1249673 
3709.746 -1257899 -1278382 -1311847 -1356936 -1408858 -1460574 -1504823 
3713.121 -1534803 -1546458 -1540383 -1519780 -1490426 -1458593 -1430490 
3716.496 -1409782 -1398289 -1394887 -1397034 -1401129 -1404432 -1405192 
3719.872 -1404102 -1401955 -1400337 -1400204 -1401955 -1404993 -1408957 
3723.247 -1413646 -1419657 -1427649 -1438647 -1451691 -1464735 -1474279 
3726.622 -1476029 -1466188 -1443369 -1408032 -1364467 -1317562 -1273592 
3729.997 -1238340 -1215972 -1207414 -1211015 -1222183 -1235532 -1247195 
3733.373 -1256512 -1266357 -1281752 -1306529 -1341610 -1382733 -1421903 
3736.748 -1449875 -1460772 -1452913 -1429400 -1395250 -1355615 -1314325 
3740.123 -1272700 -1231237 -1190892 -1155303 -1130419 -1125462 -1148529 
3743.498 -1203151 -1281785 -1366020 -1431051 -1459055 -1445549 -1398916 
3746.874 -1334145 -1266786 -1210454 -1173842 -1160359 -1168158 -1191355 
3750.249 -1223241 -1257569 -1291233 -1321989 -1347291 -1364533 -1370710 
3753.624 -1363642 -1344550 -1315976 -1282446 -1249012 -1219639 -1196774 
3756.999 -1182268 -1176155 -1178898 -1190430 -1209925 -1235234 -1262425 
3760.375 -1285353 -1298303 -1297477 -1282677 -1256974 -1226875 -1199153 
3763.750 -1179096 -1169249 -1168455 -1173082 -1178138 -1180186 -1178633 
3767.125 -1175428 -1174503 -1178435 -1189141 -1205233 -1223604 -1239827 
3770.500 -1250267 -1253076 -1248615 -1238902 -1226446 -1214154 -1203878 
3773.875 -1196708 -1193040 -1191917 -1192545 -1193305 -1193602 -1193668 
3777.251 -1194792 -1198790 -1207315 -1221093 -1238737 -1256875 -1271313 
3780.626 -1278184 -1275905 -1265002 -1248384 -1229915 -1213494 -1201731 
3784.001 -1195618 -1194858 -1197865 -1202821 -1208372 -1213659 -1218020 
3787.376 -1221655 -1224067 -1225223 -1225124 -1224397 -1223868 -1224034 
3790.752 -1224893 -1226247 -1226809 -1225686 -1222679 -1218747 -1216236 
3794.127 -1217558 -1224529 -1237382 -1253703 -1268901 -1277358 -1275079 
3797.502 -1260939 -1237646 -1211181 -1189703 -1181673 -1193470 -1226710 
3800.877 -1276730 -1332691 -1379331 -1403243 -1398586 -1367407 -1318289 
3804.253 -1262987 -1214947 -1183920 -1176981 -1194891 -1231831 -1276830 
3807.628 -1317463 -1345111 -1356573 -1353699 -1340850 -1322418 -1301144 
3811.003 -1277623 -1251324 -1221820 -1189934 -1158971 -1134484 -1121595 
3814.378 -1124933 -1145092 -1177047 -1210487 -1233483 -1236622 -1216798 
3817.754 -1178270 -1130584 -1086000 -1056352 -1050733 -1072846 -1118555 
3821.129 -1176155 -1229551 -1265333 -1276995 -1266885 -1243131 -1216269 
3824.504 -1195618 -1186630 -1190463 -1203317 -1219375 -1231501 -1235333 
3827.879 -1230212 -1218549 -1205035 -1193602 -1186762 -1184284 -1183755 
3831.255 -1181376 -1173379 -1157584 -1133724 -1103550 -1070168 -1037445 
3834.630 -1008951 -988191 -977843 -979827 -994273 -1019331 -1051097 -1084083 
3838.487 -1113366 -1135277 -1148165 -1153651 -1153750 -1151801 -1150710 
3841.863 -1152627 -1158806 -1169546 -1184218 -1200838 -1217227 -1230576 
3845.238 -1238472 -1239860 -1234408 -1222877 -1207083 -1187985 -1165779 
3848.613 -1139771 -1108508 -1071391 -1029876 -988653 -955626 -941079 -954965 
3852.470 -1002406 -1079919 -1171892 -1256908 -1316802 -1342865 -1337646 
3855.846 -1310195 -1271048 -1228164 -1187489 -1152098 -1123148 -1101666 
3859.221 -1088347 -1083125 -1085835 -1095156 -1108574 -1123248 -1137194 
3862.596 -1149256 -1160326 -1171165 -1182004 -1190562 -1193371 -1185407 
3865.971 -1163862 -1129758 -1087620 -1045940 -1013810 -998769 -1004521 
3869.347 -1027760 -1059525 -1087488 -1102493 -1101303 -1087818 -1069904 
3872.722 -1056815 -1055229 -1067062 -1089008 -1114192 -1134451 -1143341 
3876.097 -1138681 -1122190 -1099287 -1075457 -1056815 -1047725 -1050072 
3879.472 -1063029 -1082761 -1103682 -1119513 -1125726 -1120207 -1104277 
3882.848 -1082530 -1060451 -1044387 -1039561 -1047593 -1065508 -1086067 
3886.223 -1100113 -1099683 -1081472 -1047494 -1004191 -960222 -924383 
3889.598 -903982 -902626 -919952 -950469 -986901 -1020587 -1045114 -1057873 
3893.456 -1058931 -1049841 -1033115 -1011000 -985513 -958536 -932814 -910694 
3897.313 -894790 -886986 -887383 -894723 -905900 -916943 -924845 -928119 
3901.170 -927028 -924085 -922101 -922994 -927854 -936021 -945510 -954668 
3905.028 -961941 -966636 -969181 -970206 -970372 -969942 -969082 -967727 
3908.885 -965875 -963693 -961379 -958734 -955329 -949709 -940881 -927788 
3912.743 -910297 -889731 -868138 -848164 -832324 -822237 -818665 -820749 
3916.600 -826933 -835168 -843832 -851372 -857060 -860334 -860797 -857721 
3920.458 -851074 -841319 -829777 -818897 -811555 -810497 -817177 -831596 
3924.315 -851736 -874487 -895914 -912612 -923060 -926763 -925176 -919952 
3928.172 -912909 -905470 -898195 -891152 -884440 -878091 -872040 -866881 
3932.030 -862450 -858449 -854580 -850248 -844758 -838309 -831265 -824453 
3935.887 -818566 -814267 -811555 -810034 -808909 -807355 -804973 -801832 
3939.745 -798260 -795382 -793960 -794787 -798061 -803584 -809901 -815524 
3943.602 -818632 -817739 -812316 -802592 -789826 -776365 -764160 -755362 
3947.459 -751128 -751392 -755196 -761018 -766905 -771701 -774942 -777225 
3951.317 -778614 -780069 -781425 -781921 -780731 -777059 -770312 -760687 
3955.174 -749176 -736805 -724963 -714940 -706935 -700981 -696746 -693703 
3959.032 -691189 -689270 -687550 -686359 -685499 -685135 -684341 -683117 
3962.889 -680205 -675607 -668792 -660587 -651621 -642986 -635708 -629918 
3966.747 -625153 -620289 -614102 -605367 -594150 -581179 -568042 -556924 
3970.604 -549577 -546930 -548551 -553251 -559042 -564105 -567248 -567943 
3974.461 -566388 -562847 -558016 -551960 -544514 -535678 -525684 -514862 
3978.319 -503908 -493615 -484381 -476338 -469355 -462900 -456909 -451216 
3982.176 -446516 -443703 -443670 -447013 -453798 -463728 -475776 -488286 
3986.034 -499671 -508409 -512645 -511784 -505662 -494773 -480707 -465581 
3989.891 -452044 -442412 -438340 -439896 -446549 -456181 -466541 -475279 
3993.749 -481170 -483587 -483686 -483189 -483884 -487624 -494773 -504735 
3997.606 -515921 -526114 -533064 -535612 -533296 -527041 -518503 
##END=
