
##TITLE=Z295_1_d
##JCAMP-DX=5.01  $$ Nicolet v. 1
##DATATYPE=INFRARED SPECTRUM
##ORIGIN=UniL
##OWNER=Nicolet
##LONGDATE=2011/09/09
##TIME=13:39:15
##SPECTROMETER/DATA SYSTEM=Nicolet iS5
##DATA PROCESSING=
Ratio against background
%Transmittance->Absorbance
Truncated
ElementMultiply or ElementDivide
##COMMENTS=
Number of sample scans: 32
Collection length: 51.21 sec
Sample gain: 2.0
Background collected on: Ven Sep 09 13:27:55 2011 (GMT+02:00);
Number of background scans: 32
Background gain: 2.0
Sample spacing:  1.000
Number of scan points: 12415
Resolution points: 8192
Number of FFT points: 65536
Apodization: N-B fort;
Phase correction: Mertz;
Laser frequency: 15798.0 cm-1
Number of rejected sample scans: 0
Number of rejected background scans: 0
Bench serial number: ASB1000141;
##RESOLUTION=4.000
##XUNITS=1/CM
##YUNITS=ABSORBANCE
##FIRSTX=649.893372
##LASTX=4000.122314
##FIRSTY=0.107515
##MAXX=4000.122314
##MINX=649.893372
##MAXY=0.303248
##MINY=-0.002014
##XFACTOR=1.000000
##YFACTOR=1.000000E-009
##NPOINTS=6950
##DELTAX=0.482117
##ZPD=6100
##XYDATA=(X++(Y..Y))
649.893 107515312 106361720 105278984 104292888 103400776 102586944 
652.786 101840656 101169088 100595992 100150656 99850568 99690056 99639496 
656.161 99658040 99711696 99784816 99884848 100032456 100246600 100530624 
659.536 100870512 101240736 101619616 101998528 102384608 102793536 
662.428 103240880 103730384 104255680 104804104 105366312 105940496 
665.321 106528864 107127864 107716192 108244432 108648320 108879096 
668.214 108947008 108922488 108902728 108957272 109103184 109314856 
671.107 109543264 109740688 109872528 109931248 109931416 109899880 
673.999 109855712 109799312 109712192 109567440 109345632 109043976 
676.892 108677000 108266448 107829408 107369592 106879200 106347112 
679.785 105769688 105155336 104522200 103886376 103254456 102619976 
682.677 101968352 101286720 100574608 99845184 99120664 98420112 97748488 
686.052 97094776 96438568 95761944 95060400 94348536 93653784 93007304 
689.427 92430080 91927512 91491704 91109912 90773248 90482432 90246248 
692.802 90075752 89976776 89946648 89976480 90058096 90191392 90387480 
696.177 90665784 91045632 91538336 92142240 92843680 93622704 94462392 
699.551 95354424 96298168 97296856 98349584 99446064 100568216 101694488 
702.926 102805968 103892856 104952808 105984904 106983800 107935552 
705.819 108818952 109615504 110315608 110924736 111460408 111947256 
708.712 112405208 112844784 113269224 113679888 114083776 114499824 
711.604 114953048 115466304 116050024 116693696 117365896 118020136 
714.497 118611080 119102840 119476208 119729880 119876184 119937016 
717.390 119939552 119920728 119928944 120018040 120249088 120675456 
720.282 121327560 122205760 123270312 124447528 125629352 126697736 
723.175 127540960 128065448 128221304 128010408 127492872 126772880 
726.068 125983312 125260176 124702752 124365808 124250056 124316352 
728.961 124503216 124751856 125025600 125309912 125608832 125930760 
731.853 126277432 126640200 127003912 127355176 127690848 128018992 
734.746 128354024 128707232 129079896 129462216 129840088 130203080 
737.639 130551528 130896808 131255176 131638336 132045640 132463664 
740.531 132872088 133255064 133608264 133940784 134268960 134607968 
743.424 134963504 135329728 135694128 136046048 136383840 136715456 
746.317 137053184 137405200 137769808 138133792 138480608 138795744 
749.209 139076704 139332240 139576848 139821664 140069536 140313104 
752.102 140541968 140750016 140941296 141128256 141327056 141546304 
754.995 141783024 142022064 142244144 142436080 142596496 142735904 
757.888 142871104 143015680 143172720 143335936 143494576 143642048 
760.780 143782096 143927632 144093312 144288432 144510720 144748656 
763.673 144988480 145225008 145468288 145745392 146092992 146544368 
766.566 147122656 147830208 148646832 149528064 150408976 151211168 
769.458 151844768 152231344 152323056 152123344 151698896 151174464 
772.351 150710128 150442096 150446640 150701664 151090848 151422016 
775.244 151483376 151116320 150241280 148879488 147120960 145087776 
778.136 142880176 140545952 138078928 135435568 132564944 129431904 
781.029 126036288 122412056 118621968 114742104 110852104 107032472 
783.922 103351504 99867376 96624240 93647456 90945984 88514592 86339400 
787.297 84403120 82690952 81194048 79907832 78831360 77963280 77300528 
790.671 76838216 76571984 76499904 76624008 76950624 77488024 78242064 
794.046 79213200 80390408 81750288 83253168 84839440 86437272 87961552 
797.421 89322552 90448392 91295088 91866592 92218320 92458976 92728400 
800.796 93159696 93859296 94863640 96122096 97483904 98718744 99562768 
804.171 99744496 99068872 97456736 94969384 91796216 88212856 84528536 
807.546 80989976 77752352 74854336 72233272 69764840 67314600 64792672 
810.920 62169140 59481400 56806496 54239480 51860200 49715440 47821928 
814.295 46170244 44738232 43499468 42430980 41513028 40726440 40052480 
817.670 39472996 38971184 38535560 38159844 37841928 37581252 37376304 
821.045 37223468 37118612 37058996 37045716 37083536 37179684 37341456 
824.420 37572868 37873740 38240092 38664920 39138128 39646480 40173056 
827.794 40694452 41184924 41620444 41984316 42276320 42515892 42745400 
831.169 43021048 43409200 43977244 44776908 45839672 47161548 48697352 
834.544 50348720 51965652 53370512 54360084 54753056 54432376 53361928 
837.919 51607692 49317012 46702320 43983736 41353736 38963684 36897796 
841.294 35184400 33809268 32733098 31906496 31278838 30807388 30454570 
844.669 30188878 29987424 29834506 29722582 29651130 29623284 29641906 
848.043 29706014 29810230 29946136 30105236 30281060 30471026 30675728 
851.418 30896676 31134576 31389166 31659730 31946938 32253820 32586638 
854.793 32952308 33357822 33808660 34308548 34861720 35474920 36157288 
858.168 36922108 37784668 38760400 39865980 41119792 42541364 44153896 
861.543 45978292 48025312 50285068 52716088 55240748 57739860 60075028 
864.917 62102616 63692504 64762212 65284608 65300056 64906204 64253420 
868.292 63525372 62899784 62547892 62608852 63174732 64298868 65991016 
871.667 68222504 70924248 73988504 77273728 80586624 83703960 86388880 
875.042 88397160 89534200 89678008 88798608 86964280 84326704 81099984 
878.417 77507632 73771376 70083768 66580476 63350856 60434856 57831456 
881.792 55514732 53446912 51593660 49929716 48444156 47138464 46021316 
885.166 45101344 44382216 43860152 43525108 43364784 43368556 43530968 
888.541 43852600 44337408 44990084 45813012 46805348 47964664 49289656 
891.916 50783256 52453772 54315400 56386156 58684032 61225796 64020440 
895.291 67064048 70327536 73745888 77211344 80555040 83565808 86012680 
898.666 87660896 88334008 87938424 86483888 84080784 80922592 77261816 
902.040 73351168 69434784 65720252 62350860 59422360 56979832 55027524 
905.415 53544132 52493332 51835372 51531428 51550420 51870916 52479496 
908.790 53369952 54540900 55993476 57728924 59746096 62036488 64579664 
912.165 67336072 70238296 73198312 76104488 78835208 81285256 83374352 
915.540 85067576 86381112 87381104 88173640 88877480 89615568 90482672 
918.914 91523816 92723848 93999600 95214504 96184648 96727568 96698920 
922.289 96023136 94728696 92952304 90939648 88989584 87432232 86582848 
925.664 86668360 87814176 90005672 93093352 96788096 100695960 104398040 
929.039 107458992 109514232 110324104 109768464 107860496 104713352 
931.932 100518344 95504720 89914048 84004672 78016296 72167656 66657572 
935.306 61635040 57207816 53442192 50361560 47961444 46218444 45099760 
938.681 44565824 44565896 45036688 45885480 46987512 48199288 49352644 
942.056 50286516 50873024 51023396 50709856 49962576 48863696 47525472 
945.431 46069872 44617776 43262280 42067976 41071240 40280180 39685000 
948.806 39264072 38992064 38841960 38787068 38803444 38866636 38953864 
952.181 39046112 39128808 39194620 39243508 39282060 39320364 39368792 
955.555 39436568 39529716 39651600 39804384 39989300 40207188 40457736 
958.930 40738960 41046840 41375968 41721212 42079584 42450780 42837176 
962.305 43242000 43667864 44115456 44583336 45069144 45571208 46089324 
965.680 46625292 47181420 47759748 48361112 48985300 49632336 50303520 
969.055 51002380 51733796 52502716 53312556 54164444 55058288 55993592 
972.429 56972424 57998840 59080032 60223216 61434224 62716408 64070904 
975.804 65497540 66997700 68574904 70234632 71984320 73832160 75786952 
979.179 77860952 80070760 82439576 84998304 87780640 90820784 94148848 
982.554 97785056 101737536 105997088 110534920 115291320 120163616 125011056 
985.929 129636216 133798864 137255456 139763696 141134640 141265808 
988.821 140148576 137877888 134629984 130658640 126249064 121684784 
991.714 117244088 113150112 109567616 106607248 104316936 102700848 
994.607 101731384 101366008 101557488 102261152 103441384 105066912 
997.500 107109464 109543352 112340272 115468680 118894272 122568760 
1000.392 126425144 130374160 134288496 138013504 141383152 144223264 
1003.285 146390624 147790016 148386416 148214448 147375232 146033680 
1006.178 144384928 142648272 141046416 139765024 138958112 138733184 
1009.070 139146464 140217984 141940048 144291840 147246368 150778240 
1011.963 154865840 159485360 164612480 170222832 176288240 182779792 
1014.856 189661072 196867408 204292624 211765520 219023120 225743648 
1017.748 231557552 236094960 239078448 240359264 239972688 238131680 
1020.641 235225488 231768416 228291584 225339024 223372464 222713136 
1023.534 223560544 225964256 229852160 235045232 241301392 248351808 
1026.427 255894864 263640288 271305856 278600608 285262144 291056032 
1029.320 295795680 299374624 301766496 303023680 303247616 302574432 
1032.213 301149856 299103648 296556832 293606912 290318016 286720576 
1035.106 282802464 278519296 273804128 268596128 262865312 256624752 
1037.999 249936320 242898336 235636640 228278032 220944352 213751616 
1040.892 206793808 200147328 193861728 187949248 182384928 177107664 
1043.785 172040016 167100512 162230064 157409712 152666864 148073744 
1046.678 143728160 139749024 136251504 133330184 131062192 129492704 
1049.571 128637088 128483400 128995728 130121616 131793424 133943616 
1052.464 136505520 139413952 142610528 146029744 149588608 153186976 
1055.357 156692128 159945168 162785280 165049360 166599568 167344192 
1058.250 167239872 166305520 164619632 162328224 159628016 156744768 
1061.144 153934624 151436176 149456352 148168160 147685392 148070656 
1064.037 149337728 151455248 154348832 157898416 161954896 166327648 
1066.930 170797296 175150064 179173664 182688000 185566880 187725536 
1069.823 189123744 189753440 189626976 188770704 187219104 185017792 
1072.716 182219504 178883744 175084208 170905936 166454352 161866144 
1075.609 157295520 152918416 148923456 145478624 142734224 140807152 
1078.502 139764336 139628224 140365920 141892864 144058864 146652288 
1081.395 149425072 152081360 154330816 155937024 156736384 156687248 
1084.288 155870320 154485200 152802192 151122992 149759312 148967904 
1087.181 148946768 149820832 151626592 154317680 157760880 161762976 
1090.074 166066320 170375408 174409680 177900032 180629104 182453264 
1092.967 183289808 183123040 181990720 179977792 177201424 173793184 
1095.860 169898944 165654336 161178464 156579696 151945648 147350896 
1098.753 142861344 138525280 134373680 130414472 126631512 122988432 
1101.646 119439088 115945680 112488832 109080488 105761904 102604576 
1104.540 99696768 97125688 94977960 93324104 92214216 91682976 91746976 
1107.915 92407288 93651648 95455048 97781152 100577200 103780400 107312072 
1111.290 111071912 114946352 118796736 122461120 125777576 128581256 
1114.183 130729512 132125184 132716400 132505592 131539328 129904032 
1117.076 127710152 125075624 122127312 118980416 115729496 112451480 
1119.969 109195800 105990400 102850720 99786528 96810368 93943696 91214176 
1123.344 88655504 86302864 84186104 82330864 80758344 79484952 78527696 
1126.720 77903648 77628808 77717440 78177912 79009424 80198952 81719496 
1130.095 83530992 85573960 87773536 90040896 92268968 94351208 96190896 
1133.470 97713392 98886896 99726744 100297936 100696840 101042792 101457192 
1136.845 102035240 102841608 103894960 105167072 106581544 108022696 
1139.739 109357944 110437704 111123952 111308992 110913528 109899840 
1142.632 108265560 106037600 103265384 100014896 96371088 92426632 88282232 
1146.007 84044432 79808952 75662848 71681040 67917104 64411536 61190588 
1149.382 58266876 55644160 53317836 51277396 49506988 47988308 46702692 
1152.757 45631784 44760380 44078232 43577816 43255364 43108420 43135024 
1156.133 43333444 43702528 44242816 44957600 45852264 46934716 48211840 
1159.508 49689212 51369128 53250000 55325420 57582564 60001712 62550260 
1162.883 65181232 67836400 70440760 72911728 75168128 77127520 78718816 
1166.258 79885336 80583552 80791312 80507416 79753536 78570216 77013640 
1169.634 75150944 73048328 70770960 68380632 65929188 63465080 61031884 
1173.009 58665412 56398232 54256788 52260372 50423588 48755916 47261620 
1176.384 45942676 44798324 43826320 43023536 42385896 41909500 41590872 
1179.759 41427944 41420800 41571692 41883740 42360544 43004400 43816132 
1183.135 44794508 45936856 47238936 48692756 50283352 51987424 53766640 
1186.510 55568164 57330640 58981868 60451080 61677736 62611340 63221908 
1189.885 63499944 63458332 63129632 62562928 61822004 60972932 60082068 
1193.260 59212884 58416612 57736340 57205884 56847624 56675968 56695600 
1196.635 56901032 57275176 57788040 58399364 59054672 59690060 60238592 
1200.011 60625836 60781764 60646484 60173164 59339768 58153024 56650748 
1203.386 54895532 52968120 50960092 48954552 47024764 45228148 43600748 
1206.761 42163116 40922268 39875308 39013052 38321876 37786584 37389880 
1210.136 37114788 36947508 36876548 36895344 37001120 37193360 37471760 
1213.512 37835132 38279792 38800544 39390488 40040892 40741652 41479524 
1216.887 42237240 42995808 43733784 44430220 45068736 45636272 46124624 
1220.262 46529388 46848676 47083256 47236756 47317924 47341164 47326272 
1223.637 47299744 47290064 47325348 47432624 47632688 47939464 48359184 
1227.013 48889024 49517016 50221236 50974288 51743052 52493144 53195728 
1230.388 53827844 54376308 54838048 55220356 55541124 55826372 56114000 
1233.763 56450448 56885580 57475440 58272104 59319864 60655404 62303320 
1237.138 64278392 66587196 69229632 72198296 75475360 79033032 82828296 
1240.514 86802112 90888176 95009632 99084072 103032280 106770680 110215960 
1243.889 113293312 115933216 118082400 119708448 120798096 121355904 
1246.782 121399064 120955832 120061856 118759272 117098544 115130224 
1249.675 112900168 110444328 107781712 104917576 101849752 98579568 95122344 
1253.050 91516208 87819168 84110464 80481008 77016296 73797288 70887184 
1256.426 68323504 66120824 64267016 62727860 61445828 60349108 59358840 
1259.801 58389660 57366296 56229464 54938620 53479144 51859380 50108208 
1263.176 48267192 46386424 44518864 42710556 41000808 39418460 37979396 
1266.551 36689780 35546220 34539320 33655536 32880678 32202184 31609376 
1269.927 31094034 30649948 30271148 29951566 29685506 29467444 29293898 
1273.302 29163442 29076634 29034972 29039754 29090840 29185554 29318250 
1276.677 29479748 29657444 29834364 29989448 30101296 30148210 30113690 
1280.052 29989624 29777262 29486876 29133572 28735204 28307422 27861690 
1283.427 27406568 26948996 26496202 26059220 25651182 25287498 24984406 
1286.803 24755640 24613144 24567244 24626680 24800368 25097360 25525716 
1290.178 26091342 26796402 27637512 28604382 29677382 30828268 32014240 
1293.553 33181142 34268608 35210268 35949268 36446912 36688124 36685528 
1296.928 36476856 36119588 35675984 35209192 34775884 34418360 34166756 
1300.304 34037764 34034004 34144532 34344840 34601320 34870948 35108624 
1303.679 35275204 35337916 35276532 35083696 34764072 34332400 33810700 
1307.054 33228104 32615390 32002934 31419300 30886182 30418108 30022466 
1310.429 29701082 29452798 29277026 29174286 29147072 29198276 29328780 
1313.805 29537306 29820096 30173214 30593524 31080260 31634890 32259818 
1317.180 32956954 33727324 34571180 35488724 36480712 37547436 38686760 
1320.555 39890968 41142812 42415924 43672812 44865776 45945840 46862444 
1323.930 47572868 48052148 48298156 48338780 48227356 48043560 47877344 
1327.306 47810572 47910860 48214356 48723224 49408260 50220416 51104196 
1330.681 52005352 52885816 53724228 54515764 55269832 56006368 56752536 
1334.056 57536756 58386816 59324272 60359880 61490452 62697424 63951448 
1337.431 65211916 66433304 67571344 68580688 69421096 70060984 70478640 
1340.807 70667264 70635144 70403864 70002704 69464176 68821096 68100696 
1344.182 67324664 66509836 65666632 64801680 63918860 63019708 62104756 
1347.557 61173040 60223256 59254164 58266500 57265232 56262088 55277776 
1350.932 54340556 53489560 52769588 52227000 51910420 51861504 52110648 
1354.308 52672280 53537420 54669624 56000788 57442344 58887980 60224132 
1357.683 61351940 62187644 62672772 62782036 62521868 61933184 61083024 
1361.058 60069548 59009804 58022280 57223616 56700732 56495884 56603296 
1364.433 56970616 57514436 58126172 58695452 59116928 59296052 59169780 
1367.809 58712556 57942988 56917916 55723372 54456868 53202208 52028544 
1371.184 50982372 50088764 49362448 48812976 48449748 48282600 48317560 
1374.559 48551004 48965976 49534620 50225548 51008492 51862180 52774904 
1377.934 53741964 54764932 55849360 57006276 58251304 59604264 61083100 
1381.310 62692412 64411036 66178976 67903264 69454072 70684736 71460288 
1384.685 71658992 71200464 70063088 68305552 66075840 63588196 61099652 
1388.060 58831600 56928192 55448768 54374016 53639384 53159364 52852432 
1391.435 52644900 52470596 52274236 52003632 51613664 51075832 50382580 
1394.811 49553004 48623040 47633796 46615628 45581476 44533332 43472844 
1398.186 42412708 41385736 40439112 39620744 38966840 38489144 38177972 
1401.561 38009844 37959360 38005684 38135752 38344172 38629424 38989892 
1404.936 39421472 39916576 40466428 41063192 41702028 42380856 43100224 
1408.312 43860116 44658612 45491392 46350736 47227888 48114848 49004696 
1411.687 49892544 50774468 51646316 52503724 53343460 54164744 54970888 
1415.062 55770084 56573100 57391708 58235540 59112300 60026860 60981628 
1418.437 61975836 62999980 64035416 65051660 66011264 66874856 67609208 
1421.813 68192680 68616744 68891608 69046056 69126632 69184872 69265736 
1425.188 69398744 69592784 69842888 70138784 70473184 70843264 71249416 
1428.563 71692488 72171376 72684872 73234904 73830904 74488808 75226040 
1431.938 76055416 76979264 77989848 79071592 80210152 81399416 82642248 
1435.313 83950680 85339072 86817328 88380104 90008688 91678552 93360864 
1438.689 95023736 96623784 98106512 99395912 100400592 101034008 101214344 
1442.064 100881336 100001832 98566392 96593040 94126536 91244472 88048960 
1445.439 84651888 81176272 77735584 74431664 71360584 68598736 66196456 
1448.814 64168336 62494012 61130356 60031040 59167884 58537660 58158404 
1452.190 58051324 58222128 58642428 59252264 59956064 60635740 61170064 
1455.565 61438044 61360716 60939000 60278068 59548812 58911888 58470892 
1458.940 58256036 58255508 58443940 58797072 59292940 59906160 60605492 
1462.315 61346104 62069476 62715380 63227808 63574656 63759924 63824244 
1465.691 63828424 63826508 63854864 63922696 64018136 64113760 64173288 
1469.066 64154312 64002552 63656172 63050240 62130524 60882884 59359336 
1472.441 57688848 56036224 54551644 53325404 52376384 51679640 51197196 
1475.816 50902044 50783476 50841360 51072480 51461480 51977488 52582516 
1479.192 53236328 53908304 54583540 55262008 55958308 56694088 57496204 
1482.567 58391064 59406968 60578408 61945336 63551792 65437140 67621864 
1485.942 70091160 72777640 75566744 78284600 80711976 82619168 83771704 
1489.317 83980624 83152872 81316824 78631528 75336328 71699168 67940032 
1492.693 64199372 60557228 57038544 53648492 50407028 47357348 44572724 
1496.068 42143108 40144092 38613960 37544620 36897508 36618868 36657116 
1499.443 36971676 37526952 38288944 39223052 40288944 41442780 42641688 
1502.818 43832664 44953668 45928460 46645028 46960152 46709520 45748176 
1506.194 44033600 41687364 38976624 36188656 33521612 31050504 28766180 
1509.569 26631250 24618018 22718594 20948426 19333138 17891154 16629763 
1512.944 15540402 14603933 13797725 13100394 12493517 11959345 11482167 
1516.319 11050475 10659008 10311289 10015824 9779150 9599408 9462949 9345490 
1520.177 9221431 9073824 8906481 8744476 8622852 8565196 8572394 8624914 
1524.034 8694072 8755397 8794887 8814397 8827280 8851154 8897180 8964757 
1527.892 9044694 9126100 9204102 9281984 9368783 9473040 9596800 9733098 
1531.749 9867066 9982257 10070384 10137093 10202590 10289710 10414178 
1535.124 10576127 10763882 10959635 11147114 11316206 11461074 11579854 
1538.500 11671369 11732639 11759566 11751566 11717797 11676066 11645808 
1541.875 11639239 11654316 11676950 11686107 11664459 11604866 11514625 
1545.250 11411543 11316649 11243467 11192364 11152893 11109584 11050543 
1548.625 10972616 10883593 10798086 10731378 10690386 10671370 10663220 
1552.000 10653847 10636563 10612830 10591676 10584750 10600878 10641147 
1555.376 10698639 10761199 10815071 10845372 10836540 10774682 10653134 
1558.751 10483790 10299006 10141333 10040645 10002363 10014332 10054276 
1562.126 10098904 10126273 10121220 10078116 10002601 9909471 9817514 
1565.501 9742009 9687491 9648055 9610146 9559980 9487500 9390824 9276330 
1569.359 9156554 9046317 8956572 8893392 8858864 8852202 8870396 8908273 
1573.216 8956978 9003185 9031465 9029030 8990972 8926705 8858323 8812706 
1577.074 8806417 8840468 8902930 8978457 9054336 9124780 9190971 9258425 
1580.931 9333574 9420316 9519302 9628168 9743941 9863778 9985343 10105586 
1584.789 10218195 10314547 10385433 10423816 10428431 10405524 10367888 
1588.164 10331376 10311629 10322079 10371519 10466309 10610996 10808514 
1591.539 11058020 11351747 11672764 11993678 12279790 12498359 12621961 
1594.914 12636526 12543546 12359214 12109539 11822960 11528745 11250778 
1598.290 11008026 10816191 10686379 10625392 10635681 10714974 10858044 
1601.665 11059143 11314574 11622393 11981110 12386214 12827119 13285554 
1605.040 13738625 14159271 14520844 14801666 14984020 15057799 15020376 
1608.415 14875792 14633987 14309233 13920499 13489489 13039477 12595320 
1611.791 12177072 11798412 11464816 11173359 10915224 10678365 10451409 
1615.166 10225488 9997549 9773117 9565738 9393940 9273284 9212496 9210566 
1619.023 9258391 9341259 9442597 9547041 9642228 9722932 9791994 9859880 
1622.881 9940760 10046273 10181763 10344882 10529107 10727472 10936087 
1626.256 11153573 11379195 11611332 11846012 12077683 12302593 12520082 
1629.631 12733621 12948834 13170473 13399298 13631869 13859569 14072193 
1633.006 14259548 14412868 14525743 14596052 14626036 14622713 14597869 
1636.382 14565522 14536466 14516219 14503816 14493847 14477849 14447086 
1639.757 14396050 14324301 14237806 14146126 14060077 13986570 13926007 
1643.132 13872124 13814143 13740095 13639357 13507159 13346061 13167706 
1646.507 12989835 12832955 12715469 12648091 12633866 12668286 12741195 
1649.883 12837323 12934770 13006734 13019093 12939344 12753683 12489357 
1653.258 12216159 12007236 11899201 11881016 11918170 11974400 12024880 
1656.633 12057004 12067599 12059900 12039119 12009279 11971198 11922188 
1660.008 11857521 11772606 11664051 11531092 11376542 11206338 11030219 
1663.384 10859131 10704310 10573513 10469466 10388894 10323334 10260634 
1666.759 10186139 10086628 9953406 9784504 9586773 9373387 9160717 8962728 
1670.616 8787990 8639042 8513629 8405515 8304587 8198754 8073671 7916498 
1674.474 7722381 7499324 7268970 7057831 6886618 6761374 6673714 6606661 
1678.331 6542813 6471374 6390363 6307082 6232757 6176358 6136903 6102997 
1682.188 6052259 5960275 5809406 5602299 5367077 5148613 4983748 4883679 
1686.046 4836569 4819917 4813082 4801390 4777034 4738142 4685722 4622859 
1689.903 4553543 4483635 4420400 4370963 4340641 4329564 4331271 4332208 
1693.761 4315241 4263675 4169492 4040547 3901912 3785848 3713791 3688026 
1697.618 3691568 3699154 3681978 3618057 3500967 3346910 3191038 3068757 
1701.476 2997887 2973832 2978903 2992582 2998120 2984708 2947244 2887334 
1705.333 2812225 2732961 2659579 2599242 2554011 2521883 2498388 2478493 
1709.190 2458799 2437740 2416916 2398957 2386996 2382398 2384664 2390961 
1713.048 2397524 2401722 2402289 2399490 2394026 2384564 2367773 2338523 
1716.905 2292987 2232801 2166696 2108225 2069804 2057686 2070803 2102632 
1720.763 2143853 2186243 2224575 2256814 2284260 2309209 2334026 2359677 
1724.620 2385597 2410885 2434841 2458100 2480893 2502954 2522583 2536880 
1728.478 2543446 2541513 2533781 2524083 2516651 2511318 2502954 2479260 
1732.335 2424179 2323300 2172490 1986215 1794863 1634625 1528808 1479533 
1736.192 1473715 1491602 1515275 1530471 1529107 1509124 1474047 1431361 
1740.050 1389044 1354376 1330911 1319478 1319411 1329249 1347097 1370928 
1743.907 1399448 1431460 1466633 1504801 1545168 1586003 1624814 1657608 
1747.765 1681124 1692866 1692101 1679394 1656311 1624481 1585970 1543538 
1751.622 1501510 1465004 1438707 1425410 1424845 1433089 1443328 1447949 
1755.479 1440303 1417930 1383360 1344006 1308444 1282356 1266737 1257266 
1759.337 1247331 1229686 1199849 1157189 1105896 1052650 1004791 968327 
1763.194 945846 937744 941961 955575 974703 993798 1007581 1011367 1003031 
1767.534 984699 962250 942824 931534 928911 930306 927616 912574 880899 
1771.874 835250 786053 745492 723022 720600 733876 755051 776726 794817 
1776.213 809124 821440 833889 846404 856597 860879 855899 841425 820543 
1780.553 799265 783663 776958 778850 785755 792825 796244 794551 788643 
1784.892 781307 775166 771979 772544 777290 786651 801522 822402 848098 
1789.232 874790 896737 906897 899160 871304 826585 773174 721330 679746 
1793.572 652468 638830 634682 635379 637303 638199 636341 631363 622106 
1797.911 607572 587764 563113 535909 508706 484491 465086 450890 441569 
1802.251 436196 434272 436196 442200 452448 466180 481505 496200 509071 
1806.590 519321 527217 534051 540056 545264 548549 548880 545861 540122 
1810.930 533620 528113 524795 523667 523302 522573 520615 518359 517862 
1815.270 521644 531729 548416 570312 594798 619186 641551 661162 678286 
1819.609 693950 708486 722425 735303 747285 758072 767100 773639 776925 
1823.949 776693 773573 770453 771714 781406 801987 832096 867287 900190 
1828.288 923100 930970 923797 906996 889698 881530 888502 910781 944617 
1832.628 983802 1022991 1059393 1092842 1124998 1158319 1194167 1232478 
1836.485 1272486 1313329 1355107 1399249 1448049 1503505 1567048 1638217 
1840.343 1715884 1797658 1881277 1963648 2041906 2113686 2177918 2235632 
1844.200 2290888 2349283 2415949 2492990 2578376 2666513 2749699 2819829 
1848.058 2871457 2902011 2912551 2905780 2884666 2851045 2804821 2745365 
1851.915 2672481 2588075 2496322 2402322 2310275 2222243 2137659 2054390 
1855.772 1970205 1884905 1800353 1719810 1646466 1581647 1523920 1470822 
1859.630 1419293 1367505 1315656 1265142 1217060 1172106 1129117 1086730 
1863.487 1044779 1004791 969855 943754 928579 923598 925358 927981 926288 
1867.827 918120 904506 889797 878774 875222 879040 888370 899492 910084 
1872.167 918750 925657 931335 935718 938308 937810 933493 925425 914401 
1876.506 901418 886577 868582 845574 815630 778518 736962 695144 657910 
1880.846 628974 609265 596689 587532 578574 567957 556511 546624 540288 
1885.185 538994 541283 544402 544733 539691 527283 506882 478818 444322 
1889.525 405318 365224 328814 301392 287234 287864 301956 324006 346985 
1893.865 364395 372619 372088 366816 361974 361477 366418 374078 380777 
1898.204 384027 382933 380147 379252 383729 395170 412748 433874 456429 
1902.544 478984 501110 523070 543672 560757 571308 572967 565535 551667 
1906.883 536075 523734 518260 519753 525658 532890 538695 542079 544402 
1911.223 547354 551203 554918 555582 550672 539691 523833 505754 487476 
1915.563 469166 447772 418784 378688 327156 269198 212772 165635 132224 
1919.902 112007 99579 88907 74955 56861 37343 20874 10470 6394 5533 3280 
1925.206 -2783 -12690 -22166 -26208 -20973 -6361 13982 34493 49869 57491 
1930.028 57922 53779 47914 40524 30550 15076 -7156 -35882 -67555 -98496 
1934.850 -125427 -147520 -166201 -183556 -200315 -215052 -224160 -224425 
1938.707 -214953 -198460 -180542 -167394 -163684 -169248 -180542 -190677 
1942.564 -194685 -189386 -175409 -155702 -133509 -110918 -88624 -67521 
1946.422 -49433 -37704 -36280 -47047 -67919 -92864 -112906 -120657 -111879 
1950.761 -88359 -56390 -24783 -99 14115 18290 14943 5798 -9774 -33696 -68317 
1956.065 -114297 -168652 -226511 -282442 -332405 -376372 -417189 -456612 
1959.923 -495534 -530747 -557486 -570888 -570557 -559075 -543455 -530185 
1963.780 -522474 -520654 -522639 -526214 -532204 -545904 -572079 -613639 
1967.638 -667766 -724765 -771436 -797631 -797995 -776662 -743123 -709118 
1971.495 -683050 -667866 -661249 -660157 -662837 -670611 -685796 -707762 
1975.353 -728734 -734291 -707663 -635873 -518039 -366738 -206309 -61393 
1979.210 47848 114128 141240 141008 126988 109124 92387 77673 63323 48809 
1984.032 34560 21371 9410 -3247 -18852 -38765 -61459 -81733 -92666 -88690 
1988.854 -68681 -36810 -1656 26242 39895 36946 21239 -463 -20343 -34027 
1993.675 -40156 -40487 -38367 -36545 -36147 -38665 -43237 -50327 -59537 
1998.015 -69045 -76135 -78156 -73451 -63347 -53839 -51420 -64308 -97535 
2002.354 -149176 -213827 -281846 -343695 -392295 -424670 -440260 -440459 
2006.212 -425265 -394844 -348662 -290124 -225319 -164280 -116848 -88425 
2010.069 -79613 -86073 -99125 -110984 -118073 -118868 -115489 -109593 
2013.927 -100417 -84847 -60200 -24916 17428 60109 95701 118470 128015 129175 
2018.749 129871 136268 152609 178165 208794 239989 269397 294993 317208 
2023.088 334384 343769 342542 328913 304044 274536 248178 232530 231469 
2027.428 243172 261307 279907 295391 310610 332163 368341 422963 494342 
2031.767 573962 650742 715621 764411 799696 828013 856663 890329 930306 
2036.107 973806 1018341 1062250 1105697 1149614 1194167 1236963 1274015 
2039.964 1300667 1313329 1311668 1298673 1278900 1257998 1240120 1228357 
2043.822 1224968 1230982 1247597 1276175 1316619 1368169 1429998 1501543 
2047.679 1582312 1672043 1769312 1868000 1960453 2034349 2079692 2092277 
2051.537 2075131 2039742 2001960 1978626 1980423 2009882 2059783 2117648 
2055.394 2170425 2209288 2231502 2240861 2242792 2241260 2238130 2231868 
2059.251 2221144 2206524 2191871 2182380 2183679 2197399 2220412 2246656 
2063.109 2268205 2280363 2281995 2276532 2268905 2264708 2266373 2274167 
2066.966 2287124 2303979 2324365 2349350 2378501 2410218 2440373 2464164 
2070.824 2477161 2477994 2468330 2452235 2434108 2416649 2400390 2384231 
2074.681 2367240 2350416 2337057 2331394 2337424 2355746 2382865 2412751 
2078.539 2438873 2457233 2467530 2473028 2478793 2489257 2506653 2529348 
2082.396 2554745 2579509 2601242 2619242 2633676 2644344 2650778 2652245 
2086.253 2647377 2636610 2621075 2602842 2583676 2563677 2541313 2514751 
2090.111 2482026 2443405 2402056 2362409 2329462 2307010 2296518 2296618 
2093.968 2305545 2320435 2339156 2360577 2383331 2405687 2426078 2442739 
2097.826 2455801 2466697 2478760 2494989 2516817 2543346 2571043 2595575 
2101.683 2613442 2623709 2628776 2632809 2639577 2652078 2670247 2692484 
2105.541 2716890 2742497 2769340 2799052 2832602 2869323 2907114 2942073 
2109.398 2971463 2993750 3009331 3019874 3027581 3033487 3037057 3037257 
2113.255 3033521 3026013 3017572 3010632 3007629 3009197 3014536 3021108 
2117.113 3027248 3032319 3036957 3042796 3050871 3060915 3071493 3080302 
2120.970 3086776 3091682 3097355 3107099 3122384 3142675 3164136 3182259 
2124.828 3193341 3196212 3192540 3186465 3181926 3180958 3182193 3181992 
2128.685 3175818 3159897 3133064 3096954 3054742 3010632 2968661 2931498 
2132.542 2901644 2881497 2872024 2873225 2882931 2896140 2906747 2909415 
2136.400 2901877 2886000 2866588 2850045 2841273 2841840 2848544 2857616 
2140.257 2864253 2866721 2865754 2863886 2862085 2859650 2852913 2836904 
2144.115 2808623 2768973 2721824 2674281 2632409 2598775 2572010 2547979 
2147.972 2520783 2488357 2450236 2407753 2362609 2313972 2258246 2190872 
2151.830 2107792 2007619 1892492 1765952 1630202 1486714 1334301 1173967 
2155.687 1012064 863834 750404 697866 725113 837507 1021795 1249457 1484686 
2160.027 1695061 1860413 1973633 2038810 2066142 2065909 2048697 2021699 
2163.884 1990509 1959387 1930864 1904073 1876519 1843509 1801118 1748153 
2167.741 1688076 1627774 1576293 1540113 1522158 1519365 1525017 1530238 
2171.599 1528077 1513579 1485617 1445921 1397287 1344670 1293156 1248959 
2175.456 1218024 1204500 1208089 1224137 1243908 1256004 1251717 1228390 
2179.314 1189283 1144099 1103040 1074274 1060456 1058197 1059659 1058430 
2183.171 1050491 1035878 1017810 999975 983836 970320 957933 946942 940334 
2187.511 942426 957501 987455 1029301 1076267 1120147 1154398 1176259 
2191.368 1188187 1195263 1203603 1216827 1236332 1260290 1287274 1315789 
2195.226 1345701 1377643 1410750 1442697 1468961 1485185 1488842 1480996 
2199.083 1465470 1447916 1434053 1426707 1426108 1430662 1438209 1447251 
2202.940 1458521 1472285 1488510 1505633 1521360 1532233 1537187 1536722 
2206.798 1533330 1530703 1531069 1534627 1538883 1541310 1539349 1532632 
2210.655 1522623 1512083 1504369 1501477 1504336 1513380 1529007 1551186 
2214.513 1579685 1612475 1645667 1673573 1691535 1696525 1689506 1675270 
2218.370 1660934 1653284 1655047 1665524 1680226 1692866 1698188 1694196 
2222.228 1680991 1661167 1637219 1610347 1581281 1550488 1519531 1492001 
2226.085 1471653 1462145 1464273 1476208 1493098 1510088 1523355 1532067 
2229.942 1537686 1543173 1550422 1559766 1569808 1578321 1584873 1590060 
2233.800 1596512 1607653 1625013 1648095 1674471 1700516 1723236 1741965 
2237.657 1757701 1772639 1788741 1806908 1826239 1845372 1863374 1879613 
2241.515 1895387 1911728 1929400 1948803 1969373 1990875 2014276 2041274 
2245.372 2073500 2112687 2157605 2205358 2251485 2291754 2323033 2345486 
2249.229 2360410 2369838 2376102 2379667 2380066 2377301 2372237 2367206 
2253.087 2366107 2372470 2387829 2411085 2438707 2465497 2486591 2498755 
2256.944 2500921 2494422 2481459 2464364 2445171 2425445 2406120 2388362 
2260.802 2372604 2359344 2348817 2340555 2334592 2331361 2331894 2337557 
2264.659 2349716 2367573 2389162 2411318 2430410 2444171 2451935 2455234 
2268.517 2456800 2459166 2463498 2469263 2475228 2479593 2481659 2482159 
2272.374 2482959 2486324 2493789 2505753 2522116 2541246 2562144 2584009 
2276.231 2605809 2626342 2644644 2658945 2668446 2673314 2675381 2677681 
2280.089 2683782 2696485 2717023 2745165 2779044 2816260 2854847 2893004 
2283.946 2929397 2962990 2992382 3016337 3034488 3047301 3056410 3064519 
2287.804 3073929 3086042 3101026 3117645 3134265 3150085 3165271 3180824 
2291.661 3198848 3220278 3245081 3272055 3299231 3325139 3349681 3374124 
2295.519 3400438 3430761 3466163 3505409 3546830 3587487 3625007 3658052 
2299.376 3686589 3711218 3733107 3753360 3772979 3793234 3814861 3839329 
2303.233 3867276 3898702 3932905 3968281 4003159 4036133 4067035 4096402 
2307.091 4125670 4156312 4188896 4223490 4259559 4296267 4333279 4370930 
2310.948 4410124 4451765 4496625 4544804 4595566 4648244 4701363 4754087 
2314.806 4805779 4856103 4904891 4952613 4999937 5048138 5098390 5151765 
2318.663 5209004 5270073 5334606 5402067 5471888 5543096 5613946 5681451 
2322.521 5740203 5784020 5806686 5803496 5773678 5720797 5653118 5580852 
2326.378 5514571 5463063 5430920 5418305 5421358 5434644 5451756 5467559 
2330.235 5479236 5485746 5487659 5486585 5484874 5484907 5489538 5501249 
2334.093 5521652 5551016 5588202 5630561 5675475 5720293 5763370 5804638 
2337.950 5844432 5883423 5921746 5958595 5993162 6024541 6052528 6077123 
2341.808 6098930 6117580 6130988 6135727 6127225 6101081 6054779 5989635 
2345.665 5910494 5826767 5749839 5691186 5661510 5667788 5713646 5798963 
2349.522 5920168 6070336 6239916 6419013 6597409 6767028 6923178 7063893 
2353.380 7189696 7301822 7401539 7489110 7564864 7629503 7684910 7733950 
2357.237 7779791 7825164 7871217 7917578 7963134 8005590 8042987 8073468 
2361.095 8095173 8106280 8106212 8094768 8074041 8047274 8018685 7992090 
2364.952 7969512 7950142 7931311 7908974 7879685 7841728 7795915 7744238 
2368.810 7689800 7634392 7578519 7521777 7463289 7402786 7340877 7279347 
2372.667 7219882 7163185 7109394 7057596 7007184 6957486 6908735 6861809 
2376.524 6817647 6776350 6737581 6700633 6664865 6631085 6600908 6576552 
2380.382 6560338 6553712 6556369 6567066 6583280 6602792 6624155 6646797 
2384.239 6670652 6696023 6723010 6750975 6779211 6806910 6833264 6857904 
2388.097 6880592 6900791 6918061 6931494 6940921 6946476 6948900 6949170 
2391.954 6948294 6946409 6943177 6937722 6929575 6918735 6906615 6895270 
2395.812 6886854 6883319 6885541 6893351 6905942 6922573 6942705 6966476 
2399.669 6994019 7025301 7059987 7097336 7136508 7177300 7219848 7264792 
2403.526 7313380 7366186 7423750 7486009 7553131 7625456 7703595 7788089 
2407.384 7879180 7976262 8077519 8181027 8284627 8387476 8489673 8592537 
2411.241 8697283 8805234 8915883 9027778 9138586 9246104 9348199 9443681 
2415.099 9532036 9612551 9684984 9748380 9801822 9845204 9878488 9903064 
2418.956 9920285 9932149 9939879 9944557 9946930 9947033 9945778 9943914 
2422.813 9942455 9942455 9945032 9951101 9961611 9977579 10000634 10031897 
2426.671 10072521 10123424 10184545 10255376 10335041 10422730 10517769 
2430.046 10619518 10727846 10842315 10961980 11086334 11214498 11345863 
2433.421 11480262 11617866 11758885 11904174 12054347 12210127 12372100 
2436.797 12541193 12717653 12901386 13092130 13289005 13490958 13697588 
2440.172 13908285 14123534 14343992 14569599 14800808 15036806 15276982 
2443.547 15520725 15767731 16018316 16273070 16532414 16796528 17064454 
2446.922 17335098 17606498 17877136 18145836 18411520 18673804 18932302 
2450.298 19186692 19436626 19681848 19922144 20157332 20387300 20611240 
2453.673 20828342 21037276 21236744 21425614 21602692 21766742 21916152 
2457.048 22049084 22163404 22256724 22327318 22374308 22397614 22397752 
2460.423 22375530 22331086 22264432 22175296 22063900 21931344 21780190 
2463.799 21614114 21437622 21255220 21071188 20889284 20712982 20545508 
2467.174 20390320 20250672 20129704 20029938 19952776 19898834 19867442 
2470.549 19858668 19871604 19905978 19961206 20035766 20127312 20232586 
2473.924 20347852 20469436 20594564 20721672 20849966 20979340 21109414 
2477.300 21239144 21366826 21489946 21605374 21710346 21802034 21878236 
2480.675 21937338 21978814 22002690 22010358 22004294 21986586 21960096 
2484.050 21926850 21888062 21844716 21797540 21746922 21693662 21638248 
2487.425 21580718 21520584 21457012 21388578 21314550 21234828 21149974 
2490.801 21060892 20968768 20873432 20773944 20668468 20555062 20432378 
2494.176 20299902 20158200 20008564 19852146 19689406 19520176 19343702 
2497.551 19159266 18966878 18767414 18562094 18352720 18141066 17928376 
2500.926 17715928 17504756 17296548 17092852 16895348 16704993 16521882 
2504.302 16345141 16172945 16003912 15836662 15671434 15509153 15351395 
2507.677 15200386 15057319 14923249 14798718 14683338 14576863 14478499 
2511.052 14387145 14301118 14219146 14139827 14062405 13987391 13915880 
2514.427 13849512 13789823 13737838 13693484 13656794 13627013 13604073 
2517.802 13588278 13580176 13580107 13587628 13601270 13618911 13638365 
2521.178 13657649 13675977 13693484 13711266 13730143 13751586 13776040 
2524.553 13803710 13834426 13867745 13902810 13938564 13973156 14004740 
2527.928 14031090 14051076 14063157 14067230 14063774 14053199 14036086 
2531.303 14013534 13986022 13954987 13921902 13888407 13855909 13825122 
2534.679 13795638 13766327 13735786 13703196 13668659 13633783 13600893 
2538.054 13572483 13550537 13535633 13527361 13523976 13523567 13524626 
2541.429 13526130 13527224 13527874 13527771 13526608 13524285 13520730 
2544.804 13515841 13510133 13503844 13497076 13490035 13482585 13474826 
2548.180 13466931 13459275 13452508 13446766 13441810 13436719 13430875 
2551.555 13423186 13413583 13402374 13390345 13378967 13369193 13361403 
2554.930 13356243 13353100 13351426 13350537 13350025 13348999 13346745 
2558.305 13342611 13336016 13326620 13314286 13298946 13280635 13259454 
2561.681 13235200 13207908 13178021 13146327 13113610 13081271 13049754 
2565.056 13019708 12990551 12961909 12933507 12905449 12878655 12854558 
2568.431 12834389 12818621 12807394 12799785 12794461 12790639 12787840 
2571.806 12786134 12786271 12788693 12793949 12802104 12813298 12828074 
2575.182 12846948 12870839 12899885 12934053 12971877 13011172 13049857 
2578.557 13086359 13120065 13151552 13182564 13214364 13248420 13285622 
2581.932 13325629 13368374 13413514 13460847 13510201 13561681 13614569 
2585.307 13668659 13723270 13778502 13834563 13892445 13952900 14016375 
2588.683 14082769 14150986 14219865 14288311 14355704 14422081 14488023 
2592.058 14553769 14619526 14684846 14748942 14811300 14871608 14930519 
2595.433 14988513 15046102 15103596 15160617 15216309 15270015 15321464 
2598.808 15371236 15420637 15471244 15524605 15581923 15643507 15709050 
2602.184 15777936 15849307 15922340 15996486 16071400 16147049 16223744 
2605.559 16302172 16383195 16467847 16556714 16650282 16748657 16851566 
2608.934 16958530 17069350 17183398 17299996 17418454 17537116 17654188 
2612.309 17768150 17877482 17981452 18080406 18175166 18266422 18355244 
2615.685 18441804 18525404 18605460 18681206 18751984 18818240 18880390 
2619.060 18939118 18995296 19049716 19102756 19154974 19206884 19259180 
2622.435 19312352 19367192 19423838 19482436 19542600 19603986 19666142 
2625.810 19728274 19790102 19851176 19911216 19970330 20029348 20089136 
2629.186 20150738 20215334 20283480 20355040 20428938 20503822 20578060 
2632.561 20650502 20720142 20787396 20852746 20916890 20980870 21045206 
2635.936 21110388 21176588 21244016 21312532 21382696 21454404 21527932 
2639.311 21603388 21680878 21760474 21842346 21926118 22011822 22098450 
2642.687 22185616 22272176 22357912 22442410 22525878 22609014 22692584 
2646.062 22777392 22863892 22952402 23042782 23134890 23228734 23324204 
2649.437 23421482 23520702 23622046 23725092 23829948 23935634 24041382 
2652.812 24146664 24250922 24354012 24456462 24558796 24662274 24767672 
2656.188 24875554 24986196 25099328 25214312 25330628 25447642 25565108 
2659.563 25682820 25800666 25918228 26034944 26150354 26263260 26373696 
2662.938 26481410 26586794 26690582 26793302 26895482 26997052 27098010 
2666.313 27198004 27296788 27394004 27489900 27584654 27678862 27772846 
2669.688 27867130 27962248 28058554 28156084 28254872 28354496 28454498 
2673.064 28554628 28654320 28753682 28852678 28951342 29050028 29148914 
2676.439 29247822 29346788 29446024 29546242 29647724 29751538 29857894 
2679.814 29967080 30078676 30192288 30307812 30425500 30546454 30672172 
2683.189 30804044 30943180 31090438 31245544 31408436 31578406 31755574 
2686.565 31940270 32132570 32332770 32540600 32755070 32974936 33198882 
2689.940 33425554 33654388 33885384 34118832 34355524 34596440 34842584 
2693.315 35094868 35354240 35620952 35895140 36175800 36462048 36752304 
2696.690 37045648 37341388 37639388 37940488 38245340 38554536 38868228 
2700.066 39186280 39508016 39832784 40160412 40490612 40823508 41158660 
2703.441 41495784 41833864 42171656 42507524 42839924 43166860 43486504 
2706.816 43796340 44094444 44378584 44647336 44900164 45137404 45359584 
2710.191 45567672 45762388 45943780 46111728 46265808 46406148 46532748 
2713.567 46645728 46745308 46831072 46902232 46957160 46994524 47013132 
2716.942 47012540 46993272 46956312 46903672 46837232 46759108 46671776 
2720.317 46577520 46479232 46379896 46282540 46190400 46106236 46032520 
2723.692 45971224 45923708 45891076 45873476 45870896 45883124 45909860 
2727.068 45951072 46007464 46079492 46168032 46273548 46395532 46533004 
2730.443 46684168 46846608 47018044 47196452 47380184 47567836 47758308 
2733.818 47950192 48141832 48332004 48519656 48704132 48885092 49062640 
2737.193 49236248 49405772 49570456 49729560 49882732 50030384 50173364 
2740.569 50312784 50450312 50587100 50724264 50862964 51004020 51148888 
2743.944 51298536 51454168 51616648 51786092 51962252 52144348 52331416 
2747.319 52522084 52714928 52907860 53098212 53282548 53457592 53620148 
2750.694 53768028 53900388 54017628 54121016 54212380 54293284 54364624 
2754.070 54427568 54482556 54529664 54568888 54599392 54619908 54628440 
2757.445 54622428 54599768 54559156 54500328 54423700 54330304 54220936 
2760.820 54095684 53954296 53796420 53621724 53431212 53226400 53009672 
2764.195 52783732 52551364 52314376 52074680 51834252 51595116 51359656 
2767.571 51130472 50910016 50700656 50503604 50320560 50152276 50000048 
2770.946 49864748 49747168 49647236 49564292 49496592 49442008 49397936 
2774.321 49362448 49334160 49311592 49293812 49279304 49266088 49251468 
2777.696 49232688 49206820 49171088 49123480 49061860 48985000 48891956 
2781.072 48782944 48659028 48522436 48376664 48225468 48072208 47920484 
2784.447 47772140 47628580 47490208 47357160 47228888 47104896 46983852 
2787.822 46864028 46742984 46618728 46489008 46352324 46208792 46059080 
2791.197 45904628 45746996 45588024 45429000 45271320 45116304 44965684 
2794.573 44821396 44685496 44560024 44446336 44345260 44257416 44182580 
2797.948 44120152 44069724 44030596 44001812 43983000 43973392 43972256 
2801.323 43979260 43993928 44015964 44044676 44079112 44118024 44160132 
2804.698 44204112 44248724 44293372 44337556 44380968 44423612 44464980 
2808.073 44504660 44541996 44575592 44604300 44626296 44639920 44643296 
2811.449 44634996 44614032 44579812 44532928 44474156 44404492 44324968 
2814.824 44236688 44140692 44038700 43933140 43827236 43725064 43630972 
2818.199 43549024 43483028 43435892 43409532 43405832 43425968 43471012 
2821.574 43541556 43637712 43758372 43901392 44063928 44242228 44432312 
2824.950 44630152 44831644 45032680 45229508 45417780 45593544 45753404 
2828.325 45894504 46014616 46113312 46190436 46247008 46284348 46304472 
2831.700 46309524 46302040 46284160 46258360 46226552 46190476 46151304 
2835.075 46110252 46068212 46025956 45983780 45942268 45901244 45860696 
2838.451 45820744 45782084 45746300 45715744 45693364 45682544 45686736 
2841.826 45708860 45751416 45817356 45909124 46030124 46183544 46373264 
2845.201 46601532 46869752 47175476 47512828 47872020 48237980 48592428 
2848.576 48914944 49184000 49380600 49490648 49506248 49427492 49262156 
2851.952 49024988 48733492 48407596 48066692 47726208 47399288 47095328 
2855.327 46819740 46575864 46364708 46185316 46035204 45910708 45807344 
2858.702 45719828 45643488 45574112 45508248 45443568 45378676 45312580 
2862.077 45245244 45176012 45104872 45032020 44957964 44883888 44812652 
2865.453 44747524 44693796 44656664 44641832 44654276 44697832 44774452 
2868.828 44884296 45025808 45195900 45389416 45600720 45822032 46045520 
2872.203 46262784 46465924 46648940 46808040 46942656 47054784 47148548 
2875.578 47229332 47301960 47371020 47439496 47509352 47581960 47658420 
2878.954 47739776 47827624 47923516 48029016 48145680 48274380 48415892 
2882.329 48569828 48734864 48908452 49085788 49260520 49425524 49572652 
2885.704 49695452 49789044 49851700 49885300 49894852 49888308 49874704 
2889.079 49864376 49866936 49891468 49946444 50041316 50185676 50392440 
2892.455 50677756 51060552 51564520 52215304 53037824 54056244 55286320 
2895.830 56732180 58379504 60192388 62108732 64037108 65870844 67488736 
2899.205 68769616 69617672 69966032 69792848 69121456 68017224 66576032 
2902.580 64901428 63102768 61275588 59493296 57813136 56271784 54889628 
2905.956 53677172 52636372 51763844 51052912 50495528 50083184 49807440 
2909.331 49662052 49640696 49737064 49943692 50249876 50640412 51097860 
2912.706 51600192 52123464 52645276 53142588 53595448 53987912 54307624 
2916.081 54546796 54702732 54776812 54774104 54702092 54570424 54388808 
2919.457 54167372 53916516 53645676 53364368 53081740 52805920 52544372 
2922.832 52304244 52091076 51910120 51766200 51662660 51602656 51588176 
2926.207 51619672 51696024 51814728 51971776 52161612 52377656 52611988 
2929.582 52855616 53098552 53330724 53541168 53719988 53857664 53945216 
2932.958 53975832 53943116 53843000 53673648 53436156 53134800 52777484 
2936.333 52374816 51939844 51485912 51027272 50577532 50148820 49753076 
2939.708 49400052 49097880 48852648 48667144 48541296 48471084 48449268 
2943.083 48465384 48505468 48553820 48592840 48603436 48568384 48472276 
2946.458 48304408 48060068 47742036 47359900 46927924 46464780 45989860 
2949.834 45520168 45070504 44651416 44268464 43924012 43617340 43345416 
2953.209 43104616 42891012 42701344 42533248 42385276 42256852 42147344 
2956.584 42055856 41981176 41921400 41874876 41839884 41815512 41801868 
2959.959 41799132 41807740 41827772 41858636 41899288 41948840 42006288 
2963.335 42071224 42143800 42224424 42313428 42411028 42517320 42632440 
2966.710 42756880 42891520 43037548 43196396 43369508 43558184 43763648 
2970.085 43987476 44231152 44496472 44784956 45097412 45433080 45789816 
2973.460 46162912 46544916 46925784 47292908 47630504 47921776 48149716 
2976.836 48298816 48358480 48324448 48200436 47997412 47732308 47426788 
2980.211 47102016 46778260 46472560 46196848 45958880 45761836 45604952 
2983.586 45483448 45388680 45310264 45235536 45151892 45049368 44921000 
2986.961 44764272 44581500 44378068 44160828 43936180 43708356 43478080 
2990.337 43243172 42998912 42740168 42463164 42166656 41852980 41527976 
2993.712 41200116 40877600 40567984 40276148 40003216 39747592 39505476 
2997.087 39272412 39044480 38818768 38594332 38371028 38149284 37929784 
3000.462 37712744 37498452 37287192 37079856 36877488 36681596 36493400 
3003.838 36313928 36143460 35981628 35828348 35683108 35545716 35416424 
3007.213 35295220 35181808 35075472 34974976 34879064 34786652 34697208 
3010.588 34610544 34527264 34448132 34373924 34305000 34241608 34183104 
3013.963 34129192 34078908 34031816 33987276 33945320 33905624 33868404 
3017.339 33833980 33802284 33773524 33747920 33725468 33706380 33691088 
3020.714 33679632 33672220 33668636 33668636 33671680 33677844 33687364 
3024.089 33701008 33720700 33748060 33784984 33832192 33890152 33957644 
3027.464 34033180 34114352 34198336 34282592 34363988 34438912 34504484 
3030.840 34557368 34594936 34616032 34620912 34611188 34589768 34560308 
3034.215 34526264 34490676 34455880 34423488 34394512 34369656 34349216 
3037.590 34333580 34322964 34317480 34317264 34322284 34332252 34346776 
3040.965 34365280 34386692 34410148 34434752 34460076 34486260 34513848 
3044.341 34543408 34575520 34610148 34646712 34684284 34722440 34761096 
3047.716 34801228 34844560 34892740 34947180 35008232 35075148 35146132 
3051.091 35219180 35292348 35364228 35434328 35502604 35569416 35635448 
3054.466 35701380 35768224 35836768 35908276 35983356 36062412 36145188 
3057.842 36230504 36317100 36403708 36489720 36575180 36661080 36748624 
3061.217 36839184 36933400 37031464 37133232 37238052 37345464 37455108 
3064.592 37567344 37682096 37799744 37920452 38044128 38170084 38297664 
3067.967 38425432 38551784 38675096 38793660 38906132 39012252 39112020 
3071.343 39206444 39297076 39385372 39472816 39560640 39649712 39740512 
3074.718 39833148 39927508 40022944 40119196 40215364 40310976 40406092 
3078.093 40501272 40597196 40694888 40794752 40896456 40999392 41102272 
3081.468 41203836 41303484 41401336 41498080 41594520 41691636 41789828 
3084.844 41888996 41989132 42090280 42193128 42299108 42409568 42526272 
3088.219 42650060 42781084 42918516 43061180 43207376 43355412 43503828 
3091.594 43651232 43796488 43938856 44078192 44214896 44349996 44484688 
3094.969 44620676 44759132 44900240 45043856 45189428 45336044 45483264 
3098.344 45630828 45779320 45929304 46081404 46235728 46392212 46550116 
3101.720 46708484 46866284 47022472 47176692 47328748 47479120 47628804 
3105.095 47778764 47929916 48083016 48237760 48393928 48550968 48708288 
3108.470 48865996 49024356 49183924 49345076 49507212 49669672 49831112 
3111.845 49990532 50147668 50303296 50459092 50616772 50777668 50942352 
3115.221 51110160 51279408 51449056 51617952 51786580 51955868 52126756 
3118.596 52299836 52474824 52650400 52824740 52996568 53164944 53330536 
3121.971 53494580 53658952 53824996 53993616 54164628 54336952 54509756 
3125.346 54681800 54852596 55022332 55191796 55361928 55534008 55708532 
3128.722 55885760 56064800 56244588 56423168 56599260 56771984 56941752 
3132.097 57109396 57277068 57446316 57618544 57794208 57972828 58153480 
3135.472 58335200 58516920 58698296 58879024 59059152 59238436 59416848 
3138.847 59594384 59771460 59948948 60127536 60308064 60490876 60675216 
3142.223 60860128 61044508 61227436 61408924 61589524 61770396 61952640 
3145.598 62136680 62322176 62508284 62694020 62878416 63061080 63242108 
3148.973 63422324 63602352 63783408 63966192 64151356 64339600 64530416 
3152.348 64723252 64916892 65109664 65299944 65486984 65670604 65851948 
3155.724 66032672 66214556 66398440 66584804 66772864 66961436 67149432 
3159.099 67336232 67521712 67706344 67890752 68075240 68259376 68443272 
3162.474 68626600 68809328 68991600 69173720 69355600 69536928 69717136 
3165.849 69895432 70071616 70245656 70417848 70588832 70758904 70927872 
3169.225 71095464 71261008 71423960 71584480 71742784 71899392 72054720 
3172.600 72209400 72363168 72515968 72667440 72816936 72963776 73106944 
3175.975 73245488 73378864 73506976 73631120 73752952 73875368 74000520 
3179.350 74130040 74263880 74400600 74537824 74673240 74804848 74932088 
3182.726 75054840 75173520 75289040 75401880 75512256 75620688 75727896 
3186.101 75834840 75942768 76052496 76164112 76277008 76390304 76502952 
3189.476 76614160 76723976 76832520 76940056 77046520 77151536 77254368 
3192.851 77354688 77452496 77548024 77641560 77733256 77822304 77907888 
3196.227 77989096 78065592 78137928 78207944 78277216 78347256 78418336 
3199.602 78490104 78561640 78632040 78700992 78769144 78837320 78906376 
3202.977 78976272 79046544 79116104 79184496 79251688 79318592 79385848 
3206.352 79454080 79522320 79588576 79650984 79707872 79759184 79806280 
3209.728 79851640 79897400 79944752 79992952 80039840 80083904 80123712 
3213.103 80159776 80194408 80230200 80269656 80313784 80362064 80412224 
3216.478 80462624 80511600 80558464 80603616 80648256 80692824 80738152 
3219.853 80783880 80829784 80875760 80921744 80967824 81014576 81062216 
3223.229 81110968 81161056 81212944 81267000 81323616 81382512 81443024 
3226.604 81504096 81564664 81623752 81681304 81738048 81794208 81850576 
3229.979 81907144 81963440 82019504 82075704 82133592 82194928 82261712 
3233.354 82334472 82412336 82492984 82573600 82651312 82725184 82795904 
3236.729 82865792 82937256 83012216 83091248 83173824 83258344 83343840 
3240.105 83429552 83515928 83602880 83690304 83776848 83860232 83939096 
3243.480 84012472 84081224 84147864 84216240 84289368 84369880 84458504 
3246.855 84554696 84656960 84763672 84873800 84986256 85100264 85214632 
3250.230 85327808 85438328 85544752 85646280 85742776 85834624 85922248 
3253.606 86006328 86087320 86165824 86242640 86319032 86396112 86474832 
3256.981 86555144 86636152 86716448 86794056 86867344 86935704 86999136 
3260.356 87058648 87115504 87171144 87226432 87282080 87338112 87394312 
3263.731 87449784 87503688 87553744 87598904 87637296 87668600 87692880 
3267.107 87711736 87726984 87740568 87754032 87767776 87781976 87796128 
3270.482 87809192 87820992 87831088 87839328 87846016 87851416 87856160 
3273.857 87861392 87868408 87878144 87891240 87907352 87925040 87942728 
3277.232 87958472 87971616 87982248 87991216 87999696 88008456 88017792 
3280.608 88027048 88035640 88043552 88051632 88061696 88076104 88096640 
3283.983 88124480 88159552 88200872 88246960 88296536 88348504 88402560 
3287.358 88458200 88515480 88574232 88634776 88698008 88765112 88837960 
3290.733 88917976 89005856 89102016 89205592 89315792 89432288 89555176 
3294.109 89685136 89822720 89968208 90120808 90279368 90442480 90609120 
3297.484 90779368 90954272 91134472 91320720 91512976 91709744 91909696 
3300.859 92112216 92317160 92526096 92741320 92964656 93197560 93440160 
3304.234 93691648 93951056 94217416 94490320 94769456 95055040 95346456 
3307.610 95643160 95944152 96249160 96557904 96871248 97189712 97513432 
3310.985 97842496 98176336 98514344 98856768 99204800 99559696 99923136 
3314.360 100295688 100676704 101063952 101454768 101845976 102235744 
3317.253 102622624 103005728 103385008 103759616 104129080 104493120 
3320.146 104851856 105206496 105558344 105908872 106258112 106605640 
3323.039 106950064 107289880 107624360 107954296 108279976 108602368 
3325.932 108921504 109235384 109541648 109837664 110121552 110392976 
3328.825 110652472 110900952 111138536 111364480 111576448 111772016 
3331.719 111950000 112109704 112252048 112378040 112487664 112579808 
3334.612 112652168 112701984 112727408 112728744 112707480 112666216 
3337.505 112606816 112530296 112435560 112320792 112183744 112023368 
3340.398 111839312 111632224 111402336 111149888 110873752 110572528 
3343.291 110245048 109891048 109510896 109105360 108675856 108222960 
3346.184 107747488 107250520 106733904 106200432 105653752 105097336 
3349.077 104533792 103964408 103389048 102807272 102218720 101623848 
3351.970 101023600 100419552 99812920 99203968 98593328 97981360 97369456 
3355.345 96760600 96158856 95568384 94992600 94433408 93891168 93364720 
3358.720 92852664 92354128 91868920 91397680 90940952 90499000 90071712 
3362.096 89658048 89257032 88868168 88491112 88126024 87773376 87432928 
3365.471 87104568 86788144 86483768 86191720 85912392 85645952 85391936 
3368.846 85148880 84914576 84686672 84462960 84241536 84021032 83800200 
3372.221 83577016 83349016 83113632 82868232 82610912 82341080 82058296 
3375.597 81762608 81453736 81130104 80789672 80430368 80050160 79648200 
3378.972 79224296 78779040 78312808 77825440 77316488 76785232 76231472 
3382.347 75655752 75059872 74446408 73818688 73179912 72532912 71880032 
3385.722 71223064 70563216 69900840 69236360 68569704 67901056 67230808 
3389.098 66560044 65891048 65226240 64568400 63920124 63282816 62657276 
3392.473 62043216 61439684 60845260 60258044 59676184 59097300 58519764 
3395.848 57942004 57363460 56785160 56208876 55637380 55073860 54520348 
3399.223 53977596 53444704 52919460 52399188 51881256 51363944 50846316 
3402.599 50328592 49811676 49296636 48784392 48275676 47770808 47270004 
3405.974 46773500 46281252 45793388 45310448 44832784 44360600 43894464 
3409.349 43433992 42979232 42529412 42083856 41642656 41206420 40775936 
3412.724 40353260 39940004 39536792 39144180 38760984 38385756 38016752 
3416.100 37653264 37294556 36941516 36594824 36255284 35922816 35597432 
3419.475 35278008 34964020 34654752 34350076 34049912 33754292 33462416 
3422.850 33173524 32886538 32600958 32316636 32034286 31755362 31481032 
3426.225 31212824 30951006 30695748 30446326 30201734 29960904 29723186 
3429.601 29487300 29252500 29018180 28783386 28548364 28313256 28079020 
3432.976 27846746 27617702 27392522 27171690 26954920 26742132 26532514 
3436.351 26325954 26122204 25921324 25723036 25526944 25332770 25139804 
3439.726 24947664 24756658 24566508 24377704 24190522 24004682 23820076 
3443.102 23636004 23451834 23266906 23080796 22893230 22704906 22516282 
3446.477 22328784 22144088 21963688 21789040 21621080 21459312 21303066 
3449.852 21150600 21000170 20850312 20700126 20549504 20398724 20248450 
3453.227 20099338 19951492 19804806 19659174 19513904 19368578 19223092 
3456.603 19077518 18931782 18786582 18642120 18498954 18357492 18217598 
3459.978 18079578 17943328 17808710 17675548 17544738 17416348 17291376 
3463.353 17170610 17053910 16941374 16832280 16725896 16621569 16519334 
3466.728 16418844 16319890 16221682 16123185 16022785 15919041 15811507 
3470.104 15701320 15590234 15481580 15377896 15280620 15189577 15102739 
3473.479 15017598 14931514 14843356 14753639 14664214 14577309 14495389 
3476.854 14418827 14347143 14278860 14211615 14143832 14074657 14004090 
3480.229 13932713 13861998 13793312 13728126 13667565 13612996 13564689 
3483.604 13522165 13484157 13448407 13412626 13374798 13334239 13291635 
3486.980 13249377 13210128 13176689 13150698 13132495 13120918 13114464 
3490.355 13111253 13109853 13110331 13112483 13116649 13123376 13132871 
3493.730 13145404 13161354 13181197 13206097 13236601 13273734 13317395 
3497.105 13367383 13423322 13484293 13550229 13620893 13696835 13778195 
3500.481 13865897 13960599 14062987 14174402 14295261 14426877 14569599 
3503.856 14723542 14888032 15062568 15246026 15437906 15637530 15844667 
3507.231 16059160 16280809 16509078 16743595 16983648 17228730 17478230 
3510.606 17731528 17987704 18245966 18505730 18766548 19028978 19293576 
3513.982 19561040 19831442 20103884 20376258 20645360 20908406 21162392 
3517.357 21405530 21636474 21854334 22057660 22244552 22411672 22555926 
3520.732 22674638 22765624 22828410 22863228 22870946 22852472 22808330 
3524.107 22738250 22641684 22518026 22366354 22186174 21977872 21742288 
3527.483 21481730 21199480 20899750 20586710 20263864 19933522 19596844 
3530.858 19254090 18905444 18551304 18192268 17829354 17462810 17092198 
3534.233 16716564 16335715 15950045 15562244 15176401 14797689 14430713 
3537.608 14078182 13740574 13416693 13104082 12800193 12503884 12214455 
3540.984 11932133 11656529 11386883 11121992 10860083 10600165 10342065 
3544.359 10087069 9836866 9593479 9358863 9133815 8918893 8714220 8519407 
3548.216 8333532 8155299 7982472 7811906 7640732 7466558 7288343 7107205 
3552.074 6925670 6747307 6575207 6412018 6258034 6113380 5976937 5847891 
3555.931 5725094 5608206 5496383 5388346 5282818 5177885 5072542 4966186 
3559.789 4858783 4751340 4645364 4542025 4442627 4347770 4257451 4170529 
3563.646 4085130 3998009 3905355 3803529 3690332 3565872 3433733 3299932 
3567.503 3172146 3056978 2957786 2874693 2805021 2744264 2688783 2635443 
3571.361 2582476 2528648 2473561 2416449 2356379 2293020 2226639 2158404 
3575.218 2090146 2024063 1961518 1902908 1847269 1793466 1739969 1686346 
3579.076 1632729 1579951 1529141 1480830 1435283 1392567 1352514 1315390 
3582.933 1281625 1251086 1222841 1194433 1162372 1121975 1069457 1002367 
3586.791 922038 832362 740713 654990 582024 526056 487410 464422 452581 
3591.130 446876 441967 433244 416661 390726 355707 313395 267374 221192 
3595.470 177535 138025 102893 71774 44103 19350 -2551 -21801 -38367 -53309 
3600.292 -67356 -81833 -97171 -113005 -128077 -140962 -150667 -156265 
3604.149 -158948 -160504 -163883 -172262 -188988 -216443 -255785 -306448 
3608.006 -365049 -426656 -484977 -534487 -571815 -596764 -611885 -621580 
3611.864 -630844 -643053 -659793 -679544 -699293 -716098 -728404 -736871 
3615.721 -744678 -756255 -775571 -805437 -846015 -894525 -945774 -993711 
3619.579 -1033115 -1060484 -1075325 -1078762 -1074135 -1064318 -1052121 
3622.954 -1039561 -1026669 -1013381 -998571 -981678 -963528 -947130 -937575 
3626.811 -941840 -966900 -1016488 -1088479 -1172718 -1254166 -1317859 
3630.187 -1355351 -1366845 -1359513 -1342271 -1323739 -1309865 -1302631 
3633.562 -1301342 -1303060 -1305108 -1306364 -1307718 -1311484 -1320568 
3636.937 -1336391 -1358489 -1384450 -1410773 -1434386 -1453342 -1467542 
3640.312 -1478307 -1487487 -1496336 -1504360 -1509775 -1510469 -1503865 
3643.688 -1489402 -1468500 -1444789 -1423521 -1410410 -1410410 -1426725 
3647.063 -1460310 -1508686 -1567720 -1632292 -1697118 -1757150 -1807934 
3650.438 -1844691 -1863398 -1861847 -1840104 -1801698 -1752926 -1702168 
3653.813 -1658567 -1630080 -1621729 -1634107 -1662066 -1696161 -1726095 
3657.188 -1744246 -1748240 -1740121 -1725336 -1709396 -1696062 -1687217 
3660.564 -1682002 -1678866 -1675632 -1670945 -1664376 -1656091 -1646321 
3663.939 -1635560 -1623643 -1610637 -1596805 -1583336 -1571847 -1564947 
3667.314 -1565871 -1577228 -1601460 -1638861 -1686292 -1736590 -1779028 
3670.689 -1803249 -1801533 -1772627 -1720848 -1656025 -1590434 -1536421 
3674.065 -1505648 -1504823 -1533681 -1583138 -1638993 -1688603 -1725534 
3677.440 -1750253 -1767314 -1781800 -1796715 -1811762 -1824333 -1832153 
3680.815 -1834133 -1831295 -1826181 -1821232 -1817008 -1812158 -1803315 
3684.190 -1786816 -1761539 -1729396 -1695798 -1668106 -1653748 -1657841 
3687.566 -1681342 -1719858 -1765862 -1810376 -1846670 -1871876 -1886261 
3690.941 -1891671 -1890153 -1882368 -1869402 -1852015 -1831592 -1810871 
3694.316 -1792096 -1777048 -1766588 -1760054 -1755863 -1752365 -1748867 
3697.691 -1745302 -1743124 -1744148 -1750022 -1761704 -1778566 -1798695 
3701.067 -1819681 -1838554 -1852213 -1859175 -1858449 -1850102 -1835056 
3704.442 -1814632 -1790149 -1763189 -1735072 -1707086 -1680153 -1655398 
3707.817 -1634140 -1618065 -1609284 -1610901 -1625294 -1654540 -1698669 
3711.192 -1755137 -1817536 -1877650 -1927167 -1959163 -1970378 -1961406 
3714.568 -1936337 -1900875 -1861649 -1824597 -1793614 -1770614 -1755500 
3717.943 -1746227 -1740187 -1735072 -1729396 -1723686 -1718736 -1715865 
3721.318 -1715865 -1718901 -1724214 -1731013 -1738900 -1747877 -1758074 
3724.693 -1770317 -1783450 -1795758 -1803777 -1803249 -1791040 -1765499 
3728.069 -1728010 -1682794 -1635131 -1591556 -1557981 -1537709 -1532063 
3731.444 -1538897 -1553953 -1572210 -1591028 -1610175 -1632919 -1663353 
3734.819 -1703620 -1751804 -1801302 -1842942 -1868049 -1873163 -1859801 
3738.194 -1833803 -1802160 -1770251 -1740748 -1713521 -1687448 -1662429 
3741.570 -1641931 -1632622 -1644043 -1684345 -1755137 -1845845 -1935018 
3744.945 -1996435 -2013816 -1986738 -1928255 -1856898 -1789786 -1740352 
3748.320 -1715270 -1714412 -1731640 -1757414 -1783615 -1804602 -1819813 
3751.695 -1830206 -1836178 -1836343 -1828457 -1810376 -1782889 -1748801 
3755.071 -1713125 -1680516 -1654474 -1636682 -1626878 -1623544 -1625129 
3758.446 -1631203 -1641601 -1655959 -1672727 -1687943 -1697184 -1696986 
3761.821 -1686193 -1666819 -1643581 -1622092 -1606940 -1600007 -1599710 
3765.196 -1602285 -1602681 -1597828 -1587693 -1575511 -1566234 -1564518 
3768.572 -1573332 -1592645 -1619352 -1647773 -1672727 -1690022 -1698009 
3771.947 -1697481 -1690517 -1680153 -1668766 -1658501 -1650513 -1645000 
3775.322 -1641700 -1639686 -1638432 -1638168 -1639356 -1643383 -1650810 
3778.697 -1661967 -1675169 -1687679 -1696392 -1698504 -1693257 -1681441 
3782.073 -1665663 -1648895 -1634140 -1623016 -1616051 -1612948 -1612354 
3785.448 -1612948 -1613575 -1613410 -1611759 -1608359 -1603110 -1596541 
3788.823 -1589740 -1584689 -1582874 -1585713 -1593009 -1603011 -1613674 
3792.198 -1622257 -1627340 -1629618 -1631203 -1635560 -1645595 -1662792 
3795.573 -1685368 -1709264 -1728175 -1737052 -1733290 -1718274 -1697184 
3798.949 -1677777 -1668502 -1676127 -1703587 -1746722 -1795857 -1836079 
3802.324 -1854292 -1844130 -1807571 -1752926 -1691903 -1637936 -1601097 
3805.699 -1588354 -1600436 -1631005 -1669393 -1703125 -1723587 -1728274 
3809.074 -1719627 -1702663 -1682167 -1661439 -1641105 -1621002 -1600535 
3812.450 -1580530 -1563890 -1555240 -1558839 -1577624 -1609812 -1648862 
3815.825 -1683190 -1701409 -1696095 -1667050 -1621068 -1568843 -1523775 
3819.200 -1496270 -1494322 -1519846 -1567258 -1624138 -1674707 -1706557 
3822.575 -1714511 -1701343 -1674905 -1644670 -1618725 -1601856 -1595121 
3825.951 -1595980 -1600172 -1603011 -1601922 -1597036 -1590467 -1585779 
3829.326 -1585317 -1589938 -1598522 -1608095 -1615027 -1615754 -1608821 
3832.701 -1593867 -1572507 -1546986 -1520738 -1496733 -1478373 -1468500 
3836.076 -1469391 -1481510 -1503238 -1531204 -1559829 -1584128 -1600568 
3839.452 -1607633 -1606775 -1600469 -1592183 -1584854 -1581124 -1582180 
3842.827 -1588189 -1598555 -1611000 -1622950 -1631467 -1634008 -1629783 
3846.202 -1618824 -1602846 -1583864 -1563428 -1542067 -1519186 -1493497 
3849.577 -1464801 -1434651 -1408197 -1393104 -1398916 -1433627 -1499407 
3852.953 -1588882 -1683355 -1760978 -1805063 -1811300 -1785562 -1739923 
3856.328 -1686193 -1632391 -1584161 -1543982 -1512351 -1489567 -1475368 
3859.703 -1469325 -1470877 -1478208 -1489006 -1500794 -1512516 -1523808 
3863.078 -1536289 -1551278 -1568744 -1585713 -1597432 -1598059 -1583831 
3866.454 -1555438 -1517436 -1478307 -1447134 -1431315 -1434254 -1453342 
3869.829 -1479760 -1502610 -1513408 -1509412 -1494355 -1475434 -1460871 
3873.204 -1456579 -1464471 -1482039 -1503238 -1521332 -1530643 -1529091 
3876.579 -1517733 -1500860 -1483161 -1470052 -1465660 -1471703 -1487289 
3879.955 -1508554 -1529025 -1542199 -1543024 -1529685 -1504426 -1472792 
3883.330 -1441718 -1418369 -1408131 -1412457 -1427847 -1446440 -1459220 
3886.705 -1458659 -1442180 -1413052 -1377547 -1343889 -1319841 -1311021 
3890.080 -1319049 -1342237 -1374607 -1408957 -1438415 -1458296 -1467377 
3893.456 -1466188 -1456711 -1440661 -1419690 -1395118 -1368497 -1342039 
3896.831 -1317925 -1299459 -1288723 -1286741 -1292786 -1304249 -1317628 
3900.206 -1329850 -1338967 -1345111 -1350033 -1356078 -1365095 -1377481 
3903.581 -1392311 -1406810 -1418402 -1425172 -1426196 -1422431 -1415430 
3906.957 -1407041 -1398751 -1391584 -1385441 -1380255 -1375301 -1370148 
3910.332 -1364335 -1356936 -1347457 -1335268 -1319874 -1301342 -1280596 
3913.707 -1259485 -1240124 -1224860 -1215707 -1213560 -1217888 -1227239 
3917.082 -1239034 -1250730 -1260113 -1265729 -1267117 -1264408 -1257800 
3920.458 -1248087 -1236556 -1224628 -1214485 -1208438 -1208537 -1215972 
3923.833 -1230642 -1250565 -1272436 -1292687 -1307454 -1315085 -1315184 
3927.208 -1309138 -1299129 -1287368 -1275838 -1265630 -1257172 -1250201 
3930.583 -1244419 -1239199 -1234342 -1229353 -1223703 -1216798 -1208603 
3933.958 -1198724 -1188051 -1177411 -1168059 -1160789 -1156030 -1153288 
3937.334 -1151536 -1149520 -1146414 -1142151 -1137392 -1133526 -1132336 
3940.709 -1135112 -1142448 -1153816 -1167762 -1181640 -1193206 -1200376 
3944.084 -1201830 -1197633 -1188910 -1177510 -1165415 -1154444 -1145951 
3947.459 -1140333 -1137128 -1135409 -1134120 -1132369 -1129659 -1126288 
3950.835 -1122917 -1119480 -1116307 -1113069 -1109037 -1103914 -1097733 
3954.210 -1090760 -1083786 -1077572 -1072383 -1067987 -1063789 -1058997 
3957.585 -1053047 -1046040 -1038536 -1031892 -1026934 -1024091 -1023463 
3960.960 -1023826 -1024091 -1022736 -1019331 -1013546 -1006373 -998835 
3964.336 -992356 -987926 -986009 -986108 -986934 -987100 -984554 -978174 
3968.193 -966999 -951659 -933177 -913703 -895550 -881100 -871378 -866716 
3972.051 -866418 -868964 -872370 -875115 -875710 -873594 -868832 -861921 
3975.908 -853621 -844461 -835168 -826173 -817706 -809835 -802460 -795680 
3979.765 -789231 -782980 -776497 -770080 -763465 -757082 -751426 -747357 
3983.623 -745637 -747291 -752749 -761514 -772627 -784104 -794026 -800079 
3987.480 -800641 -795978 -786519 -774380 -761812 -751194 -744413 -742230 
3991.338 -744347 -750102 -758173 -767203 -776100 -784038 -790653 -796143 
3995.195 -801269 -806594 -813242 -821576 -831530 -842079 -851835 -859044 
3999.052 -861987 -860367 -854679 -846114 
##END=
