
##TITLE=Z305_3_d
##JCAMP-DX=5.01  $$ Nicolet v. 1
##DATATYPE=INFRARED SPECTRUM
##ORIGIN=UniL
##OWNER=Nicolet
##LONGDATE=2011/09/08
##TIME=17:13:07
##SPECTROMETER/DATA SYSTEM=Nicolet iS5
##DATA PROCESSING=
Ratio against background
%Transmittance->Absorbance
Truncated
ElementMultiply or ElementDivide
##COMMENTS=
Number of sample scans: 32
Collection length: 51.21 sec
Sample gain: 2.0
Background collected on: Jeu Sep 08 16:10:46 2011 (GMT+02:00);
Number of background scans: 32
Background gain: 2.0
Sample spacing:  1.000
Number of scan points: 12415
Resolution points: 8192
Number of FFT points: 65536
Apodization: N-B fort;
Phase correction: Mertz;
Laser frequency: 15798.0 cm-1
Number of rejected sample scans: 0
Number of rejected background scans: 0
Bench serial number: ASB1000141;
##RESOLUTION=4.000
##XUNITS=1/CM
##YUNITS=ABSORBANCE
##FIRSTX=649.893372
##LASTX=4000.122314
##FIRSTY=0.133904
##MAXX=4000.122314
##MINX=649.893372
##MAXY=0.305376
##MINY=-0.000018
##XFACTOR=1.000000
##YFACTOR=1.000000E-009
##NPOINTS=6950
##DELTAX=0.482117
##ZPD=6100
##XYDATA=(X++(Y..Y))
649.893 133903848 134056224 134810400 136149760 137951760 140033904 
652.786 142192752 144264928 146142912 147762352 149098096 150150272 
655.679 150950672 151565952 152098704 152663952 153341696 154148384 
658.571 155012592 155801200 156352576 156544144 156338512 155786784 
661.464 155004544 154121024 153254912 152483952 151850224 151378624 
664.357 151084752 150978576 151054448 151272368 151541008 151709504 
667.250 151622272 151196016 150502256 149736352 149107216 148720080 
670.142 148551696 148491440 148393136 148129440 147604160 146770272 
673.035 145618160 144149088 142358080 140235072 137791472 135094048 
675.928 132277920 129543872 127090576 125059368 123496320 122340384 
678.820 121459016 120698376 119951208 119176424 118403232 117695800 
681.713 117121840 116721784 116502840 116451752 116549248 116778840 
684.606 117117456 117521312 117917832 118199960 118257640 118013952 
687.498 117452344 116632888 115671112 114707800 113853704 113169120 
690.391 112659376 112292936 112029328 111841152 111722904 111682104 
693.284 111723112 111838112 112007888 112216560 112467360 112790816 
696.177 113237664 113853576 114657744 115622640 116676880 117716608 
699.069 118640520 119376104 119885888 120168720 120241744 120124768 
701.962 119831208 119372960 118769776 118053048 117266312 116451800 
704.855 115633232 114808432 113950656 113025192 112005360 110891888 
707.747 109714712 108527960 107391232 106351136 105436888 104655368 
710.640 103998256 103449752 102991992 102605872 102266224 101942544 
713.533 101599312 101200752 100722408 100154872 99505064 98789880 98029480 
716.908 97238872 96425080 95590216 94735208 93864512 92987192 92114296 
720.282 91255264 90414976 89594232 88791496 88006512 87241256 86498848 
723.657 85781168 85086160 84407304 83736264 83066896 82398160 81734696 
727.032 81084248 80454016 79847896 79266128 78708096 78176768 77679640 
730.407 77228720 76835328 76504568 76231752 76003192 75801936 75613792 
733.782 75433608 75266976 75125816 75021952 74960720 74938944 74947720 
737.156 74977448 75024192 75091152 75186520 75316552 75479536 75662536 
740.531 75842928 75997040 76103976 76153848 76146184 76088112 75989144 
743.906 75857176 75699576 75523536 75337672 75150672 74966424 74779704 
747.281 74571696 74314640 73977464 73535944 72983536 72333848 71618512 
750.656 70874664 70137816 69432256 68767288 68140080 67540256 66955788 
754.031 66373884 65782816 65171912 64531340 63856288 63150436 62429280 
757.405 61719172 61050988 60454736 59948912 59536692 59205172 58932192 
760.780 58692644 58466080 58242136 58019212 57802724 57600120 57418672 
764.155 57264968 57144468 57064012 57029592 57044552 57105996 57203468 
767.530 57319864 57434028 57527752 57590964 57624032 57637276 57647416 
770.905 57674056 57733124 57835204 57982368 58167424 58372492 58567688 
774.279 58716160 58774920 58703948 58478248 58092652 57568340 56946284 
777.654 56282944 55634668 55043732 54534888 54109872 53752952 53437992 
781.029 53139628 52840272 52532332 52219116 51910308 51618736 51355664 
784.404 51129656 50945556 50805416 50709148 50654412 50637320 50651988 
787.779 50691384 50749552 50822100 50908488 51012216 51140388 51301708 
791.154 51504304 51754176 52053048 52398892 52786052 53206440 53651792 
794.528 54112836 54580420 55043996 55489540 55900044 56253864 56526300 
797.903 56695144 56742416 56659504 56449620 56127724 55718552 55250756 
801.278 54756892 54267264 53806956 53397152 53051224 52775988 52572044 
804.653 52436312 52364276 52352052 52398592 52504472 52670264 52893264 
808.028 53163520 53461752 53761916 54031816 54238808 54357344 54370184 
811.402 54271544 54065324 53763152 53380968 52935556 52445396 51928048 
814.777 51399004 50872760 50360480 49869504 49404548 48968052 48561748 
818.152 48187404 47847452 47544584 47281568 47059992 46880604 46743096 
821.527 46646060 46586852 46561552 46564796 46588772 46624664 46664320 
824.902 46700848 46731616 46757524 46783092 46813284 46851296 46895628 
828.277 46939700 46972704 46980496 46950220 46872480 46742800 46563764 
831.651 46344432 46100452 45850716 45616288 45417300 45267308 45172772 
835.026 45130420 45129096 45152112 45181268 45202444 45206492 45191156 
838.401 45160052 45120828 45082412 45053556 45042272 45054256 45092668 
841.776 45156488 45240208 45333764 45424292 45499932 45552956 45582764 
845.151 45596344 45607384 45631712 45682280 45767724 45889680 46044748 
848.525 46226480 46427644 46642000 46863736 47087060 47306948 47519004 
851.900 47721696 47918152 48116700 48328408 48564640 48832884 49134096 
855.275 49462020 49805284 50151348 50488904 50811080 51115488 51402920 
858.650 51676428 51940780 52202972 52472916 52762592 53084772 53448784 
862.025 53856764 54301056 54765236 55228256 55667888 56068380 56422680 
865.400 56732180 57004088 57248032 57473472 57687600 57896760 58107384 
868.774 58325764 58557828 58807012 59073916 59355572 59648624 59951344 
872.149 60266000 60598064 60953564 61334576 61735408 62142072 62532848 
875.524 62885152 63180752 63409792 63572964 63679420 63744804 63785904 
878.899 63820824 63867808 63943772 64065716 64248076 64499548 64822176 
882.274 65209492 65649988 66128464 66631504 67150088 67680488 68222464 
885.648 68777736 69347432 69931552 70529584 71141520 71767880 72409544 
889.023 73064872 73728496 74390208 75036088 75652912 76230408 76763952 
892.398 77254880 77708920 78132576 78530680 78905384 79255552 79578072 
895.773 79867408 80115944 80313944 80448664 80506736 80476744 80351744 
899.148 80132952 79829264 79456704 79034344 78581576 78116632 77653920 
902.523 77205880 76782376 76390616 76035440 75718976 75440192 75196680 
905.897 74986312 74808944 74666720 74563512 74502856 74486216 74511904 
909.272 74575472 74671392 74795288 74945048 75120456 75321784 75547464 
912.647 75792744 76050720 76313512 76575072 76832912 77088936 77347048 
916.022 77612008 77887240 78175456 78478944 78801360 79148792 79528088 
919.397 79945512 80403168 80898312 81422320 81963928 82511576 83055304 
922.771 83588264 84105232 84601192 85071240 85510616 85917808 86296592 
926.146 86657224 87015000 87384224 87774432 88184112 88599584 88993816 
929.521 89331216 89574192 89684568 89630720 89392400 88962424 88351064 
932.896 87587024 86718800 85805712 84911144 84095984 83404336 82863144 
936.271 82480768 82251136 82159776 82189112 82323744 82549160 82850272 
939.646 83210984 83611112 84027792 84439824 84827240 85175848 85477656 
943.020 85729784 85934320 86097904 86232336 86353544 86480336 86633360 
946.395 86829704 87081400 87394184 87767664 88198400 88682888 89219264 
949.770 89807360 90447088 91136480 91870352 92640952 93440736 94264504 
953.145 95111544 95984864 96889384 97829256 98804976 99814376 100853752 
956.520 101920128 103012784 104132536 105279664 106451296 107640912 
959.412 108839552 110038296 111233176 112426064 113623928 114835720 
962.305 116067992 117322696 118596504 119883216 121177528 122477288 
965.198 123783272 125097944 126422136 127754880 129094080 130439432 
968.090 131796344 133175504 134592160 136061184 137592928 139190560 
970.983 140852528 142575808 144361840 146218544 148158880 150198624 
973.876 152350240 154620128 157009376 159516784 162143040 164892144 
976.768 167769936 170778064 173908576 177140896 180444208 183779136 
979.661 187107344 190394416 193607040 196711600 199669040 202431440 
982.554 204951536 207188720 209119264 210741872 212075520 213151392 
985.447 214000720 214651648 215127904 215451328 215651728 215767872 
988.339 215842480 215920720 216038064 216216848 216469776 216803392 
991.232 217224688 217744656 218375952 219127424 219998896 220979280 
994.125 222049184 223187456 224379600 225618288 226901488 228224896 
997.017 229574336 230922464 232235120 233475840 234617568 235648160 
999.910 236567840 237383696 238101568 238723072 239246304 239671616 
1002.803 240008224 240275248 240498320 240704448 240912304 241131680 
1005.695 241366688 241621936 241910320 242255040 242683472 243221424 
1008.588 243884464 244673136 245575552 246573312 247649728 248791472 
1011.481 249988288 251228992 252496384 253768864 255026464 256256784 
1014.374 257463776 258664912 259887392 261154496 262476208 263845920 
1017.266 265244192 266646976 268034960 269399552 270741696 272067328 
1020.159 273382112 274691456 276004096 277337120 278720288 280192128 
1023.052 281787616 283529088 285414464 287418432 289495488 291595680 
1025.945 293675200 295696608 297629344 299441376 301089856 302526144 
1028.838 303701792 304577664 305135744 305375648 305305952 304931872 
1031.731 304246560 303231104 301866080 300143008 298075392 295697216 
1034.624 293056832 290202752 287172768 283997504 280704416 277326752 
1037.517 273913856 270525088 267222080 264061872 261085488 258320752 
1040.410 255790864 253519200 251536880 249880592 248580560 247654304 
1043.303 247098608 246891792 247000592 247390896 248038624 248927248 
1046.196 250043360 251369360 252873296 254511232 256236256 258003536 
1049.089 259782048 261553728 263303968 265012912 266646768 268156464 
1051.982 269490752 270606752 271479488 272105472 272492832 272649024 
1054.875 272569536 272234912 271615488 270684224 269421088 267816544 
1057.768 265866048 263561632 260889712 257836880 254400080 250600960 
1060.661 246489616 242146112 237661568 233122880 228606192 224165120 
1063.554 219837872 215655808 211645184 207830944 204232064 200854432 
1066.448 197689040 194713136 191899024 189220768 186661008 184213504 
1069.341 181877376 179650864 177526480 175488432 173517248 171595360 
1072.234 169709856 167854784 166027968 164225328 162438800 160656672 
1075.127 158866256 157061504 155246560 153436640 151653472 149921744 
1078.020 148263712 146695568 145229632 143876640 142646112 141547584 
1080.913 140587248 139764976 139072480 138494816 138014960 137617744 
1083.806 137295328 137047904 136881936 136806384 136828768 136953472 
1086.699 137182384 137516112 137955952 138503024 139156464 139910272 
1089.592 140752352 141663792 142622128 143607136 144601952 145595824 
1092.485 146583136 147560336 148524832 149475328 150413552 151346640 
1095.378 152286480 153249312 154248992 155292976 156379120 157495904 
1098.271 158625104 159745120 160836256 161878976 162853248 163738352 
1101.164 164511472 165151264 165643744 165985232 166184800 166259040 
1104.057 166229440 166115184 165929936 165684368 165388608 165054304 
1106.950 164695936 164325872 163947904 163552784 163116608 162604656 
1109.844 161975184 161190096 160217152 159030096 157609760 155941136 
1112.737 154014736 151831792 149409328 146783280 144003616 141132512 
1115.630 138233008 135357696 132551016 129844960 127261264 124816472 
1118.523 122520560 120376024 118375600 116501664 114728208 113023248 
1121.416 111357752 109708144 108056944 106393208 104707912 102991112 
1124.309 101233040 99426192 97569840 95672896 93755048 91843664 89966784 
1127.684 88151360 86418224 84781320 83250480 81831888 80528432 79338632 
1131.059 78254400 77260664 76334720 75452136 74591096 73737008 72887232 
1134.435 72049680 71241688 70483704 69797248 69202240 68714576 68348136 
1137.810 68113880 68018384 68063800 68245568 68553376 68971368 69482256 
1141.185 70070368 70722480 71428536 72180448 72968208 73779848 74601632 
1144.560 75419264 76222512 77006560 77772688 78525440 79270896 80013912 
1147.936 80758344 81507776 82268832 83051008 83867064 84729688 85646800 
1151.311 86620056 87643456 88706136 89795176 90899944 92013344 93131128 
1154.686 94249936 95365280 96469632 97553616 98606888 99617744 100574232 
1158.061 101460296 102254224 102929712 103455352 103798248 103931240 
1160.954 103832368 103487304 102888968 102033816 100921672 99555520 97942912 
1164.330 96097496 94037824 91788816 89377464 86831168 84178472 81447496 
1167.705 78666792 75867352 73078752 70329720 67646408 65048852 62552408 
1171.080 60167684 57900580 55754416 53730300 51827792 50045628 48382336 
1174.455 46835944 45404428 44085308 42875212 41769400 40761448 39844296 
1177.831 39009900 38250988 37561668 36937260 36375100 35873652 35432240 
1181.206 35050328 34727428 34462732 34255448 34104604 34009276 33968144 
1184.581 33979896 34042744 34154748 34313928 34518512 34766444 35055716 
1187.956 35383388 35744908 36133664 36541440 36958868 37376340 37785824 
1191.332 38181696 38560800 38922440 39267336 39597148 39914140 40220420 
1194.707 40518732 40811568 41100888 41387160 41668912 41942416 42202256 
1198.082 42442812 42658832 42846028 43000596 43118408 43194348 43222712 
1201.457 43197820 43115920 42976564 42782952 42539972 42252396 41921508 
1204.833 41544164 41112508 40616372 40046380 39396728 38667344 37863944 
1208.208 36997908 36085492 35145020 34198480 33269346 32379604 31551040 
1211.583 30800950 30140574 29575290 29104232 28722602 28423260 28199394 
1214.958 28046112 27959634 27937406 27976630 28073436 28223118 28420678 
1218.333 28661364 28942416 29261716 29617642 30008086 30429622 30877928 
1221.709 31349204 31841032 32353296 32887756 33446956 34032172 34642444 
1225.084 35273980 35921732 36579972 37243972 37910148 38575392 39235888 
1228.459 39886496 40520480 41130248 41709068 42250972 42750884 43204156 
1231.834 43605032 43946704 44222528 44427724 44561564 44628684 44639844 
1235.210 44610508 44558296 44503008 44463620 44457604 44502164 44612120 
1238.585 44799724 45074512 45441432 45900728 46447816 47074800 47770884 
1241.960 48522920 49317456 50138408 50967688 51786540 52574776 53313904 
1245.335 53989488 54591200 55114296 55558520 55927668 56228748 56470376 
1248.711 56663204 56817488 56940956 57037600 57105352 57136644 57118844 
1252.086 57038584 56883392 56644632 56319004 55908148 55417752 54855716 
1255.461 54232612 53559948 52849176 52111584 51356636 50590636 49817472 
1258.836 49039116 48256900 47473428 46692952 45921720 45166892 44434992 
1262.212 43730964 43058912 42422356 41825580 41274480 40775644 40335880 
1265.587 39960524 39651780 39408772 39227840 39104444 39033568 39011784 
1268.962 39036580 39105968 39217796 39369156 39556172 39774464 40019564 
1272.337 40287052 40572204 40869700 41172536 41473476 41766264 42047096 
1275.713 42316092 42577504 42837396 43100700 43368412 43634968 43889296 
1279.088 44115640 44296860 44419060 44471440 44448792 44350652 44181224 
1282.463 43948684 43664968 43346332 43010548 42675280 42356560 42065564 
1285.838 41808324 41587116 41401736 41252580 41141136 41070476 41043272 
1289.214 41060168 41118264 41210828 41328812 41463924 41609432 41762252 
1292.589 41922496 42091700 42272048 42465284 42673196 42898764 43146072 
1295.964 43421648 43732172 44083552 44480068 44923204 45412668 45947648 
1299.339 46527728 47153240 47824592 48540924 49299344 50094488 50920376 
1302.715 51771196 52643180 53535096 54446272 55376832 56325192 57288488 
1306.090 58263048 59245880 60234672 61227860 62223280 63216084 64198984 
1309.465 65161860 66093392 66983744 67824552 68608744 69330216 69981288 
1312.840 70552352 71033408 71414240 71686424 71844184 71883048 71799776 
1316.216 71591864 71258744 70803872 70236576 69574184 68839072 68056016 
1319.591 67249688 66439368 65639192 64858764 64103888 63379228 62689656 
1322.966 62039852 61434644 60879644 60380140 59943356 59578840 59296960 
1326.341 59109300 59025328 59049736 59181252 59411948 59729292 60116956 
1329.717 60558868 61038980 61540348 62046808 62540204 63001512 63414044 
1333.092 63764564 64045056 64252808 64388328 64452812 64446972 64369804 
1336.467 64220348 63999520 63710956 63362168 62961832 62519804 62045088 
1339.842 61545120 61026584 60494876 59954236 59406968 58852996 58289916 
1343.218 57714580 57125308 56524564 55920736 55326960 54759408 54234340 
1346.593 53763264 53353200 53006264 52722000 52500172 52342372 52252072 
1349.968 52234060 52290868 52421804 52620924 52878628 53183368 53522804 
1353.343 53886208 54264108 54647076 55026016 55391888 55737196 56057976 
1356.719 56354428 56630400 56890152 57136188 57365768 57570800 57739332 
1360.094 57858296 57918568 57917280 57859888 57759544 57636592 57514208 
1363.469 57413604 57353176 57343764 57388836 57484820 57621764 57785356 
1366.844 57957416 58120148 58256952 58353656 58399780 58385872 58301968 
1370.219 58137420 57879836 57518256 57045308 56460452 55772948 55001572 
1373.595 54175892 53331812 52503948 51720848 50997908 50336224 49725136 
1376.970 49148120 48588908 48036008 47486404 46944832 46422224 45929748 
1380.345 45476016 45064696 44694564 44360308 44053884 43765116 43479876 
1383.720 43179376 42841164 42438832 41947928 41353484 40655992 39877528 
1387.096 39058404 38249752 37496608 36827352 36251072 35761100 35342696 
1390.471 34978964 34655792 34361372 34085356 33819332 33556476 33294458 
1393.846 33037536 32797198 32588850 32425124 32310714 32239724 32198508 
1397.221 32169960 32140028 32102816 32062038 32029614 32019768 32043632 
1400.597 32103668 32194118 32302860 32417342 32526780 32625534 32713518 
1403.972 32795730 32880500 32975756 33088200 33222056 33378716 33558160 
1407.347 33759236 33980004 34217804 34469544 34732772 35006472 35291736 
1410.722 35592396 35913996 36261732 36639128 37046908 37483352 37945044 
1414.098 38428432 38931392 39452712 39991372 40546300 41115132 41694696 
1417.473 42283220 42882304 43498296 44138492 44810152 45513140 46238092 
1420.848 46969752 47690628 48385776 49043128 49656336 50224132 50748920 
1424.223 51235448 51687888 52108372 52495012 52842104 53140900 53381676 
1427.599 53554924 53653324 53673948 53618836 53495032 53312404 53083164 
1430.974 52820176 52536256 52244340 51954896 51673184 51397808 51119364 
1434.349 50823032 50493632 50125016 49730488 49348376 49032592 48832992 
1437.724 48776160 48856948 49046352 49303352 49588436 49865452 50105904 
1441.100 50292024 50414024 50468844 50456672 50377896 50230980 50013652 
1444.475 49723724 49360292 48924588 48420080 47854184 47240116 46601128 
1447.850 45968828 45378712 44862692 44438368 44108084 43860888 43681200 
1451.225 43554520 43472880 43434976 43441936 43490716 43569136 43651488 
1454.601 43699376 43668524 43516316 43222384 42805216 42327232 41866664 
1457.976 41478760 41179460 40950740 40762944 40590176 40418568 40243504 
1461.351 40063600 39874404 39665612 39422052 39130548 38788044 38408524 
1464.726 38020876 37659876 37351892 37105008 36910964 36752376 36612344 
1468.102 36478300 36343252 36201908 36044768 35855228 35609768 35283004 
1471.477 34859996 34346956 33776712 33196020 32647074 32151480 31707238 
1474.852 31299348 30913434 30545282 30203796 29905634 29665214 29488720 
1478.227 29370044 29294962 29246404 29211814 29186546 29174462 29184988 
1481.603 29228826 29315098 29449218 29634316 29873582 30170656 30530138 
1484.978 30954102 31440102 31977966 32547530 33122670 33669280 34149516 
1488.353 34525900 34761524 34826536 34705712 34402616 33941272 33358392 
1491.728 32693118 31974506 31215280 30414874 29563338 28650816 27678722 
1495.104 26666306 25654804 24703660 23871884 23203462 22716918 22405986 
1498.479 22248040 22213514 22273674 22400508 22567654 22752356 22932944 
1501.854 23090896 23211222 23277638 23270646 23164038 22920440 22494820 
1505.229 21845762 20958580 19872126 18685460 17525076 16485296 15597858 
1508.604 14840373 14169917 13545888 12943611 12355668 11788164 11254485 
1511.980 10766225 10330189 9945337 9604862 9298807 9017325 8752828 8500316 
1515.837 8259637 8035393 7836567 7673275 7551445 7469356 7416302 7373600 
1519.695 7318367 7232650 7110640 6967082 6831918 6738456 6705343 6730447 
1523.552 6795366 6875711 6952469 7014491 7062816 7106598 7157964 7224598 
1527.409 7306708 7398573 7493088 7586544 7679379 7775237 7877324 7985138 
1531.267 8093789 8195748 8285573 8364742 8444670 8542961 8673891 8841144 
1535.124 9034984 9238387 9431117 9595953 9721611 9801890 9836967 9832188 
1538.982 9797552 9745228 9686881 9633555 9593954 9573427 9572275 9584876 
1542.839 9600458 9605878 9590669 9550834 9491395 9423872 9361673 9312958 
1546.697 9276805 9244717 9204170 9145150 9063808 8965976 8863903 8772403 
1550.554 8700833 8649588 8611665 8577126 8538026 8492241 8443420 8399367 
1554.411 8367039 8347684 8335761 8319077 8282399 8209052 8084303 7902326 
1558.269 7675636 7441884 7250978 7142537 7124651 7178412 7273922 7382497 
1562.126 7483009 7560177 7607416 7625962 7624916 7617835 7617734 7632402 
1565.984 7660257 7692262 7715669 7720155 7701369 7663900 7620027 7586611 
1569.841 7579227 7605292 7664034 7748285 7848645 7955474 8059088 8150235 
1573.698 8218304 8254098 8253457 8222255 8179305 8151619 8165563 8232959 
1577.556 8348529 8495147 8654050 8810204 8955625 9089421 9215034 9337128 
1581.413 9459461 9583047 9706498 9828053 9946355 10061500 10173962 10283230 
1585.271 10386960 10481753 10563531 10630519 10684002 10728966 10772238 
1588.646 10820709 10879617 10951072 11035249 11131102 11238027 11355522 
1592.021 11482847 11617118 11753166 11882992 11998140 12091413 12158705 
1595.396 12199836 12218375 12219363 12207912 12188385 12164259 12139283 
1598.772 12118227 12106165 12108346 12128175 12165895 12218511 12280983 
1602.147 12348441 12417376 12486901 12557836 12631375 12707178 12782859 
1605.522 12854286 12916713 12966210 13000247 13017284 13016533 12996765 
1608.897 12956208 12893639 12809954 12709566 12600744 12494677 12401795 
1612.273 12328261 12274098 12232859 12193395 12141634 12066305 11960878 
1615.648 11828850 11684201 11550114 11450527 11400318 11402325 11447466 
1619.023 11521395 11606500 11686685 11748911 11783431 11786359 11761269 
1622.398 11719329 11676202 11647305 11642643 11663676 11704249 11754460 
1625.774 11805493 11851051 11888849 11920724 11950831 11984278 12025152 
1629.149 12076150 12137818 12208730 12285823 12364429 12438754 12501121 
1632.524 12543682 12558518 12539044 12482946 12394635 12288686 12187295 
1635.899 12114445 12086848 12106813 12164976 12245229 12331431 12410216 
1639.275 12472443 12515069 12540306 12554699 12566431 12582529 12605792 
1642.650 12633353 12656857 12664909 12645225 12587782 12488095 12350555 
1646.025 12190805 12032307 11901483 11819555 11795314 11825241 11894979 
1649.400 11985470 12072880 12128789 12122008 12018204 11792555 11449881 
1652.776 11048334 10687059 10449712 10361678 10389607 10479785 10582815 
1656.151 10667090 10717080 10728830 10707095 10660469 10598128 10526188 
1659.526 10446081 10355604 10250423 10126477 9982800 9823343 9656965 9496611 
1663.384 9354598 9239809 9154457 9094360 9049464 9006567 8952209 8873101 
1667.241 8760130 8610179 8428453 8228569 8029081 7849995 7705483 7601380 
1671.098 7534588 7496088 7473165 7451188 7416908 7358569 7270351 7155270 
1674.956 7028264 6911833 6826331 6782105 6774667 6789509 6807751 6814079 
1678.813 6800784 6769215 6728260 6688923 6658203 6633810 6603532 6547354 
1682.671 6446117 6291080 6095906 5897563 5742419 5661410 5655636 5704480 
1686.528 5779621 5858134 5924400 5971092 5997496 6007037 6005727 5999814 
1690.385 5996892 6002838 6021752 6054241 6095604 6136466 6162545 6158747 
1694.243 6114153 6028707 5918992 5816021 5751820 5741646 5777606 5833181 
1698.100 5875900 5872407 5801112 5661812 5484471 5321256 5217085 5189823 
1701.958 5225000 5292913 5362079 5408643 5418842 5388749 5325281 5243243 
1705.815 5160986 5093025 5045925 5019244 5006942 5001378 4995948 4986865 
1709.673 4972755 4954657 4934280 4913470 4892526 4870946 4847123 4819247 
1713.530 4786615 4748794 4705751 4656818 4599920 4532449 4452703 4363734 
1717.387 4274416 4199267 4153301 4145439 4175246 4233862 4308347 4384017 
1721.245 4448887 4495386 4521132 4528565 4523175 4511892 4499906 4489896 
1725.102 4481794 4474596 4466930 4457959 4447581 4435497 4421572 4406576 
1728.960 4391882 4380502 4375348 4377858 4385289 4390209 4379297 4337228 
1732.817 4252130 4124533 3973798 3833513 3739457 3709948 3740293 3809847 
1736.675 3892784 3966643 4014462 4028675 4011552 3975170 3935814 3908665 
1740.532 3902079 3915085 3940562 3969051 3993127 4008944 4016468 4017839 
1744.389 4016033 4012957 4008676 4002356 3992792 3980018 3964570 3947784 
1748.247 3930464 3912711 3893487 3871656 3847987 3825958 3811785 3812354 
1752.104 3832544 3872726 3927689 3988846 4045463 4087371 4108142 4106202 
1755.962 4086669 4059376 4036133 4026100 4031216 4047303 4065129 4074962 
1759.819 4068473 4042086 3997674 3942669 3887770 3843408 3817535 3813089 
1763.677 3828365 3858217 3895827 3933206 3962263 3976774 3973330 3953234 
1767.534 3922340 3889775 3863599 3847218 3838026 3827763 3806538 3766863 
1771.391 3708177 3639307 3576763 3537076 3530128 3555048 3602989 3661427 
1775.249 3719305 3770005 3811685 3845346 3872792 3894857 3910270 3917124 
1779.106 3914550 3904653 3892149 3883858 3884961 3896261 3914182 3931701 
1782.964 3942234 3941331 3929361 3910972 3893253 3882421 3881685 3890244 
1786.821 3904887 3921838 3938221 3951997 3962062 3966208 3961059 3942401 
1790.678 3906893 3854874 3792198 3730166 3680507 3652940 3649999 3667342 
1794.536 3696714 3728830 3756769 3776556 3787285 3790159 3786817 3778594 
1798.393 3766195 3750185 3731637 3712621 3695612 3683114 3675863 3673323 
1802.251 3673891 3675695 3677767 3680240 3684183 3690866 3700724 3713123 
1806.108 3726624 3739324 3749784 3756870 3760145 3758975 3753126 3742231 
1809.966 3726357 3706974 3687024 3670115 3660024 3658420 3664969 3677132 
1813.823 3690900 3702429 3710081 3714092 3717033 3722246 3732606 3749149 
1817.680 3770874 3794839 3817936 3837792 3854038 3867410 3879445 3891782 
1821.538 3904252 3915753 3923744 3925650 3920266 3908431 3893085 3879445 
1825.395 3871856 3872726 3881117 3892718 3901444 3901310 3888304 3862630 
1829.253 3829368 3797212 3775286 3770707 3785012 3814994 3853637 3894055 
1833.110 3930698 3960892 3984767 4004229 4021384 4037771 4053590 4068173 
1836.968 4081083 4092823 4105433 4121656 4144001 4173640 4208936 4246007 
1840.825 4278732 4300650 4305302 4288470 4249287 4192107 4126339 4064159 
1844.682 4018475 3997574 4003192 4031384 4074327 4122325 4166782 4202278 
1848.540 4226300 4239951 4246175 4248918 4250792 4253469 4257049 4261567 
1852.397 4267188 4274750 4285491 4299948 4317450 4335922 4352957 4365977 
1856.255 4374076 4377624 4378026 4377021 4375616 4373808 4370863 4365742 
1860.112 4358178 4348908 4339336 4330735 4324042 4318922 4314940 4311827 
1863.969 4309886 4309953 4313200 4318989 4325280 4328393 4323774 4308013 
1867.827 4281108 4246877 4212148 4185182 4172670 4176751 4196658 4228107 
1871.684 4266285 4307009 4346900 4383615 4415848 4441924 4461072 4473224 
1875.542 4479049 4480154 4478647 4475936 4472454 4467031 4457456 4441723 
1879.399 4419229 4390945 4359584 4328895 4302658 4282982 4271236 4267456 
1883.257 4271371 4283317 4303227 4331237 4366713 4407179 4449021 4487686 
1887.114 4519224 4540585 4550462 4549659 4541020 4528498 4516512 4509012 
1890.971 4508008 4513934 4525318 4539179 4552505 4562282 4567773 4569213 
1894.829 4569481 4571423 4577451 4588032 4601494 4615090 4625370 4630528 
1898.686 4630662 4627748 4624433 4623261 4625638 4631365 4639369 4648244 
1902.544 4657789 4667970 4679324 4691985 4705516 4718915 4731543 4742731 
1906.401 4753518 4765209 4778843 4794723 4811307 4826518 4838244 4845347 
1910.259 4848396 4849200 4849971 4852115 4855633 4860090 4863809 4866858 
1914.116 4869506 4872689 4876743 4880831 4882239 4877949 4866155 4847592 
1917.973 4826450 4809498 4802227 4807923 4824407 4846687 4867361 4880261 
1921.831 4882976 4876911 4866925 4859252 4858951 4867964 4884819 4906768 
1925.688 4930192 4952713 4973191 4991155 5006640 5019780 5030439 5039389 
1929.546 5048305 5058697 5072442 5089706 5108380 5125579 5137616 5143249 
1933.403 5143148 5141237 5142042 5149720 5166149 5190024 5218292 5247737 
1937.260 5276345 5304217 5332560 5363119 5395559 5428471 5457695 5480075 
1941.118 5492927 5496786 5494437 5489840 5486585 5487323 5492490 5501282 
1944.975 5513396 5528531 5547358 5570817 5598976 5630762 5664767 5699143 
1948.833 5732279 5763403 5791273 5815383 5834894 5849268 5858537 5864280 
1952.690 5868881 5875597 5884800 5895179 5902366 5900048 5882818 5848294 
1956.548 5799500 5745038 5697195 5667653 5665203 5691287 5741143 5804906 
1960.405 5870862 5929808 5976265 6009288 6032100 6050042 6068185 6091101 
1964.262 6120370 6154681 6191045 6223749 6248421 6262707 6267749 6268220 
1968.120 6271851 6286037 6314847 6357714 6409395 6461722 6506688 6537969 
1971.977 6554384 6558253 6554350 6548431 6546311 6552399 6571742 6609991 
1975.835 6672503 6763124 6880626 7017354 7159312 7288040 7387957 7447749 
1979.692 7465311 7444783 7396619 7332891 7263949 7197984 7140651 7094305 
1983.550 7061334 7043115 7039040 7047257 7063018 7079419 7090028 7089590 
1987.407 7076758 7052948 7022270 6989002 6956846 6927117 6900488 6878303 
1991.264 6862415 6856928 6865444 6889884 6927824 6973311 7018162 7053925 
1995.122 7074704 7079520 7071572 7056619 7041667 7030925 7026715 7026951 
1998.979 7028365 7026749 7019071 7004087 6981695 6953042 6920148 6884531 
2002.837 6849287 6816839 6790485 6773422 6768071 6776115 6797520 6831279 
2006.694 6875072 6926848 6983244 7040757 7095618 7142773 7177940 7197815 
2010.552 7200510 7187608 7163084 7132870 7104611 7084774 7076994 7082686 
2014.409 7099121 7121721 7144221 7161097 7168541 7166116 7154327 7136103 
2018.266 7113907 7089792 7065207 7041364 7019206 7001258 6991257 6991931 
2022.124 7006141 7034090 7073121 7119296 7166655 7210651 7248518 7279347 
2025.981 7303170 7320793 7331441 7334340 7328274 7313817 7291882 7266948 
2029.839 7244004 7227697 7221633 7228135 7247002 7277898 7320018 7372825 
2033.696 7435682 7507078 7583610 7660831 7733545 7797534 7849826 7889268 
2037.553 7915789 7930097 7933371 7925912 7909918 7887817 7862410 7837039 
2041.411 7813559 7792609 7772437 7750208 7722887 7689194 7650073 7609304 
2045.268 7571607 7542207 7525451 7523664 7537891 7566887 7608562 7658403 
2049.126 7709396 7753109 7779689 7780600 7753007 7698772 7626164 7547298 
2052.983 7475997 7422672 7392204 7382598 7386339 7393451 7395338 7387586 
2056.841 7370466 7347347 7322916 7301182 7283593 7270115 7260311 7253707 
2060.698 7251483 7254953 7264758 7279482 7296700 7311830 7321096 7321838 
2064.555 7313851 7298890 7280493 7261692 7245284 7233357 7226855 7226080 
2068.413 7231268 7241173 7253943 7266645 7275843 7278808 7274799 7264792 
2072.270 7252190 7240870 7233897 7232515 7235648 7239826 7241173 7236086 
2076.128 7223250 7202902 7178176 7152205 7129131 7112223 7103399 7102961 
2079.985 7109663 7121182 7134082 7145232 7152642 7155708 7155775 7155034 
2083.843 7156449 7161569 7170192 7180298 7189360 7194177 7193301 7186901 
2087.700 7176492 7163859 7150688 7136878 7121250 7102085 7077937 7049143 
2091.557 7017421 6986005 6959405 6941224 6934962 6942234 6963446 6997251 
2095.415 7040286 7087704 7132870 7170125 7194245 7202970 7197108 7180904 
2099.272 7160457 7141796 7130209 7128054 7135464 7150992 7172483 7198455 
2103.130 7227293 7258053 7288815 7316918 7339394 7353885 7359142 7356446 
2106.987 7348999 7340978 7336058 7337204 7345022 7358670 7376566 7397326 
2110.844 7420043 7444480 7470233 7496290 7521035 7541971 7557143 7564830 
2114.702 7564358 7556300 7541836 7522485 7500268 7476839 7454019 7433727 
2118.559 7417785 7407606 7403696 7405719 7411920 7419908 7427593 7433121 
2122.417 7435750 7435817 7433896 7430862 7427391 7423750 7419740 7414818 
2126.274 7408482 7399551 7387182 7370061 7347651 7319749 7287097 7252022 
2130.132 7216849 7184778 7158537 7140617 7132129 7134184 7146343 7168508 
2133.989 7199668 7237939 7280156 7323017 7362209 7394394 7416908 7429009 
2137.846 7431098 7425099 7413740 7399618 7386069 7375723 7371207 7373802 
2141.704 7383913 7399955 7419773 7440941 7460457 7477480 7491841 7505022 
2145.561 7518270 7532599 7546995 7560177 7569483 7573630 7572382 7567089 
2149.419 7560279 7554614 7551883 7553400 7559267 7567999 7577744 7584858 
2153.276 7584116 7570393 7538937 7487290 7420279 7348864 7292050 7272002 
2157.134 7312268 7427492 7619757 7875232 8166170 8459806 8722130 8928904 
2160.991 9066989 9134085 9137909 9092906 9019151 8934891 8857207 8798302 
2164.848 8762429 8746877 8743632 8740758 8728486 8700563 8656754 8601763 
2168.706 8543670 8489065 8442744 8405278 8374234 8345793 8317151 8287904 
2172.563 8260211 8237011 8221816 8216480 8220060 8230122 8243224 8255550 
2176.421 8262980 8262946 8253693 8234816 8208478 8178326 8150978 8132848 
2180.278 8130215 8145610 8177819 8221478 8268046 8308336 8335356 8344509 
2184.135 8334883 8308370 8269025 8220735 8169277 8119412 8076337 8044843 
2187.993 8028102 8027630 8041671 8065434 8092777 8117014 8132747 8137507 
2191.850 8131565 8117554 8099224 8081299 8066919 8058649 8057502 8062598 
2195.708 8072354 8084000 8094498 8100878 8101620 8095848 8084709 8069923 
2199.565 8053282 8036574 8020171 8004037 7988074 7972111 7956723 7943730 
2203.423 7933640 7926958 7923010 7919468 7914912 7907860 7898176 7888053 
2207.280 7879922 7876379 7879145 7888120 7901651 7916498 7929220 7936947 
2211.137 7937656 7930907 7917713 7900706 7883465 7869496 7862714 7865042 
2214.995 7876413 7894430 7914845 7932797 7943257 7944033 7934922 7918556 
2218.852 7898648 7879517 7864705 7855798 7852794 7853841 7857147 7860352 
2222.710 7862782 7864570 7866897 7871959 7881001 7895544 7914777 7936643 
2226.567 7957903 7975384 7987230 7994217 7999076 8006332 8020137 8042380 
2230.425 8071645 8102802 8129135 8144394 8145069 8131734 8109014 8083257 
2234.282 8060674 8044506 8034380 8027663 8019799 8007751 7990774 7971335 
2238.139 7953280 7940828 7936947 7942178 7954596 7970593 7986319 7998604 
2241.997 8005084 8004713 7998503 7988074 7976262 7965902 7959421 7958038 
2245.854 7961582 7967960 7974270 7977274 7975249 7967960 7957127 7945484 
2249.712 7935395 7928916 7926149 7926790 7929995 7935901 7945147 7959084 
2253.569 7978591 8003262 8031005 8058616 8082143 8098616 8106550 8105672 
2257.427 8097165 8082109 8061721 8036777 8007953 7976430 7944371 7914338 
2261.284 7888863 7870036 7858429 7853436 7853233 7855595 7858935 7862073 
2265.141 7865279 7869259 7874760 7882823 7893856 7907590 7923247 7939647 
2268.999 7954900 7967319 7975182 7977949 7976228 7971571 7966475 7962594 
2272.856 7961346 7962358 7964113 7965395 7964181 7960704 7956081 7951963 
2276.714 7950142 7951559 7955777 7961953 7969107 7976802 7985543 7996613 
2280.571 8011159 8029587 8050649 8071780 8089839 8101756 8105402 8099966 
2284.428 8085654 8064117 8037216 8007041 7975317 7943359 7912516 7882992 
2288.286 7854549 7826783 7798277 7768186 7735771 7701200 7664979 7628322 
2292.143 7592647 7558390 7525687 7493998 7462412 7429851 7395675 7359445 
2296.001 7321164 7281167 7240196 7199837 7161535 7127616 7099795 7079116 
2299.858 7064937 7055339 7046617 7035100 7017320 6991661 6958025 6917994 
2303.716 6873591 6826768 6779009 6730346 6680477 6628865 6575105 6519268 
2307.573 6461217 6401023 6338382 6272691 6204019 6132971 6060625 5989400 
2311.430 5921444 5858671 5801951 5751047 5704682 5661309 5619014 5575918 
2315.288 5530276 5480444 5424848 5362213 5292041 5214839 5132218 5047132 
2319.145 4962298 4881300 4806382 4739381 4681267 4631733 4589137 4549860 
2323.003 4508979 4460536 4398308 4317817 4216999 4097606 3964001 3822983 
2326.860 3681744 3546096 3419907 3305040 3202086 3111571 3034355 2972598 
2330.718 2928062 2901510 2891537 2894439 2904946 2917955 2929397 2936435 
2334.575 2938737 2936269 2928930 2916988 2900176 2878228 2852446 2824364 
2338.432 2796618 2771441 2750700 2735195 2725159 2720457 2721057 2727359 
2342.290 2740363 2761537 2794217 2843808 2917755 3025746 3176485 3373990 
2346.147 3615084 3887201 4169693 4436367 4661908 4824340 4907974 4906533 
2350.005 4822430 4666765 4456017 4211177 3953502 3699622 3461754 3246416 
2353.862 3055676 2888868 2744531 2620709 2515084 2424812 2347051 2279130 
2357.719 2219446 2168061 2126072 2095407 2077794 2074099 2084054 2106327 
2361.577 2139391 2182047 2233434 2293286 2362243 2440573 2528915 2627742 
2365.434 2737162 2856949 2986210 3123619 3267515 3416067 3568144 3723148 
2369.292 3881117 4043055 4209973 4382812 4561512 4745813 4934247 5125043 
2373.149 5316426 5507356 5697564 5887823 6079979 6275851 6476822 6683539 
2377.007 6894899 7108855 7322175 7531250 7733039 7925440 8107394 8279157 
2380.864 8441392 8594666 8739304 8874758 8999903 9113647 9215068 9304257 
2384.721 9382225 9450791 9512223 9568753 9621935 9672447 9720086 9764035 
2388.579 9803110 9836527 9863845 9885674 9903132 9917878 9931302 9945134 
2392.436 9960187 9976460 9993548 10010365 10025691 10038576 10048546 
2395.812 10055667 10061330 10066858 10074182 10085340 10101210 10122407 
2399.187 10148693 10179049 10212258 10247166 10282992 10319093 10355333 
2402.562 10391847 10429077 10467192 10506432 10547032 10589469 10633609 
2405.937 10679723 10727676 10777162 10827707 10878530 10929359 10979379 
2409.313 11028520 11076680 11124201 11171252 11218307 11265706 11313690 
2412.688 11362460 11412156 11462502 11513332 11564303 11614872 11664902 
2416.063 11714189 11762529 11809750 11855886 11900665 11943474 11984243 
2419.438 12022598 12059116 12094479 12129607 12165895 12204096 12244446 
2422.813 12286538 12329624 12372305 12413285 12451779 12487447 12520390 
2426.189 12551220 12580961 12610806 12641746 12674632 12709669 12746825 
2429.564 12785588 12825140 12864832 12904493 12944874 12987138 13033194 
2432.939 13084276 13141238 13203809 13270967 13340766 13411532 13482448 
2436.314 13553238 13624826 13697827 13773338 13851599 13931892 14013466 
2439.690 14095124 14176147 14256603 14337006 14418176 14500938 14585258 
2443.065 14670759 14756655 14841676 14925067 15006314 15085723 15164117 
2446.440 15242938 15323523 15407247 15494559 15585700 15679885 15776081 
2449.815 15872780 15968917 16063664 16156334 16246893 16335336 16421253 
2453.191 16503675 16581533 16653381 16717803 16774176 16822050 16861488 
2456.566 16893006 16916812 16932762 16940616 16939410 16928214 16905822 
2459.941 16871306 16824012 16763672 16690705 16606215 16511694 16408969 
2463.316 16300315 16187906 16073566 15959051 15845666 15734507 15626743 
2466.692 15522648 15422250 15324931 15229829 15135606 15041437 14946980 
2470.067 14853127 14761626 14674495 14593825 14521666 14458699 14404887 
2473.442 14359506 14321424 14289132 14261637 14237600 14216065 14195729 
2476.817 14175736 14155471 14135069 14115319 14096905 14081331 14068942 
2480.193 14059256 14051110 14042110 14030405 14014390 13993789 13969529 
2483.568 13943901 13919575 13899253 13884439 13875852 13872705 13873116 
2486.943 13874519 13874553 13871268 13863709 13852214 13838258 13823789 
2490.318 13811166 13801966 13797280 13797177 13800666 13806583 13813869 
2493.694 13821189 13828304 13835213 13841713 13847835 13853719 13858953 
2497.069 13863332 13866753 13869422 13871542 13873663 13876195 13879616 
2500.444 13884610 13891623 13900758 13912014 13924604 13937503 13949341 
2503.819 13958991 13966108 13971240 13975312 13979794 13985611 13992900 
2507.195 14000942 14008059 14013056 14015177 14015108 14014732 14016170 
2510.570 14020926 14029481 14040639 14051863 14060419 14063842 14060830 
2513.945 14051829 14038105 14021885 14005356 13989787 13976544 13965628 
2517.320 13956971 13950608 13945851 13942088 13938666 13934971 13930010 
2520.696 13924296 13917727 13911261 13905514 13900724 13896926 13893506 
2524.071 13889434 13884234 13877871 13870961 13864701 13860663 13859706 
2527.446 13862477 13868498 13876845 13885979 13894806 13902127 13907463 
2530.821 13910919 13913007 13914546 13916564 13919301 13923099 13927239 
2534.197 13930900 13933226 13934081 13933740 13933705 13935587 13940925 
2537.572 13950299 13963130 13977810 13992352 14004877 14014664 14022432 
2540.947 14029140 14036668 14046114 14057852 14071508 14086157 14101285 
2544.322 14117098 14134316 14153588 14175189 14198434 14221270 14241607 
2547.698 14257425 14267937 14274100 14278141 14282729 14290262 14301802 
2551.073 14316732 14333410 14349746 14363753 14374576 14382453 14388206 
2554.448 14393104 14398379 14405024 14413107 14422492 14433009 14444278 
2557.823 14455684 14466681 14476478 14484255 14489667 14492339 14492443 
2561.198 14490490 14487167 14483090 14478842 14475006 14472162 14470758 
2564.574 14471340 14474114 14479117 14485659 14492785 14499363 14504091 
2567.949 14506420 14506351 14504159 14501007 14497889 14495560 14495046 
2571.324 14496691 14500801 14507757 14517623 14530608 14546129 14563432 
2574.699 14581352 14598725 14614386 14628058 14639847 14650882 14662466 
2578.075 14676004 14692352 14711717 14733722 14757443 14782194 14807289 
2581.450 14832796 14858922 14886113 14914436 14943654 14973319 15002644 
2584.825 15030872 15057353 15082292 15105586 15127817 15148780 15168544 
2588.200 15186558 15202479 15215965 15227290 15237310 15247502 15259445 
2591.576 15274271 15292736 15314873 15339759 15366225 15392623 15417993 
2594.951 15441511 15463107 15483262 15503075 15522957 15543802 15566021 
2598.326 15589684 15614723 15641171 15668822 15697747 15727911 15759416 
2601.701 15791783 15824566 15857074 15888726 15919521 15949598 15979916 
2605.077 16011475 16045373 16081853 16120812 16161047 16201148 16239842 
2608.452 16276166 16309913 16341632 16372185 16402740 16433537 16464991 
2611.827 16496584 16528042 16559262 16590036 16620675 16651316 16682165 
2615.202 16712811 16742734 16771112 16797562 16821842 16844024 16864448 
2618.578 16883602 16901722 16918946 16935104 16950194 16964458 16977896 
2621.953 16991230 17004736 17018932 17033682 17048982 17064490 17080066 
2625.328 17095850 17112186 17129662 17149034 17170472 17194258 17219836 
2628.703 17246452 17272896 17298376 17322236 17344376 17365378 17385966 
2632.079 17407762 17431696 17458738 17489094 17522488 17557884 17594526 
2635.454 17631204 17667646 17703228 17738396 17773638 17809574 17846478 
2638.829 17884214 17922436 17960042 17995820 18029078 18059094 18085898 
2642.204 18110182 18133088 18155956 18180038 18206090 18234182 18264176 
2645.580 18295210 18326592 18358114 18389950 18422306 18455908 18491000 
2648.955 18527582 18565032 18602590 18639630 18675466 18710126 18744028 
2652.330 18777688 18811838 18846788 18882778 18919358 18956114 18992736 
2655.705 19028806 19064222 19098914 19133122 19166780 19200234 19233898 
2659.081 19268186 19303380 19339960 19378000 19417568 19458282 19499970 
2662.456 19541976 19584090 19625824 19667078 19707988 19748766 19790240 
2665.831 19832966 19877674 19924850 19974736 20026606 20079488 20132342 
2669.206 20184092 20234044 20282300 20329590 20377022 20425848 20477112 
2672.582 20531232 20588276 20647550 20708674 20770608 20832968 20895266 
2675.957 20956946 21017906 21077866 21137208 21196104 21255288 21315072 
2679.332 21376048 21438320 21501506 21565292 21629334 21693766 21758836 
2682.707 21825240 21893672 21964768 22038906 22115776 22195240 22276814 
2686.083 22360564 22446528 22535022 22626396 22720582 22817376 22916212 
2689.458 23016506 23117558 23218772 23319696 23420502 23521052 23621484 
2692.833 23722536 23824348 23927336 24031576 24136612 24241812 24346304 
2696.208 24448926 24549364 24647652 24744872 24842572 24942468 25045828 
2699.583 25153638 25265548 25380892 25498554 25617160 25736044 25854504 
2702.959 25972292 26089374 26205678 26320954 26434962 26547554 26658168 
2706.334 26766448 26872006 26974064 27072230 27166010 27255084 27339834 
2709.709 27420544 27497842 27572296 27644080 27713296 27779486 27842082 
2713.084 27900448 27954190 28002642 28045688 28082802 28114192 28139750 
2716.460 28159654 28174608 28185568 28193524 28199358 28203742 28206818 
2719.835 28208868 28209400 28207880 28203778 28197060 28187478 28175280 
2723.210 28160996 28145124 28128366 28111576 28095244 28080080 28066896 
2726.585 28056044 28048092 28043214 28041518 28042790 28046750 28053076 
2729.961 28061664 28072126 28084710 28099558 28116984 28137206 28160326 
2733.336 28185994 28214172 28243944 28275098 28306644 28338154 28368998 
2736.711 28398850 28427540 28454992 28481562 28507602 28533502 28559792 
2740.086 28585980 28611566 28635668 28657470 28676230 28691946 28705080 
2743.462 28716796 28728160 28740302 28753542 28768092 28783174 28798434 
2746.837 28813482 28828212 28842800 28857246 28871658 28885716 28899104 
2750.212 28911356 28922548 28932996 28943692 28955628 28970006 28987362 
2753.587 29007944 29031536 29057574 29085490 29114792 29144804 29175454 
2756.963 29206604 29238182 29270470 29304002 29338884 29375540 29413654 
2760.338 29452832 29491910 29529822 29565466 29597956 29627186 29652940 
2763.713 29675608 29695618 29712862 29727692 29739686 29748840 29755192 
2767.088 29758810 29759910 29758634 29755440 29749974 29742700 29733724 
2770.464 29723684 29713358 29703600 29695228 29688628 29683982 29681036 
2773.839 29679264 29678020 29676744 29675112 29672914 29670394 29668052 
2777.214 29666598 29666526 29668514 29672770 29678908 29686502 29694376 
2780.589 29701580 29707326 29710944 29712470 29712080 29709952 29706654 
2783.965 29702074 29696754 29690686 29684088 29677490 29671316 29665816 
2787.340 29661346 29657728 29654642 29652124 29650208 29649000 29649356 
2790.715 29651840 29657090 29665498 29677064 29691608 29708816 29728048 
2794.090 29749052 29771124 29793978 29817010 29839794 29861726 29882242 
2797.466 29900948 29917454 29931866 29944112 29954584 29963744 29972194 
2800.841 29980394 29988382 29996086 30003010 30008334 30011708 30012986 
2804.216 30012774 30012276 30013022 30016502 30023568 30034716 30049416 
2807.591 30066532 30084924 30103462 30121432 30138586 30155312 30171970 
2810.967 30189552 30208626 30230616 30256156 30286212 30320886 30360576 
2814.342 30404532 30452226 30502768 30555768 30610660 30667548 30726224 
2817.717 30786580 30848330 30910802 30973850 31037266 31101470 31167610 
2821.092 31236964 31310994 31390268 31475368 31565652 31660658 31758818 
2824.468 31859394 31961522 32064964 32169462 32275238 32382354 32491106 
2827.843 32601282 32712590 32824178 32935258 33045042 33152852 33258830 
2831.218 33363510 33467532 33571724 33676732 33782548 33888856 33995516 
2834.593 34102596 34210884 34321604 34436224 34555824 34680916 34811280 
2837.969 34945564 35083268 35224140 35368792 35518820 35676092 35842236 
2841.344 36018344 36204500 36400972 36608016 36827208 37061124 37312824 
2844.719 37586024 37883324 38205828 38552616 38920340 39303496 39694404 
2848.094 40083040 40458136 40806764 41116184 41375204 41574900 41710928 
2851.469 41783300 41796652 41758896 41680580 41573624 41448904 41317476 
2854.845 41189116 41072044 40973100 40897368 40848152 40826128 40830276 
2858.220 40857832 40904648 40966216 41038136 41116732 41199024 41283300 
2861.595 41368716 41455248 41543108 41632772 41724312 41817484 41911836 
2864.970 42006908 42102256 42198240 42295128 42393788 42494588 42597316 
2868.346 42701164 42804488 42905824 43003304 43095724 43182344 43262644 
2871.721 43336336 43403156 43462920 43515692 43562028 43603532 43642072 
2875.096 43679736 43718872 43761564 43809424 43863524 43925036 43994700 
2878.471 44072952 44160096 44255768 44359020 44468612 44583336 44702312 
2881.847 44825068 44951316 45081160 45214320 45350316 45488676 45628656 
2885.222 45770228 45913212 46057900 46204036 46351032 46497560 46641964 
2888.597 46782616 46918844 47050868 47179720 47307060 47434548 47563288 
2891.972 47693956 47826848 47962444 48101372 48244980 48394520 48551300 
2895.348 48715812 48887464 49064456 49244192 49421996 49592260 49748024 
2898.723 49881284 49983432 50047044 50066488 50039608 49967484 49855196 
2902.098 49709644 49538776 49350348 49151012 48945836 48739092 48534220 
2905.473 48334556 48142832 47961664 47792484 47635828 47491760 47359900 
2908.849 47240264 47133256 47039716 46960780 46896952 46847864 46812064 
2912.224 46787080 46769364 46754348 46736784 46710772 46669264 46606036 
2915.599 46514564 46390444 46231456 46037932 45812900 45561160 45288528 
2918.974 45000488 44701468 44394436 44080468 43759328 43429556 43089576 
2922.350 42738196 42375228 42002016 41621724 41239100 40859800 40489668 
2925.725 40134388 39797592 39481708 39187008 38912836 38657312 38418732 
2929.100 38195624 37986664 37791392 37609216 37439792 37282532 37136372 
2932.475 37000360 36873376 36754472 36642660 36537368 36438228 36344836 
2935.851 36256976 36173892 36094924 36018884 35944480 35870592 35796320 
2939.226 35721348 35645664 35569704 35493940 35418224 35342340 35265032 
2942.601 35184940 35100152 35008916 34909476 34800512 34680484 34548400 
2945.976 34403408 34245016 34073424 33889788 33695852 33494160 33287876 
2949.352 33080082 32873676 32670934 32473576 32282158 32096822 31917234 
2952.727 31742886 31573348 31408612 31248928 31094780 30946594 30804506 
2956.102 30668118 30536642 30409224 30285074 30164192 30047640 29937082 
2959.477 29834612 29742560 29662376 29594480 29538404 29492798 29456096 
2962.853 29426630 29403122 29384544 29369724 29357636 29346470 29334276 
2966.228 29318748 29297798 29269124 29231624 29183888 29125172 29054988 
2969.603 28973018 28879308 28774464 28659452 28536014 28406172 28272518 
2972.978 28137804 28004444 27874620 27750064 27631262 27518106 27409638 
2976.354 27304126 27199732 27094800 26988062 26878774 26767118 26653588 
2979.729 26539064 26424328 26310290 26197370 26086206 25977392 25871524 
2983.104 25769302 25671288 25577972 25489454 25405694 25326518 25251782 
2986.479 25181798 25116880 25057976 25005640 24960542 24922502 24890220 
2989.854 24861622 24833450 24801876 24763042 24714252 24653928 24582638 
2993.230 24502944 24418956 24335020 24255092 24182114 24116750 24058332 
2996.605 24004962 23954680 23906226 23859316 23815038 23775032 23740910 
2999.980 23714034 23694262 23680756 23672042 23666094 23661196 23656228 
3003.355 23650490 23643912 23636740 23629566 23622710 23616832 23612390 
3006.731 23610116 23610570 23614242 23621556 23632576 23647096 23664310 
3010.106 23683344 23702976 23722258 23740700 23758162 23775696 23794490 
3013.481 23816402 23842688 23874158 23910812 23951670 23995438 24040612 
3016.856 24086070 24131462 24177210 24223874 24272470 24323490 24377178 
3020.232 24433046 24490500 24548382 24606132 24662906 24718214 24771918 
3023.607 24823592 24872956 24919484 24962894 25002588 25038318 25069840 
3026.982 25097046 25120216 25139594 25155850 25169438 25181200 25191698 
3030.357 25201742 25211784 25222072 25232714 25243564 25254310 25264634 
3033.733 25274258 25283388 25292202 25301582 25312048 25324340 25338848 
3037.108 25355286 25373130 25391642 25410086 25428142 25445850 25463524 
3040.483 25481898 25501470 25522306 25544550 25567956 25592556 25618354 
3043.858 25645488 25674208 25704402 25735446 25766772 25797080 25825668 
3047.234 25852006 25876590 25900186 25924350 25950798 25980558 26014750 
3050.609 26053380 26095814 26140994 26187236 26232990 26276812 26317646 
3053.984 26355282 26390560 26424680 26459366 26496026 26535720 26578374 
3057.359 26623006 26668138 26712252 26753902 26792772 26828828 26862734 
3060.735 26894954 26926150 26956716 26986826 27016338 27045360 27074066 
3064.110 27102524 27130740 27158956 27186892 27214902 27243054 27272018 
3067.485 27302538 27335072 27370042 27407274 27446274 27486054 27525872 
3070.860 27565094 27603226 27640018 27675508 27709834 27742964 27775352 
3074.236 27807286 27839502 27872500 27906878 27943202 27981544 28021724 
3077.611 28063502 28106838 28151204 28196564 28242566 28289066 28335360 
3080.986 28381484 28427220 28473070 28519880 28568286 28619282 28673044 
3084.361 28729328 28787174 28845206 28902220 28957044 29009360 29059062 
3087.737 29106750 29153238 29199446 29246298 29294714 29345122 29397698 
3091.112 29452302 29507940 29563550 29617962 29670322 29720524 29769208 
3094.487 29817648 29867620 29920720 29978016 30040008 30106054 30175346 
3097.862 30246174 30317476 30388150 30457520 30525482 30592314 30658340 
3101.238 30724198 30790456 30857436 30925316 30993884 31062996 31132368 
3104.613 31201608 31270716 31339448 31407722 31475298 31542062 31607948 
3107.988 31673558 31739284 31806164 31875118 31946618 32020338 32095608 
3111.363 32170604 32243792 32314104 32381284 32446224 32510534 32576282 
3114.739 32645036 32717984 32795052 32875638 32958596 33042538 33126388 
3118.114 33209040 33290238 33369518 33447098 33523512 33599076 33674760 
3121.489 33751212 33828608 33907056 33986060 34065108 34143636 34221388 
3124.864 34298724 34376076 34454232 34534048 34616104 34700616 34787912 
3128.240 34877700 34969624 35063224 35157448 35251412 35343924 35434076 
3131.615 35521520 35606568 35689944 35772792 35856128 35940844 36027128 
3134.990 36114836 36203816 36293756 36384864 36477508 36571896 36668472 
3138.365 36766872 36866632 36967132 37067764 37167952 37267512 37366264 
3141.740 37464284 37561668 37658284 37754596 37851004 37948224 38046916 
3145.116 38147688 38250732 38355424 38461160 38566740 38671544 38775512 
3148.491 38879132 38983800 39090776 39201332 39316160 39435404 39557876 
3151.866 39682312 39806964 39930268 40051648 40170804 40288252 40405112 
3155.241 40522404 40640676 40760104 40880148 40999864 41118188 41234872 
3158.617 41349584 41463304 41576868 41691560 41808216 41927200 42048844 
3161.992 42173048 42299836 42429188 42560804 42694400 42829096 42963724 
3165.367 43097260 43229044 43359108 43487748 43616280 43745732 43876612 
3168.742 44009072 44142196 44275580 44408312 44540528 44672676 44805820 
3172.118 44940808 45077852 45216564 45355980 45494596 45630936 45764376 
3175.493 45894760 46022792 46149864 46277676 46407588 46540672 46677160 
3178.868 46816752 46958196 47100020 47241296 47381332 47520332 47659196 
3182.243 47799512 47942352 48088752 48238684 48391408 48546112 48701652 
3185.619 48857096 49012116 49166484 49319908 49472008 49622900 49772436 
3188.994 49921500 50071024 50222868 50377896 50536772 50698908 50863076 
3192.369 51027420 51190600 51351860 51511056 51668628 51824656 51979280 
3195.744 52131800 52281972 52430296 52578216 52728544 52884052 53047068 
3199.120 53218572 53397524 53581312 53766864 53951144 54132616 54311044 
3202.495 54487404 54663008 54839248 55016728 55195332 55374760 55554532 
3205.870 55733956 55912780 56090512 56266540 56440868 56613712 56786216 
3209.245 56960416 57138384 57322172 57512660 57709396 57910348 58113216 
3212.621 58316024 58517184 58716920 58915644 59114880 59315156 59516512 
3215.996 59718156 59919016 60118212 60315300 60510684 60705204 60899924 
3219.371 61095836 61293940 61494384 61697552 61903536 62112712 62324584 
3222.746 62539012 62755384 62973052 63191324 63409864 63628360 63846768 
3226.122 64064948 64282848 64500092 64716176 64930828 65143616 65354472 
3229.497 65563508 65771484 65979176 66188240 66400492 66617632 66840992 
3232.872 67070692 67305816 67544552 67784312 68023504 68261192 68497936 
3236.247 68735496 68976032 69220928 69470552 69723784 69979032 70234280 
3239.623 70488384 70741352 70993616 71246176 71499192 71752128 72004264 
3242.998 72254600 72503312 72751784 73002656 73259416 73525024 73801416 
3246.373 74088856 74385960 74690560 74999624 75311144 75623368 75935472 
3249.748 76247192 76559144 76872232 77187552 77505648 77827104 78151848 
3253.124 78479152 78808080 79137424 79466336 79794136 80121040 80447112 
3256.499 80772272 81096360 81418928 81739888 82059176 82377408 82695720 
3259.874 83015192 83336056 83658200 83979856 84299232 84613960 84922024 
3263.249 85222288 85513808 85796760 86071728 86339400 86601048 86857712 
3266.625 87110600 87360520 87607416 87850480 88087952 88317808 88538272 
3270.000 88748528 88949040 89141352 89327432 89509568 89689176 89867304 
3273.375 90044152 90219488 90392456 90562256 90727432 90886704 91038320 
3276.750 91181312 91315648 91441968 91562024 91677448 91790080 91900360 
3280.125 92007936 92112096 92212256 92308504 92402080 92494600 92587104 
3283.501 92680000 92772336 92862192 92947832 93028160 93103080 93174072 
3286.876 93243184 93311568 93379680 93447104 93512312 93574088 93631544 
3290.251 93684864 93734736 93782272 93828488 93874264 93920048 93966400 
3293.626 94013712 94062064 94111152 94159504 94205192 94246352 94281136 
3297.002 94309416 94332232 94351536 94369656 94388480 94408328 94428872 
3300.377 94448560 94466392 94481464 94494112 94505272 94516272 94528216 
3303.752 94541800 94557456 94575792 94596968 94621312 94649296 94680856 
3307.127 94716088 94754952 94797896 94846080 94900744 94963000 95033672 
3310.503 95112488 95198664 95291288 95389752 95494432 95606696 95727992 
3313.878 95859576 96001312 96151616 96308424 96469264 96632808 96798856 
3317.253 96968504 97142928 97323304 97510032 97702392 97899816 98101200 
3320.628 98306408 98514840 98725992 98938360 99149928 99358168 99561024 
3324.004 99758048 99950200 100139888 100329952 100522064 100717224 100914152 
3327.379 101110832 101304664 101493184 101673920 101844848 102003600 
3330.272 102147784 102275064 102384104 102474584 102547504 102604736 
3333.165 102647760 102677392 102692872 102692872 102675880 102641288 
3336.058 102589928 102524176 102446688 102359408 102263160 102157168 
3338.951 102039848 101909568 101765384 101607472 101436688 101254592 
3341.844 101062112 100860440 100650216 100431824 100205864 99971976 99729832 
3345.219 99477520 99213328 98934912 98641400 98333832 98015696 97691560 
3348.595 97366760 97045672 96730504 96421192 96115856 95811400 95504880 
3351.970 95193632 94876336 94552728 94223712 93890760 93556496 93224216 
3355.345 92896696 92576856 92265728 91962768 91665872 91371624 91077264 
3358.720 90780680 90481608 90181320 89881760 89584784 89291296 89001296 
3362.096 88713696 88427256 88140848 87854136 87567120 87280904 86996424 
3365.471 86715120 86438648 86168528 85906376 85652816 85407792 85169600 
3368.846 84936328 84705080 84473832 84241536 84008280 83775040 83542200 
3372.221 83310080 83077608 82843216 82605256 82362752 82115736 81865616 
3375.597 81614320 81362816 81112288 80862552 80612992 80363176 80113392 
3378.972 79864424 79617552 79373952 79134160 78897512 78662824 78428496 
3382.347 78193032 77955592 77715856 77474120 77231336 76988600 76746792 
3385.722 76507408 76270928 76038008 75808848 75582952 75359584 75138024 
3389.098 74917320 74697328 74478384 74261008 74046176 73835032 73628296 
3392.473 73426840 73230864 73039944 72852824 72667560 72481120 72290840 
3395.848 72094424 71891336 71682992 71472400 71263744 71060456 70864872 
3399.223 70676744 70494080 70313272 70131032 69944784 69753936 69558480 
3402.599 69359560 69157944 68953616 68746208 68534744 68318848 68098072 
3405.974 67873200 67644512 67412496 67177200 66938200 66695280 66448480 
3409.349 66198460 65946272 65693156 65440068 65187700 64936176 64685488 
3412.724 64435788 64187044 63938932 63691660 63444452 63196772 62947968 
3416.100 62697388 62444736 62189900 61931928 61670212 61403460 61131272 
3419.475 60853688 60572616 60291428 60014076 59744500 59485052 59235740 
3422.850 58994356 58757352 58520708 58281160 58037124 57788568 57536640 
3426.225 57282740 57028192 56773568 56519208 56264764 56010476 55756068 
3429.601 55502080 55248912 54996644 54745800 54496568 54249168 54003972 
3432.976 53761240 53521004 53283488 53048680 52816808 52587976 52362292 
3436.351 52139828 51920204 51702556 51485540 51267548 51047248 50824076 
3439.726 50597596 50368516 50137548 49905816 49674164 49443644 49215096 
3443.102 48989192 48766112 48544744 48323816 48100708 47873092 47639528 
3446.477 47400508 47158520 46917736 46682656 46456484 46240156 46031524 
3449.852 45827408 45623172 45415168 45201564 44982368 44758988 44533368 
3453.227 44307244 44081644 43856600 43631888 43407112 43182196 42956848 
3456.603 42731324 42505696 42280008 42054832 41830872 41609252 41390436 
3459.978 41174688 40961192 40747872 40533136 40315484 40095104 39873060 
3463.353 39651420 39431704 39214856 39000512 38787248 38573764 38359044 
3466.728 38143964 37930036 37718960 37512104 37309248 37109484 36910640 
3470.104 36711304 36510700 36308992 36107272 35905936 35705192 35504076 
3473.479 35301472 35096344 34888724 34679620 34470552 34263624 34059984 
3476.854 33859808 33662944 33468320 33274926 33082370 32890044 32697550 
3480.229 32504712 32311428 32118048 31925612 31735934 31550616 31370930 
3483.604 31196448 31025378 30854876 30681418 30502624 30317652 30127364 
3486.980 29934706 29742700 29554292 29370860 29192606 29018464 28847048 
3490.355 28676832 28506858 28336634 28166442 27996668 27828234 27662230 
3493.730 27499750 27341952 27189116 27040670 26895834 26752774 26610326 
3497.105 26467712 26325320 26184420 26046168 25911476 25780062 25650268 
3500.481 25519040 25383878 25242230 25093360 24938082 24779320 24620824 
3503.856 24466978 24321772 24187650 24065232 23953140 23848114 23745670 
3507.231 23640728 23529306 23409242 23280820 23146250 23009484 22874440 
3510.606 22743906 22619346 22500438 22385856 22274998 22167380 22063762 
3513.982 21964698 21870082 21779146 21689414 21597642 21501122 21398080 
3517.357 21289076 21175786 21061656 20949922 20842768 20740856 20643414 
3520.732 20547594 20450714 20349762 20242896 20128942 20008460 19882010 
3524.107 19751020 19616882 19479942 19340480 19198884 19055532 18911640 
3527.483 18768936 18629740 18495288 18366616 18242336 18120270 17998168 
3530.858 17874098 17747508 17619680 17492510 17367480 17245450 17124974 
3534.233 17003324 16877608 16745145 16605355 16459759 16311701 16164348 
3537.608 16020998 15882816 15750002 15622038 15498680 15379235 15263976 
3540.984 15152623 15044353 14937481 14830018 14719293 14604311 14484324 
3544.359 14359917 14232226 14102414 13971719 13841234 13712737 13588449 
3547.734 13471066 13362736 13264134 13173956 13088852 13003901 12914153 
3551.109 12815823 12707486 12590682 12468760 12346498 12228189 12117170 
3554.485 12015070 11921916 11837022 11758069 11682294 11606330 11526941 
3557.860 11441071 11347665 11247208 11142456 11037152 10935578 10840956 
3561.235 10754880 10676905 10605088 10537221 10470111 10401282 10327848 
3564.610 10246419 10153949 10048003 9928081 9797246 9661640 9530207 9411275 
3568.468 9310452 9229181 9164575 9110873 9061677 9011980 8958330 8899818 
3572.325 8836715 8770340 8701779 8631843 8560701 8488896 8416899 8345793 
3576.183 8276657 8210065 8145745 8083190 8021082 7958072 7893418 7826615 
3580.040 7757932 7687710 7616385 7544736 7473604 7404303 7338013 7275776 
3583.897 7217590 7161737 7104881 7042374 6969405 6883016 6783148 6673984 
3587.755 6562760 6458762 6368743 6297433 6244219 6205565 6175350 6147086 
3591.612 6115262 6074939 6023835 5961114 5887722 5805947 5719253 5631467 
3595.470 5546720 5468029 5398209 5338262 5287614 5244283 5204946 5166418 
3599.327 5125479 5080890 5032450 4981469 4930125 4880161 4832682 4787252 
3603.185 4742965 4698516 4653134 4606450 4558398 4508811 4457624 4403698 
3607.042 4346264 4284990 4221415 4157951 4098175 4044594 3997741 3955843 
3610.899 3915452 3872425 3824421 3771175 3715696 3662964 3617589 3582342 
3614.757 3556986 3537644 3518804 3494386 3459283 3410189 3346409 3269651 
3618.614 3183628 3093884 3006194 2926061 2857349 2801920 2759770 2729226 
3622.472 2708321 2694985 2688417 2688183 2694251 2705487 2718557 2726792 
3626.329 2721724 2692917 2631876 2536247 2413217 2280096 2159137 2069704 
3630.187 2019403 2004123 2011913 2029156 2045735 2055089 2056188 2051327 
3634.044 2044836 2039509 2037013 2035947 2034116 2028990 2019502 2006420 
3637.901 1991075 1975331 1959587 1942846 1922943 1897684 1865604 1827537 
3641.759 1786279 1746357 1712192 1686778 1670912 1662331 1656577 1647829 
3645.616 1631100 1601833 1557904 1499382 1428468 1348360 1263215 1177787 
3649.474 1097592 1029633 980780 956738 959594 986426 1030132 1080385 1125695 
3653.813 1155594 1162837 1144830 1104900 1051787 997950 954314 927483 918120 
3658.153 922237 933427 945414 954048 956704 952255 940666 922502 899227 
3662.492 872765 846371 823564 807564 800759 803348 813838 828743 844047 
3666.832 855235 857958 848762 824992 786319 735369 679115 627946 591945 
3671.172 577877 585409 607738 632492 645234 633487 589290 514080 420575 
3675.511 331267 268170 242940 253317 285941 325564 358393 378290 384856 
3679.851 383165 379484 379384 385287 396729 410990 425682 439778 453178 
3684.190 466280 478387 486647 486348 472184 440342 390129 325498 255870 
3688.530 192385 144322 116614 108626 115818 133053 156321 183303 213004 
3692.870 244763 277884 310477 340851 367545 389665 407209 420343 429463 
3697.209 434073 432747 423825 405484 376665 337634 290218 238663 187778 
3701.549 143394 110714 92785 90465 102031 123773 150852 178297 202098 219933 
3706.371 231304 237271 240023 241713 242608 241813 236508 224275 203888 
3710.710 177601 150951 131959 128148 143494 177004 223049 273441 319728 
3715.050 355972 378423 386713 382369 368142 346952 321320 292904 262567 
3719.389 231602 200706 170905 143262 118636 97557 79760 65510 54508 46854 
3724.211 42314 40657 40856 42513 45495 51592 63655 84433 115951 157116 
3729.033 204186 250267 287367 308786 311240 296717 271817 245526 224972 
3733.373 211711 201103 185159 156420 113598 62660 15540 -14280 -18024 5268 
3738.194 50432 109886 176806 246819 319363 394009 469166 540122 596822 
3742.534 626884 619086 569052 486879 395800 325564 296120 310079 354745 
3746.874 411122 461603 492617 498787 481372 447938 408138 370662 340254 
3751.213 318269 304741 301127 309714 332925 370795 420011 475103 529572 
3755.553 578043 617129 645898 664647 674403 675332 667268 650411 627083 
3759.892 601832 582057 574327 582489 606113 640024 677191 710178 734838 
3764.232 750371 759665 767067 776162 787116 796842 800128 791730 769988 
3768.572 736863 698463 662788 637270 626287 629472 642845 660399 676892 
3772.911 687810 691361 687445 677655 664215 649216 634217 619252 602861 
3777.251 582953 557771 527084 493679 462432 439944 431851 439546 460641 
3781.590 488935 517265 539193 551833 555648 554587 553260 555648 562848 
3785.930 573199 583318 589888 592044 590584 588262 588129 591746 599410 
3790.270 609563 620248 629903 637801 643442 646296 644637 636075 617726 
3794.609 589091 552795 515374 486116 474672 486713 521511 571739 625855 
3798.949 670222 692954 686815 652202 598382 541383 500181 488172 508607 
3803.288 554520 612019 665775 701284 708718 684890 635246 573033 515805 
3807.628 479747 472848 493679 533852 583186 633023 678153 717978 754387 
3811.968 789572 823863 853907 873761 876749 858124 818651 766735 717314 
3816.307 686781 685222 713265 761623 815166 856630 872466 854538 803182 
3820.647 728963 650543 588959 558236 561720 591978 635976 679713 711838 
3824.986 726773 724815 711971 696903 689735 696505 718111 750006 784394 
3829.326 812211 826419 823631 805439 778187 750637 731884 728665 742970 
3833.666 771282 806369 838503 857128 854040 825623 773639 706395 636175 
3838.005 577081 539823 528710 541847 572005 610526 648917 681505 705466 
3842.345 720832 729594 734871 740613 750006 765673 788941 819315 855036 
3846.684 893284 931468 967862 1002167 1035512 1069490 1104568 1138053 
3850.542 1162903 1168618 1142206 1073078 959129 812211 659669 533586 457722 
3854.881 438352 466545 525392 599045 676726 752130 823398 890129 951956 
3859.221 1006983 1053215 1087926 1109783 1118819 1116958 1106694 1089985 
3863.078 1068328 1042852 1016515 993765 980880 983470 1003297 1036973 
3866.936 1075270 1105564 1115763 1097525 1050591 983736 914832 863469 841923 
3871.275 852214 885647 929741 971515 1002798 1021596 1031825 1040760 1055075 
3875.615 1078725 1111145 1148020 1182671 1208753 1220981 1216462 1195662 
3879.472 1162305 1124200 1090450 1069490 1066833 1082378 1110680 1141973 
3883.330 1165328 1170545 1151907 1110281 1055108 1001404 964940 956738 
3887.187 978622 1024884 1084039 1144465 1195695 1230949 1248161 1249756 
3891.045 1241881 1231780 1225865 1228091 1239256 1257831 1281093 1306151 
3894.902 1330179 1351384 1368169 1379205 1384025 1382163 1373986 1360458 
3898.760 1343308 1324895 1307048 1291462 1277703 1264876 1250355 1231813 
3902.617 1208421 1181110 1153468 1130578 1117390 1117158 1130578 1154764 
3906.474 1185728 1219120 1251285 1280595 1306948 1330944 1353678 1375648 
3910.332 1396623 1416235 1434186 1450576 1465802 1480331 1493796 1504702 
3914.189 1510753 1509024 1497919 1477405 1449944 1419559 1391138 1368336 
3918.047 1352847 1344404 1341679 1343607 1349623 1360857 1377609 1400445 
3921.904 1427770 1456859 1483789 1504935 1518500 1524585 1525383 1524386 
3925.761 1524253 1526580 1530437 1533762 1533796 1528808 1518068 1502441 
3929.619 1484055 1465869 1449479 1436414 1426972 1420889 1417631 1416634 
3933.476 1417897 1421288 1427039 1435383 1446354 1459884 1475876 1494195 
3937.334 1514377 1535924 1558070 1579685 1599106 1615036 1625778 1630301 
3941.191 1628506 1621089 1610047 1598441 1588897 1584108 1584839 1590692 
3945.049 1599937 1609682 1617763 1621920 1621488 1616233 1607254 1595381 
3948.906 1582212 1568844 1556540 1546431 1539748 1537453 1540280 1547795 
3952.763 1559433 1573366 1588165 1602099 1614770 1625712 1635889 1645967 
3956.621 1657042 1669615 1684084 1700516 1718346 1736742 1754474 1769778 
3960.478 1780524 1785015 1781954 1771674 1755306 1735245 1714687 1696159 
3964.336 1681856 1673108 1670380 1673507 1682255 1695593 1712425 1731087 
3968.193 1749983 1766850 1780623 1790538 1797325 1802017 1806209 1810734 
3972.051 1815592 1819851 1822047 1821082 1816424 1808970 1800253 1791836 
3975.908 1785514 1781588 1780025 1779958 1780989 1782886 1785747 1790372 
3979.765 1796860 1805244 1814161 1822712 1829400 1833560 1835190 1834957 
3983.623 1833992 1833193 1833759 1835889 1839715 1845172 1851861 1859181 
3987.480 1866436 1872825 1877750 1880911 1882808 1884272 1886801 1891693 
3991.338 1899714 1910896 1923842 1936922 1948204 1955693 1958589 1956858 
3995.195 1950900 1942080 1931563 1920713 1910397 1901477 1894256 1889031 
3999.052 1885737 1884206 1884372 1886203 
##END=
