
##TITLE=Z305_1_d
##JCAMP-DX=5.01  $$ Nicolet v. 1
##DATATYPE=INFRARED SPECTRUM
##ORIGIN=UniL
##OWNER=Nicolet
##LONGDATE=2011/09/08
##TIME=14:38:21
##SPECTROMETER/DATA SYSTEM=Nicolet iS5
##DATA PROCESSING=
Ratio against background
%Transmittance->Absorbance
Truncated
ElementMultiply or ElementDivide
##COMMENTS=
Number of sample scans: 32
Collection length: 51.17 sec
Sample gain: 2.0
Background collected on: Jeu Sep 08 14:27:12 2011 (GMT+02:00);
Number of background scans: 32
Background gain: 2.0
Sample spacing:  1.000
Number of scan points: 12415
Resolution points: 8192
Number of FFT points: 65536
Apodization: N-B fort;
Phase correction: Mertz;
Laser frequency: 15798.0 cm-1
Number of rejected sample scans: 0
Number of rejected background scans: 0
Bench serial number: ASB1000141;
##RESOLUTION=4.000
##XUNITS=1/CM
##YUNITS=ABSORBANCE
##FIRSTX=649.893372
##LASTX=4000.122314
##FIRSTY=0.116108
##MAXX=4000.122314
##MINX=649.893372
##MAXY=0.259374
##MINY=-0.001235
##XFACTOR=1.000000
##YFACTOR=1.000000E-009
##NPOINTS=6950
##DELTAX=0.482117
##ZPD=6100
##XYDATA=(X++(Y..Y))
649.893 116107904 116220248 116409088 116669640 116977720 117308288 
652.786 117653920 118033480 118484360 119044088 119725520 120508720 
655.679 121345128 122182264 122984216 123745432 124483760 125223520 
658.571 125971184 126706960 127388584 127970456 128427464 128760040 
661.464 128992616 129153936 129266456 129337456 129365888 129353968 
664.357 129314704 129268200 129230320 129192976 129107592 128878072 
667.250 128395664 127593536 126511512 125285416 124072720 122969128 
670.142 121986040 121075352 120165448 119196480 118135632 116986392 
673.035 115777120 114545848 113318256 112101512 110889744 109677048 
675.928 108470320 107291408 106167936 105118736 104145584 103231344 
678.820 102351352 101485280 100629992 99800120 99019888 98309528 97676872 
682.195 97114784 96608848 96146080 95723536 95348280 95031696 94779344 
685.570 94584032 94426648 94282744 94132880 93969408 93798264 93633272 
688.945 93487616 93367272 93269792 93189928 93126928 93089408 93095280 
692.320 93162736 93304136 93517328 93788560 94096912 94424424 94763936 
695.694 95119168 95499512 95910184 96344576 96781680 97192616 97545456 
699.069 97816512 97994056 98074208 98056600 97938800 97715960 97384544 
702.444 96948944 96425488 95839288 95218216 94583448 93942008 93288608 
705.819 92611424 91902088 91161696 90403384 89644568 88902112 88184472 
709.194 87490432 86813880 86150832 85502752 84878440 84288048 83737184 
712.569 83221104 82726104 82232152 81720256 81178672 80604296 79999408 
715.943 79368104 78711472 78028472 77318264 76585624 75843480 75110760 
719.318 74409832 73758648 73166272 72631328 72143480 71688544 71248952 
722.693 70807416 70346584 69848456 69296864 68682824 68007840 67286816 
726.068 66546796 65821336 65138304 64515852 63957056 63453272 62989600 
729.443 62553092 62137676 61744688 61379532 61046488 60746508 60476064 
732.817 60230488 60007152 59808264 59639728 59508800 59419508 59370652 
736.192 59356296 59368904 59401920 59452752 59521948 59610384 59715948 
739.567 59832944 59952028 60063344 60160724 60242552 60310656 60367156 
742.942 60411248 60437028 60436188 60400624 60326760 60216060 60074036 
746.317 59903568 59701920 59458264 59156948 58783036 58328340 57796784 
749.692 57202824 56568384 55914628 55259036 54612660 53980560 53365864 
753.066 52771460 52200804 51656576 51139344 50646292 50171952 49710684 
756.441 49259704 48819908 48395668 47992564 47615640 47267120 46947528 
759.816 46656056 46392952 46158524 45952916 45774720 45619048 45478960 
763.191 45347852 45221492 45100756 44990968 44899980 44834880 44798916 
766.566 44791604 44810008 44851372 44915228 45003352 45118292 45261352 
769.940 45431648 45628764 45855208 46120236 46438748 46827012 47290656 
773.315 47815120 48355964 48845568 49198136 49330632 49189120 48758920 
776.690 48073056 47199076 46229208 45254660 44345516 43549832 42886036 
780.065 42350168 41923880 41583760 41307276 41074956 40873268 40694384 
783.440 40535352 40397512 40285308 40204208 40158192 40149072 40175456 
786.815 40234632 40323588 40440968 40588212 40768040 40983804 41237312 
790.189 41528960 41858672 42227344 42638908 43100152 43619576 44204664 
793.564 44857948 45574704 46340856 47134072 47925068 48677372 49353316 
796.939 49912764 50316912 50534908 50545740 50344632 49943768 49372988 
800.314 48675076 47897024 47089308 46298060 45559504 44902224 44342912 
803.689 43887168 43530272 43261108 43065244 42929268 42844016 42806500 
807.063 42817464 42878976 42988892 43137804 43308516 43476396 43613572 
810.438 43695452 43702088 43621668 43450324 43190284 42849136 42438176 
813.813 41973840 41476064 40965344 40462900 39984576 39539876 39131564 
817.188 38756780 38410588 38088908 37790704 37518356 37276320 37068668 
820.563 36898084 36764604 36666672 36601996 36568760 36565808 36592696 
823.938 36648824 36733012 36843544 36978064 37134348 37308384 37494044 
827.312 37681736 37856604 38001236 38097916 38131664 38095204 37989956 
830.687 37826384 37619912 37388904 37150880 36919836 36706580 36518664 
834.062 36359896 36231044 36128840 36046604 35974504 35901940 35820828 
837.437 35727280 35622856 35514040 35409560 35317680 35243004 35186628 
840.812 35146316 35118436 35099720 35088832 35086248 35093540 35112292 
844.186 35143508 35187920 35245480 35316676 35401612 35500088 35610772 
847.561 35731204 35858360 35989044 36122036 36257484 36397656 36545408 
850.936 36702728 36870668 37048676 37235528 37430116 37632484 37843232 
854.311 38063408 38293648 38533536 38782104 39039080 39305096 39582848 
857.686 39875784 40187452 40520656 40875996 41253380 41652904 42075384 
861.060 42523856 43001696 43511076 44050144 44611612 45182740 45745268 
864.435 46279000 46764384 47183156 47521848 47771844 47930176 48000260 
867.810 47993712 47928700 47827368 47714776 47614460 47544140 47516860 
871.185 47539780 47615384 47743552 47921816 48145720 48407148 48694200 
874.560 48992568 49285608 49559168 49803388 50014472 50194976 50352256 
877.935 50496496 50637692 50785564 50949656 51137592 51356600 51612392 
881.309 51907992 52243404 52615916 53021200 53454480 53912204 54391852 
884.684 54891244 55407624 55936676 56471768 57006540 57536676 58060868 
888.059 58581756 59104060 59632732 60169968 60714692 61262348 61807524 
891.434 62344936 62870404 63380836 63871792 64336984 64768368 65156364 
894.809 65492228 65770864 65989240 66146292 66240988 66269860 66227636 
898.183 66108672 65909676 65632680 65285460 64881540 64436628 63967304 
901.558 63489160 63015232 62557420 62126740 61732196 61380908 61076768 
904.933 60819344 60605416 60429756 60288116 60178532 60101624 60060108 
908.308 60057028 60093672 60169628 60282408 60429260 60607744 60816140 
911.683 61053660 61317940 61604684 61908160 62221104 62537252 62853180 
915.058 63168832 63487588 63814760 64157084 64521656 64915472 65346732 
918.432 65823608 66352852 66937820 67575520 68255688 68959248 69663024 
921.807 70342768 70976640 71551424 72062544 72515648 72924424 73309856 
925.182 73698728 74118368 74595536 75151536 75795984 76523896 77311136 
928.557 78117544 78884912 79544200 80026976 80265872 80208712 79826120 
931.932 79115352 78105800 76855544 75451304 73989872 72566160 71265656 
935.306 70146144 69239664 68555464 68085504 67813552 67721376 67793720 
938.681 68014936 68367056 68827192 69363024 69934624 70501288 71021280 
942.056 71461152 71799152 72025624 72144536 72171728 72133816 72063208 
945.431 71993392 71957184 71978264 72070608 72238680 72478920 72784256 
948.806 73147528 73564480 74033216 74553448 75123488 75739448 76394840 
952.181 77082960 77798448 78538976 79305424 80099728 80923504 81775728 
955.555 82653352 83552880 84471824 85409648 86367616 87347392 88348184 
958.930 89366872 90398080 91436736 92479968 93529040 94587536 95659096 
962.305 96744992 97842496 98946312 100050352 101151480 102250920 103353728 
965.680 104465928 105591640 106731360 107882752 109043304 110213192 
968.573 111397064 112603168 113841384 115119424 116441872 117811080 
971.465 119229312 120702624 122241888 123860432 125571968 127385464 
974.358 129304304 131326184 133446856 135663968 137978128 140392288 
977.251 142906688 145514896 148200320 150938528 153697872 156446816 
980.143 159156064 161796160 164337136 166744416 168977312 170996944 
983.036 172771296 174283184 175534720 176544976 177343952 177962176 
985.929 178428976 178769968 179008704 179172512 179293360 179402880 
988.821 179531712 179701520 179923984 180204272 180545136 180951904 
991.714 181434928 182005936 182673152 183436640 184286688 185206416 
994.607 186177440 187185744 188223408 189286032 190367344 191454080 
997.500 192523776 193550944 194510624 195386896 196176128 196883312 
1000.392 197516896 198081920 198578592 199004176 199358320 199649072 
1003.285 199893248 200113088 200330288 200559664 200807072 201073904 
1006.178 201362640 201683280 202055184 202501264 203042400 203689664 
1009.070 204440928 205283088 206197984 207170016 208187632 209243072 
1011.963 210328464 211431120 212534528 213623632 214690560 215741040 
1014.856 216793696 217875104 219007696 220201936 221452656 222741728 
1017.748 224046336 225346816 226633216 227904240 229162976 230412672 
1020.641 231655760 232896544 234145392 235423552 236760048 238182656 
1023.534 239710400 241344240 243066944 244846144 246646864 248438992 
1026.427 250198304 251904784 253534112 255049264 256404496 257548992 
1029.320 258437664 259043040 259354448 259373840 259105776 258549536 
1032.213 257697376 256541488 255081680 253334288 251329872 249109184 
1035.106 246711792 244167344 241496928 238717872 235851104 232930096 
1037.999 229998608 227104816 224297536 221615296 219088416 216744272 
1040.892 214609936 212717328 211101536 209791328 208803504 208136752 
1043.785 207772672 207680976 207828448 208188864 208741744 209471728 
1046.678 210363040 211392560 212530352 213744080 215002544 216282192 
1049.571 217566928 218841088 220084480 221267968 222351744 223297136 
1052.464 224072592 224661088 225061360 225280368 225324304 225189968 
1055.357 224862272 224317808 223533904 222491760 221178800 219586240 
1058.250 217703616 215518000 213019568 210208304 207104192 203748752 
1061.144 200205408 196544832 192833856 189132048 185482352 181917072 
1064.037 178463904 175146192 171985056 168995744 166183104 163540576 
1066.930 161052192 158698864 156463200 154334000 152306112 150376736 
1069.823 148541344 146790576 145110304 143485776 141905024 140360880 
1072.716 138850592 137372112 135920944 134487968 133061200 131629320 
1075.609 130187128 128737840 127292992 125868056 124479032 123139752 
1078.502 121860080 120648864 119515864 118471992 117528728 116694128 
1081.395 115969952 115350696 114825096 114381400 114010664 113711176 
1084.288 113487120 113347072 113299248 113348888 113497784 113746008 
1087.181 114093944 114543728 115097616 115755152 116508560 117341496 
1090.074 118228584 119139368 120046088 120925936 121765336 122559704 
1092.967 123310760 124025464 124713176 125388088 126068264 126773816 
1095.860 127525624 128338840 129219296 130160776 131146800 132154288 
1098.753 133156640 134129896 135051392 135898048 136647232 137274960 
1101.646 137759152 138086432 138255008 138277232 138175424 137977904 
1104.540 137711328 137395744 137045616 136671376 136281392 135884592 
1107.433 135487216 135089424 134681072 134240736 133738440 133138312 
1110.326 132407648 131518824 130449504 129184496 127712952 126030136 
1113.219 124139976 122059944 119823352 117474104 115065960 112652808 
1116.112 110277888 107976048 105769856 103672024 101690800 99830392 98091392 
1119.487 96469760 94955208 93531096 92175424 90865224 89578672 88295720 
1122.862 87000472 85678328 84315640 82901880 81430272 79901464 78324792 
1126.238 76718800 75108680 73520320 71979008 70505064 69112640 67811264 
1129.613 66605428 65495728 64477988 63543396 62678748 61866704 61090004 
1132.988 60334256 59590392 58857096 58140868 57454260 56812652 56233236 
1136.363 55733204 55327412 55029212 54848952 54792560 54860944 55049560 
1139.739 55349020 55745824 56225432 56774400 57380060 58031788 58719840 
1143.114 59433112 60159848 60888488 61608272 62312616 62998904 63668756 
1146.489 64326152 64975844 65622316 66269548 66922276 67586864 68270736 
1149.864 68982048 69727096 70508224 71323592 72167816 73034648 73918848 
1153.240 74817376 75729080 76652464 77583840 78516064 79438608 80339696 
1156.615 81207920 82032040 82800920 83501272 84114928 84620280 84992864 
1159.990 85208056 85246480 85093136 84738296 84176296 83402656 82414504 
1163.365 81212232 79801112 78193344 76407168 74466584 72397336 70223840 
1166.740 67971112 65662548 63321644 60974040 58644096 56354656 54125708 
1170.116 51971216 49900608 47920148 46033808 44245164 42557880 40975392 
1173.491 39499668 38130904 36866884 35703396 34635156 33656608 32762182 
1176.866 31946618 31205206 30532626 29924162 29375326 28882848 28444982 
1180.241 28061946 27735088 27466180 27256494 27105910 27013340 26976812 
1183.617 26994336 27064508 27187000 27362206 27590302 27870982 28202646 
1186.992 28582228 29004720 29463222 29949508 30452120 30958016 31453352 
1190.367 31923652 32356832 32745100 33085122 33378680 33631188 33850100 
1193.742 34043140 34216588 34375792 34523784 34662324 34791212 34909368 
1197.118 35014084 35102056 35170064 35215224 35235888 35231256 35200928 
1200.493 35144304 35060348 34947860 34805392 34633004 34431308 34201204 
1203.868 33942384 33652348 33325370 32953166 32525924 32035750 31477790 
1207.243 30852528 30165648 29428260 28655700 27864692 27074240 26303494 
1210.619 25569046 24887060 24270088 23726596 23261906 22877548 22572120 
1213.994 22341900 22182548 22089384 22058114 22084922 22166160 22298160 
1217.369 22477198 22699636 22961972 23261766 23596856 23965676 24366454 
1220.744 24797526 25257154 25744094 26258050 26799680 27370112 27970376 
1224.120 28600490 29258846 29942266 30646534 31367440 32100034 32839474 
1227.495 33579708 34312532 35028200 35715444 36361876 36956452 37489204 
1230.870 37951300 38335736 38636488 38849748 38975356 39018128 38988984 
1234.245 38903852 38783952 38652568 38532376 38446388 38414932 38455804 
1237.621 38586000 38818624 39164052 39628004 40210388 40905304 41700788 
1240.996 42580468 43523752 44506240 45502764 46484288 47420060 48281560 
1244.371 49041608 49679180 50182404 50547600 50779644 50889412 50893808 
1247.746 50812196 50665988 50477964 50267840 50050240 49831296 49607192 
1251.122 49363972 49080336 48734160 48306076 47784828 47169156 46467876 
1254.497 45697340 44877128 44029128 43173888 42327452 41502564 40706716 
1257.872 39941816 39206044 38494468 37802056 37124748 36461036 35812732 
1261.247 35183752 34579288 34003904 33461378 32954346 32484788 32054868 
1264.623 31667036 31323672 31027158 30778328 30576920 30421234 30308948 
1267.998 30237826 30206318 30213350 30258572 30340926 30458374 30607530 
1271.373 30783842 30982142 31196696 31421934 31652528 31882964 32108344 
1274.748 32325346 32532782 32732346 32928538 33127140 33332094 33544268 
1278.124 33758624 33965528 34150876 34299444 34398524 34438804 34416424 
1281.499 34332684 34193284 34007020 33784484 33537720 33278468 33017226 
1284.874 32763146 32522496 32300218 32100424 31926718 31783630 31676516 
1288.249 31609800 31586282 31605274 31662796 31751298 31861424 31984850 
1291.625 32114658 32247148 32381568 32519318 32662898 32815564 32981512 
1295.000 33165156 33371524 33606484 33874384 34178516 34520452 34899816 
1298.375 35316032 35768656 36258312 36786056 37352904 37958420 38599876 
1301.750 39272884 39972260 40693140 41431952 42186592 42955240 43735800 
1305.125 44525108 45319056 46113940 46907624 47699060 48488944 49276704 
1308.501 50059944 50833540 51590116 52320992 53018580 53676048 54287048 
1311.876 54845452 55343032 55770428 56118712 56380160 56550608 56628892 
1315.251 56616092 56513316 56320968 56038748 55667588 55212152 54682588 
1318.626 54094296 53465464 52815948 52162132 51516728 50889080 50284880 
1322.002 49709308 49167412 48664180 48204656 47793480 47434696 47132520 
1325.377 46892080 46719480 46621784 46605444 46673988 46826532 47056888 
1328.752 47354464 47704496 48091600 48500612 48916056 49323620 49709124 
1332.127 50058532 50360108 50605264 50789588 50912884 50978236 50989784 
1335.503 50951480 50866392 50737076 50566252 50357800 50116428 49847240 
1338.878 49555268 49244452 48918320 48579612 48230872 47874384 47511720 
1342.253 47143152 46767408 46382148 45985768 45578344 45162812 44744660 
1345.628 44331500 43931048 43549684 43192624 42864496 42569612 42314264 
1349.004 42105940 41952232 41859692 41831748 41867504 41961616 42106012 
1352.379 42290708 42505444 42740828 42988636 43240428 43489288 43728948 
1355.754 43955500 44168312 44369664 44563548 44753144 44938640 45115900 
1359.129 45277128 45411816 45509976 45565320 45576324 45547876 45490144 
1362.505 45418700 45351640 45306696 45300516 45344544 45444672 45599728 
1365.880 45802480 46040032 46293748 46543772 46769772 46952068 47074800 
1369.255 47123620 47085360 46948928 46704608 46346240 45873512 45293716 
1372.630 44622916 43883356 43105456 42321424 41560208 40844472 40185636 
1376.006 39584520 39033316 38520536 38034980 37569476 37123556 36703268 
1379.381 36320520 35988360 35718684 35518712 35388460 35319336 35293708 
1382.756 35286772 35266216 35195680 35040952 34769208 34356208 33791716 
1386.131 33085908 32272202 31402596 30540376 29739862 29035326 28438966 
1389.507 27943450 27532192 27185022 26884518 26616244 26368694 26132758 
1392.882 25901734 25672766 25447818 25234610 25044216 24886640 24767180 
1396.257 24684264 24631134 24598276 24577342 24564124 24558690 24565142 
1399.632 24588038 24630362 24690682 24764412 24844396 24924222 24999078 
1403.008 25067382 25130642 25193244 25261052 25339444 25432428 25542232 
1406.383 25669356 25813078 25972010 26144654 26328948 26523076 26726028 
1409.758 26937820 27160474 27397602 27654072 27934334 28241294 28575684 
1413.133 28935652 29318074 29718928 30135210 30564904 31006624 31460478 
1416.509 31926860 32406882 32903194 33420474 33964200 34537420 35139488 
1419.884 35762900 36394628 37020208 37626992 38206444 38753556 39267480 
1423.259 39750568 40206608 40639692 41052704 41446828 41821020 42172280 
1426.634 42495868 42786204 43036192 43238192 43385472 43473136 43499356 
1430.010 43465848 43377892 43243684 43073696 42880184 42675392 42468792 
1433.385 42266676 42070312 41877972 41688536 41506284 41346048 41235932 
1436.760 41207952 41287560 41483500 41784760 42166620 42596328 43040220 
1440.135 43462588 43828704 44110176 44284460 44337812 44265452 44068184 
1443.510 43751448 43323156 42795052 42180972 41495528 40755296 39977672 
1446.886 39182548 38396692 37650880 36976692 36399816 35932280 35572620 
1450.261 35308484 35124436 35005896 34943232 34931412 34966968 35043504 
1453.636 35150300 35268588 35373108 35436772 35433648 35351000 35198408 
1457.011 35010208 34828476 34682600 34578784 34504560 34441964 34376612 
1460.387 34302492 34219272 34128832 34029952 33915976 33774888 33594424 
1463.762 33367660 33099606 32807812 32517318 32250326 32017984 31819708 
1467.137 31647292 31491078 31343080 31197764 31049472 30888102 30696780 
1470.512 30452866 30131516 29717688 29215288 28652798 28073224 27517152 
1473.888 27007454 26545828 26121744 25724090 25350510 25009642 24717302 
1477.263 24487450 24327660 24234980 24200366 24212244 24262588 24349386 
1480.638 24476056 24648808 24873236 25152830 25488328 25880036 26329686 
1484.013 26841092 27418920 28065022 28776128 29538652 30327496 31108662 
1487.389 31838108 32465972 32942620 33219770 33259794 33045292 32585922 
1490.764 31919620 31100654 30187918 29226698 28241682 27241642 26222712 
1494.139 25178708 24113110 23043340 22004118 21043016 20204954 19520280 
1497.514 18997616 18627870 18390916 18264074 18227376 18262172 18350510 
1500.890 18475752 18620988 18770562 18910982 19027456 19102340 19112866 
1504.265 19025482 18798552 18389570 17771774 16959944 16020723 15052105 
1507.640 14136712 13312032 12571309 11888032 11234729 10595581 9967510 
1511.015 9359439 8785927 8259400 7788089 7372522 7007555 6685020 6396819 
1514.873 6136231 5898268 5680846 5485411 5316325 5179629 5079146 5013948 
1518.730 4976810 4954053 4928651 4885589 4818677 4735898 4657621 4607052 
1522.588 4597475 4626710 4680463 4739850 4790234 4824206 4844643 4861229 
1526.445 4886695 4929019 4989178 5062385 5141975 5223792 5307571 5395559 
1530.302 5489873 5589343 5689239 5782576 5864313 5935317 6005257 6089757 
1534.160 6201464 6344299 6510691 6686366 6854673 7001527 7117511 7197040 
1538.017 7239624 7247609 7226687 7184307 7129199 7072144 7023920 6992671 
1541.875 6980819 6984489 6993076 6993682 6975937 6935669 6878135 6814281 
1545.732 6757100 6714160 6684481 6659246 6626140 6575173 6502282 6412523 
1549.590 6317571 6231547 6163453 6114321 6077526 6044061 6007104 5965112 
1553.447 5922889 5888797 5870191 5868713 5879191 5889804 5885673 5849939 
1557.304 5766459 5625627 5433134 5217991 5024774 4893732 4839316 4850306 
1561.162 4903014 4972319 5037847 5083806 5101474 5089271 5053702 5007545 
1565.019 4965013 4937531 4928148 4932270 4939710 4940347 4926942 4898759 
1568.877 4861396 4825881 4804439 4805008 4830538 4878419 4943497 5018942 
1572.734 5097049 5169436 5226207 5258301 5260649 5236133 5199145 5171816 
1576.592 5177583 5227917 5320786 5443703 5581825 5723046 5859880 5990710 
1580.449 6116908 6241496 6366389 6492562 6619075 6744816 6868474 6988900 
1584.306 7104443 7212369 7308561 7389035 7450614 7492987 7519686 7537521 
1588.164 7555592 7582430 7626029 7691554 7782118 7899458 8043764 8213340 
1592.021 8402812 8603250 8800872 8978897 9121599 9216489 9256868 9243905 
1595.879 9185421 9093887 8982651 8864748 8750528 8647527 8561547 8496464 
1599.736 8454332 8435042 8436528 8454670 8485281 8525152 8573340 8630525 
1603.594 8698298 8777339 8866067 8960699 9055418 9143594 9219704 9279107 
1607.451 9318408 9335097 9327175 9292680 9231077 9143560 9034612 8911790 
1611.308 8785217 8664528 8556748 8464333 8384908 8312322 8238125 8154928 
1615.166 8057873 7947712 7832012 7724067 7638506 7585566 7568269 7582565 
1619.023 7619656 7668823 7718974 7760327 7785019 7789236 7774056 7746666 
1622.881 7718266 7700154 7700728 7722010 7760732 7810320 7864198 7916633 
1626.738 7964316 8005658 8040996 8072354 8102330 8134638 8173092 8220195 
1630.595 8276860 8341402 8409839 8474941 8528092 8559891 8561242 8526436 
1634.453 8455988 8360216 8258759 8175321 8128831 8125623 8159823 8217662 
1638.310 8284459 8346773 8395448 8426866 8442609 8448960 8453386 8462846 
1642.168 8479808 8502242 8522719 8531640 8518631 8475111 8397003 8286857 
1646.025 8155907 8022095 7905937 7825501 7789472 7797231 7839266 7901145 
1649.883 7963978 8004409 7996140 7910323 7725180 7443233 7110505 6807718 
1653.740 6603330 6518393 6526331 6583852 6652449 6708002 6739466 6744716 
1657.597 6727553 6693634 6648143 6593742 6529695 6453381 6362153 6254774 
1661.455 6133206 6002770 5872810 5753969 5655267 5582496 5535478 5509739 
1665.312 5496518 5485108 5464372 5423506 5354498 5253773 5124238 4975268 
1669.170 4821290 4679157 4561981 4476906 4423848 4396769 4385255 4376352 
1673.027 4356974 4315140 4243866 4145004 4031685 3925449 3846115 3804131 
1676.885 3796309 3810147 3828900 3839463 3835920 3820577 3802593 3791229 
1680.742 3792031 3801056 3805134 3784076 3718971 3600149 3439411 3269651 
1684.599 3134165 3061649 3054775 3095052 3157694 3222682 3275961 3311517 
1688.457 3329046 3331517 3324372 3313621 3306242 3308479 3324839 3356226 
1692.314 3398401 3441715 3471307 3471106 3428490 3341834 3226153 3112105 
1696.172 3032686 3004960 3023411 3063351 3093684 3083573 3013268 2884532 
1700.029 2727693 2591375 2515684 2512585 2564410 2641110 2712122 2755802 
1703.886 2760770 2725459 2658245 2574310 2491356 2421847 2370738 2336558 
1707.744 2313906 2297584 2283527 2270404 2258313 2248055 2239761 2233100 
1711.601 2226673 2219446 2210720 2200563 2189706 2178551 2166330 2150346 
1715.459 2125972 2088082 2034516 1968474 1900313 1845172 1817488 1824143 
1719.316 1863041 1924308 1995169 2062846 2117714 2154708 2173156 2176453 
1723.174 2170159 2160502 2152344 2147749 2147349 2149946 2153809 2157239 
1727.031 2157838 2154009 2144385 2129635 2112421 2097538 2089547 2090945 
1730.888 2098836 2105096 2095873 2055855 1974499 1853558 1713423 1586968 
1734.746 1506996 1488078 1522989 1590426 1665524 1728359 1764321 1767881 
1738.603 1742132 1698587 1652087 1615901 1597011 1594882 1603895 1616998 
1742.461 1629038 1638084 1644570 1650457 1658040 1668085 1680226 1693531 
1746.318 1707069 1720043 1732551 1744726 1755971 1764987 1769445 1768513 
1750.176 1762458 1755206 1752944 1763390 1792135 1840181 1903641 1974599 
1754.033 2043071 2098636 2133597 2144951 2135495 2113819 2091112 2077395 
1757.890 2076762 2087416 2102232 2112421 2109990 2090679 2055322 2010149 
1761.748 1964680 1928501 1908766 1907634 1923010 1949103 1979292 2006587 
1765.605 2024795 2030288 2022798 2006620 1988578 1977228 1978393 1992074 
1769.463 2012612 2029422 2031420 2010282 1965245 1904539 1844074 1800087 
1773.320 1782087 1790405 1816989 1851328 1884106 1910896 1931430 1948371 
1777.177 1964347 1979824 1992240 1997766 1993139 1978027 1956292 1934858 
1781.035 1921246 1919316 1928701 1945009 1961717 1973301 1977661 1975897 
1784.892 1972602 1972968 1981122 1998498 2024562 2056720 2091844 2126272 
1788.750 2155674 2174421 2176653 2156806 2112054 2044403 1962916 1881510 
1792.607 1814660 1773271 1759930 1770110 1794398 1822712 1847934 1865304 
1796.465 1873490 1873457 1866336 1853092 1834158 1809935 1781488 1751945 
1800.322 1725332 1705672 1696026 1697389 1708167 1725432 1746024 1767183 
1804.179 1787344 1805543 1821747 1835756 1847535 1857185 1864938 1870928 
1808.037 1875287 1878049 1878748 1876718 1872126 1864872 1856453 1848533 
1811.894 1842677 1839516 1838584 1838251 1836388 1831264 1822047 1809736 
1815.752 1796660 1785714 1779958 1780956 1789074 1802948 1820683 1840547 
1819.609 1861211 1882176 1903108 1923509 1942347 1957490 1965944 1965745 
1823.467 1955560 1937121 1914789 1895188 1884705 1887168 1901744 1923076 
1827.324 1943212 1952831 1945342 1919216 1878682 1833992 1796926 1777330 
1831.181 1778960 1799089 1829866 1862409 1889730 1908133 1917785 1921679 
1835.039 1924241 1929167 1938220 1951400 1967476 1985250 2003824 2023963 
1838.896 2046134 2070870 2097571 2124174 2147116 2162800 2166995 2157239 
1842.754 2133397 2099269 2062214 2031819 2016806 2022265 2047366 2086684 
1846.611 2132132 2175620 2210853 2235165 2249653 2257947 2264142 2271203 
1850.469 2279497 2286958 2290455 2287524 2278264 2264908 2251119 2240494 
1854.326 2234632 2232734 2232468 2230769 2226207 2218713 2210321 2203127 
1858.183 2198365 2195734 2193037 2187942 2178451 2164032 2146017 2126505 
1862.041 2107959 2092410 2081257 2075231 2075131 2081157 2092577 2106694 
1865.898 2119180 2124374 2116782 2093409 2055256 2008384 1961851 1924907 
1869.756 1903774 1899947 1909531 1926471 1945042 1961118 1973034 1981356 
1873.613 1987280 1992074 1996467 1999829 2002293 2003558 2004090 2004323 
1877.470 2004423 2003957 2001926 1997566 1990875 1982687 1974365 1967043 
1881.328 1960985 1955393 1949003 1940849 1931730 1923842 1920347 1923842 
1885.185 1934791 1951300 1968108 1978826 1978826 1965146 1938919 1904506 
1889.043 1869065 1839981 1822346 1818586 1827537 1845239 1866469 1885603 
1892.900 1898416 1902176 1896386 1883074 1865970 1848999 1836355 1830066 
1896.758 1830166 1835290 1843209 1851728 1859880 1867467 1874455 1881178 
1900.615 1887001 1890995 1892792 1892392 1891427 1891960 1896153 1904306 
1904.472 1915755 1927869 1937421 1941781 1939651 1931530 1919149 1904173 
1908.330 1888066 1871793 1855621 1839981 1825906 1814827 1808272 1806775 
1912.187 1809969 1816091 1823111 1828934 1831729 1829567 1821115 1804246 
1916.045 1777563 1741499 1699086 1656843 1623118 1606456 1610846 1634525 
1919.902 1669748 1705905 1731686 1739337 1727162 1698853 1662131 1625645 
1923.760 1595282 1573001 1557105 1544270 1532499 1522357 1516339 1518068 
1927.617 1529473 1550189 1576559 1603862 1626776 1642109 1648228 1645800 
1931.474 1636288 1621987 1605059 1588231 1574231 1566051 1565252 1571937 
1935.332 1584074 1598275 1610546 1618794 1622752 1624415 1626211 1629869 
1939.189 1634359 1636488 1631998 1617597 1592488 1559633 1524751 1493098 
1943.047 1469094 1453634 1444758 1440004 1437345 1436846 1440004 1448415 
1946.904 1462278 1479899 1497387 1511318 1518833 1519731 1515508 1509224 
1950.761 1503239 1498650 1495126 1491602 1486914 1480231 1471554 1460051 
1954.619 1444259 1421720 1389675 1346665 1293755 1234504 1174864 1120712 
1958.476 1076566 1043616 1020400 1003363 989880 978456 970818 969523 976961 
1962.816 993400 1016515 1040893 1059592 1065837 1055075 1026545 983935 
1966.673 935320 891557 862772 855800 871570 906133 948868 988319 1015253 
1971.013 1024519 1017445 998780 974703 949731 924296 896305 862805 825921 
1975.353 791232 770552 775332 813141 884452 979219 1081781 1177787 1256369 
1979.692 1314492 1355971 1387880 1416734 1446520 1477272 1507827 1536057 
1983.550 1561628 1584640 1606822 1628772 1649426 1667686 1682754 1693997 
1987.407 1704009 1714753 1727694 1742863 1757335 1767914 1772506 1771574 
1991.264 1767981 1766850 1772905 1787111 1807972 1830166 1848766 1860146 
1995.122 1862509 1856852 1845472 1830365 1811732 1789773 1764421 1737408 
1998.979 1712159 1692500 1680725 1676434 1675602 1671943 1659470 1635490 
2002.837 1600902 1561462 1523787 1493896 1475144 1466467 1464472 1465470 
2006.694 1466135 1465337 1463010 1459452 1454465 1447983 1440203 1432990 
2010.552 1429300 1432591 1445124 1466135 1491303 1514843 1531003 1537354 
2014.409 1534693 1527378 1520961 1520329 1527744 1542607 1562659 1585704 
2018.266 1609316 1633029 1655645 1675236 1689639 1696924 1696292 1690071 
2022.124 1681955 1677199 1679660 1690105 1705672 1722571 1736243 1744227 
2025.981 1747288 1748852 1752278 1760795 1774868 1793998 1817122 1843841 
2029.839 1874722 1911228 1953430 1999563 2046067 2088715 2124274 2152510 
2033.696 2176286 2199264 2226173 2258946 2297683 2340888 2386397 2433342 
2037.553 2482159 2533581 2587542 2642643 2695351 2741530 2778377 2804988 
2041.411 2822497 2834570 2844942 2856715 2871591 2890169 2911984 2937236 
2045.268 2966059 2998587 3034555 3072627 3110837 3147214 3180223 3208595 
2049.126 3231728 3248553 3257399 3256999 3247184 3229759 3209663 3193742 
2052.983 3188935 3201018 3230793 3273958 3322468 3366210 3396564 3408586 
2056.841 3402642 3382872 3355758 3328178 3306142 3292954 3290584 3298863 
2060.698 3317160 3343203 3373857 3405714 3434969 3459416 3478721 3493986 
2064.555 3507848 3522779 3539615 3557086 3572787 3583912 3589559 3590494 
2068.413 3590360 3593133 3601719 3616654 3636333 3656382 3672588 3681677 
2072.270 3683214 3678202 3669581 3660024 3651904 3646591 3644620 3645756 
2076.128 3650233 3657718 3667174 3677533 3686990 3693707 3697182 3697750 
2079.985 3696581 3696013 3697450 3701961 3709246 3718436 3728830 3739424 
2083.843 3750152 3760713 3771341 3781001 3788989 3793836 3794504 3789825 
2087.700 3779664 3763688 3742131 3715830 3686689 3656716 3629785 3609036 
2091.557 3596708 3593601 3597911 3606263 3614349 3619728 3621900 3623203 
2095.415 3627346 3637637 3656014 3680975 3708678 3734310 3753695 3764624 
2099.272 3768033 3766061 3761716 3757638 3755065 3754530 3755800 3759343 
2103.130 3765426 3774717 3786817 3800922 3815596 3829468 3841703 3853069 
2106.987 3864803 3878309 3894155 3911039 3926653 3938556 3944641 3945210 
2110.844 3941899 3937753 3935346 3936650 3941398 3948720 3956712 3964102 
2114.702 3970388 3976106 3981590 3987810 3994464 4000918 4006503 4010783 
2118.559 4013459 4014629 4014161 4011653 4007004 3999714 3990485 3980821 
2122.417 3972829 3968415 3968616 3972728 3978012 3981490 3979751 3969987 
2126.274 3951596 3924747 3890611 3850762 3806471 3758942 3709680 3660792 
2130.132 3615017 3575828 3546262 3527990 3521175 3524349 3534136 3547198 
2133.989 3559892 3569513 3574191 3572954 3565772 3553445 3537210 3518303 
2137.846 3498161 3477419 3456210 3434101 3410890 3386145 3360667 3335724 
2141.704 3312352 3291886 3274425 3259436 3246850 3235767 3226587 3219677 
2145.561 3215004 3211099 3206058 3197246 3182393 3160765 3133965 3104797 
2149.419 3075264 3044965 3011366 2968795 2911250 2834936 2740230 2631976 
2153.276 2518350 2408319 2309242 2225574 2158837 2109690 2080824 2076629 
2157.134 2103597 2165663 2262010 2382199 2511552 2631209 2725925 2788581 
2160.991 2820629 2829800 2828600 2828633 2838738 2863653 2904012 2957085 
2164.848 3018272 3080936 3138637 3185864 3218976 3236635 3241042 3236268 
2168.706 3226454 3215171 3204123 3191538 3175651 3154290 3126422 3093617 
2172.563 3059614 3028048 3002658 2985142 2975400 2971430 2970596 2970029 
2176.421 2967727 2961555 2950413 2934534 2915920 2897307 2884866 2883965 
2180.278 2897807 2927228 2968361 3014335 3057011 3089913 3109836 3117778 
2184.135 3117144 3111805 3104663 3096420 3084941 3068556 3046667 3019941 
2187.993 2992015 2966393 2946343 2934034 2929030 2929730 2934267 2940472 
2191.850 2946443 2950480 2950780 2945676 2934834 2919256 2902577 2889335 
2195.708 2884099 2890136 2907147 2932599 2961021 2987844 3009798 3026480 
2199.565 3039593 3052573 3068390 3088645 3112506 3138537 3164169 3186866 
2203.423 3203989 3214203 3215271 3206759 3188468 3162467 3132630 3104296 
2207.280 3082672 3072094 3074162 3087477 3109035 3134966 3162133 3189135 
2211.137 3215405 3240641 3264777 3286177 3302569 3313153 3318362 3319898 
2214.995 3321267 3326075 3335590 3350149 3367445 3384242 3398568 3409421 
2218.852 3417569 3424449 3431195 3437641 3442083 3442016 3436004 3423647 
2222.710 3407250 3390152 3377095 3371385 3374457 3385811 3403410 3424616 
2226.567 3447092 3469670 3491915 3514628 3538178 3563200 3589859 3617990 
2230.425 3647360 3677767 3709647 3742732 3776923 3812120 3847118 3880615 
2234.282 3910738 3935981 3955475 3969284 3978747 3985770 3992993 4001620 
2238.139 4012288 4024194 4035731 4044795 4050982 4054427 4057638 4063189 
2241.997 4073792 4090448 4112424 4136842 4160426 4179696 4192642 4199334 
2245.854 4201609 4202412 4205256 4212214 4224694 4242327 4263206 4285023 
2249.712 4305570 4323306 4338064 4350514 4362964 4377524 4396702 4420568 
2253.569 4448585 4478413 4506267 4528933 4544067 4550931 4550697 4545507 
2257.427 4538107 4531109 4526154 4524246 4526121 4531947 4541188 4553275 
2261.284 4566802 4579661 4590175 4596839 4599417 4599618 4600154 4604273 
2265.141 4614386 4631331 4653636 4678554 4702335 4722097 4736534 4745712 
2268.999 4751106 4754556 4757537 4760150 4762361 4763433 4763266 4762462 
2272.856 4762160 4763634 4768157 4775393 4784539 4793852 4801490 4806214 
2276.714 4807253 4805142 4800619 4795393 4790703 4787453 4786884 4789262 
2280.571 4795091 4804773 4818644 4836200 4857175 4880597 4904757 4927779 
2284.428 4947619 4962432 4971615 4975168 4974598 4971548 4968096 4966018 
2288.286 4966018 4967627 4969872 4971682 4972118 4970878 4968331 4965281 
2292.143 4962432 4960321 4958946 4958109 4957606 4957740 4959014 4962566 
2296.001 4969269 4980061 4994876 5013311 5034696 5058027 5082197 5106503 
2299.858 5130508 5153777 5176108 5197434 5218058 5238481 5259643 5282181 
2303.716 5306866 5333969 5363086 5393714 5424848 5455447 5484874 5512960 
2307.573 5539538 5565111 5590384 5615993 5642746 5671010 5701056 5732816 
2311.430 5765552 5798224 5829756 5859007 5885472 5909789 5932898 5957352 
2315.288 5985201 6018964 6059483 6107130 6160596 6217934 6277095 6335860 
2319.145 6393490 6450388 6507395 6565451 6624290 6681655 6733577 6774095 
2323.003 6797991 6801828 6785841 6754071 6713756 6674488 6644880 6630984 
2326.860 6635627 6657026 6690235 6728125 6763965 6792404 6811016 6820104 
2330.718 6821820 6819801 6817546 6817782 6822628 6833029 6849354 6871537 
2334.575 6898771 6930148 6964051 6999170 7033922 7066992 7097673 7125325 
2338.432 7149745 7170933 7189225 7204721 7218062 7229382 7238950 7245958 
2342.290 7248956 7244610 7228641 7196502 7144558 7071606 6980752 6879145 
2346.147 6778538 6692288 6632835 6610328 6630311 6693331 6795534 6929979 
2350.005 7086828 7254516 7422840 7582970 7728857 7858395 7972414 8073400 
2353.862 8164213 8247006 8323062 8392544 8455413 8511771 8561986 8606359 
2357.719 8644450 8675885 8699852 8716011 8724497 8725950 8721556 8711718 
2361.577 8696877 8676494 8650535 8618594 8581249 8539480 8494538 8447305 
2365.434 8398320 8347651 8295367 8241942 8188287 8136022 8086228 8039544 
2369.292 7994824 7950209 7903035 7851176 7793520 7730509 7663866 7596289 
2373.149 7530171 7467098 7407977 7352503 7299800 7249260 7200274 7152878 
2377.007 7107205 7063826 7023011 6985264 6950483 6918634 6889446 6862583 
2380.864 6837876 6815593 6796207 6780692 6770360 6766220 6768980 6778369 
2384.721 6793346 6811925 6831986 6851138 6867632 6880929 6890826 6897761 
2388.579 6902844 6906783 6910183 6913550 6916917 6920384 6923818 6927050 
2392.436 6929642 6931595 6932302 6932100 6931090 6929844 6928666 6928026 
2396.294 6927858 6928296 6929171 6930686 6933178 6937453 6944321 6954557 
2400.151 6968731 6986678 7008094 7032339 7058606 7086289 7114581 7143110 
2404.009 7171708 7200375 7229550 7260008 7292791 7329150 7369589 7414886 
2407.866 7464772 7518843 7576564 7637562 7701335 7767546 7835353 7903912 
2411.723 7971470 8036338 8097334 8153747 8205878 8254537 8300974 8346097 
2415.581 8389841 8431967 8471292 8506905 8538196 8565061 8588278 8608725 
2419.438 8627416 8645363 8663176 8681058 8699480 8718479 8737884 8757493 
2423.296 8776561 8794380 8810644 8824981 8838236 8851222 8865086 8880845 
2427.153 8899311 8920720 8945139 8972876 9004165 9039484 9079541 9123900 
2431.010 9171918 9222412 9273420 9323147 9370984 9416591 9461154 9506296 
2434.868 9553985 9606183 9664079 9727946 9797585 9871980 9949575 10028913 
2438.725 10109011 10189734 10271525 10355536 10443162 10535761 10633949 
2442.101 10737049 10844490 10955184 11068625 11184987 11305392 11431376 
2445.476 11563758 11702343 11845535 11990920 12135739 12277915 12416660 
2448.851 12552584 12687186 12821863 12957812 13094555 13230760 13364239 
2452.226 13492804 13614876 13729562 13836718 13937024 14031124 14119289 
2455.602 14201446 14276703 14343170 14398824 14440647 14466064 14472812 
2458.977 14459693 14426534 14374576 14305672 14222159 14125998 14018668 
2462.352 13900587 13771765 13632142 13481832 13321836 13153977 12980549 
2465.727 12804357 12627725 12452631 12280642 12112536 11949332 11791943 
2469.103 11641554 11499246 11366236 11243298 11130898 11028757 10936019 
2472.478 10851725 10774445 10703224 10636903 10575244 10518007 10465495 
2475.853 10418386 10376440 10339588 10307285 10278514 10251780 10226268 
2479.228 10200894 10175114 10148794 10121729 10094191 10066688 10039662 
2482.604 10014162 9990869 9970629 9953338 9938591 9925369 9912183 9898419 
2486.461 9883675 9868625 9854592 9842932 9834629 9829680 9827104 9825613 
2490.318 9823885 9821478 9818970 9817717 9819208 9824292 9832629 9842865 
2494.176 9852761 9860422 9864659 9865236 9863642 9861303 9859812 9859880 
2498.033 9861202 9863066 9864354 9864354 9863134 9861473 9860558 9861371 
2501.891 9864456 9869675 9876218 9883132 9889132 9893708 9896759 9898487 
2505.748 9899810 9901505 9904386 9909200 9916352 9925607 9936523 9947846 
2509.605 9958321 9966764 9971646 9972493 9969205 9962322 9952389 9940320 
2513.463 9926590 9911335 9894522 9876251 9857067 9837612 9818970 9802229 
2517.320 9787926 9775659 9764273 9752412 9738587 9722119 9703279 9683764 
2521.178 9665366 9650392 9639687 9633487 9630539 9629184 9627219 9623967 
2525.035 9619090 9613703 9609197 9607030 9607978 9612416 9619191 9627355 
2528.893 9635689 9643109 9648935 9653136 9655745 9656930 9657134 9656930 
2532.750 9656727 9657371 9659437 9663740 9670550 9679698 9691116 9704398 
2536.607 9718629 9733572 9748617 9763324 9777456 9791146 9804465 9818124 
2540.465 9832799 9849203 9867540 9887301 9907945 9927912 9945744 9960661 
2544.322 9972290 9981342 9989005 9997007 10006974 10019215 10033931 10050343 
2548.180 10067230 10083406 10097819 10109927 10119829 10127698 10134278 
2551.555 10140451 10146759 10153645 10161547 10170196 10179355 10188581 
2554.930 10197435 10205643 10213411 10220841 10228338 10235937 10243570 
2558.305 10250186 10254901 10256530 10254663 10249236 10241263 10232273 
2561.681 10224436 10219043 10217347 10219009 10223215 10228067 10231934 
2565.056 10233121 10230611 10224301 10214565 10202353 10188988 10175556 
2568.431 10163583 10154492 10149371 10149269 10154696 10165211 10180135 
2571.806 10197503 10215311 10231696 10245876 10257717 10268031 10278582 
2575.182 10290694 10304978 10321332 10338943 10356045 10372130 10386790 
2578.557 10400739 10415874 10433828 10455720 10481618 10510369 10540378 
2581.932 10569473 10596294 10620604 10642777 10663967 10685259 10707298 
2585.307 10730291 10753455 10776008 10797441 10817653 10837185 10857297 
2588.683 10878938 10903196 10930379 10960042 10991034 11021926 11051223 
2592.058 11077735 11101120 11121720 11140519 11158944 11178561 11200218 
2595.433 11224358 11250710 11278288 11306582 11334775 11362596 11390113 
2598.808 11417768 11446037 11475226 11505778 11537524 11571176 11606806 
2602.184 11644787 11685188 11727669 11771720 11816015 11859427 11901279 
2605.559 11940988 11979271 12016773 12054654 12093797 12134377 12176118 
2608.934 12218647 12260771 12301945 12341658 12379907 12416694 12452461 
2612.309 12487072 12520594 12553129 12584474 12614422 12642973 12669753 
2615.685 12694418 12716698 12736043 12752182 12765319 12775556 12783712 
2619.060 12790707 12797293 12804528 12813059 12822990 12834320 12846845 
2622.435 12859883 12873023 12885720 12897632 12908862 12919580 12930264 
2625.810 12941324 12953307 12966483 12980890 12996355 13012743 13029438 
2629.186 13046443 13063515 13080929 13099097 13118391 13139291 13162242 
2632.561 13187482 13214773 13244253 13275442 13308170 13342337 13377771 
2635.936 13414437 13452235 13490753 13529583 13568108 13605884 13642639 
2639.311 13678268 13713113 13747756 13782470 13817632 13853104 13888648 
2642.687 13923920 13958614 13992558 14025786 14058126 14090058 14121309 
2646.062 14152082 14182206 14211923 14241299 14270916 14301152 14332553 
2649.437 14365465 14399989 14436331 14474355 14513888 14555003 14597320 
2652.812 14640532 14684469 14728478 14772389 14816099 14859848 14903738 
2656.188 14948250 14993349 15038899 15084900 15130631 15176023 15221112 
2659.563 15266137 15311578 15358192 15406012 15455142 15505341 15556543 
2662.938 15608094 15660200 15712485 15765155 15818380 15871817 15925640 
2666.313 15979916 16034715 16090484 16148012 16207648 16269630 16334305 
2669.688 16400881 16468845 16537163 16604770 16671216 16735950 16798938 
2673.064 16860558 16921220 16981856 17042952 17105328 17169128 17234280 
2676.439 17300306 17366722 17432594 17497650 17561610 17624476 17686764 
2679.814 17749028 17811610 17874892 17939220 18005074 18072806 18143624 
2683.189 18218080 18297146 18381618 18471570 18567004 18667438 18772188 
2686.565 18880596 18991766 19105456 19220736 19337260 19454470 19572096 
2689.940 19689682 19807546 19925856 20045344 20166670 20290250 20416506 
2693.315 20545336 20676042 20808252 20941264 21074526 21208004 21341730 
2696.690 21476266 21611990 21749326 21888482 22029146 22171494 22314936 
2700.066 22459368 22604894 22751238 22898504 23046520 23194690 23342386 
2703.441 23489048 23633766 23776116 23915958 24052692 24186144 24315816 
2706.816 24440968 24560864 24674900 24782652 24884150 24979248 25067874 
2710.191 25149706 25224214 25290518 25348050 25396772 25436786 25469074 
2713.567 25494162 25513102 25526032 25533096 25533728 25527226 25513242 
2716.942 25491456 25461942 25424910 25380612 25329468 25271974 25208764 
2720.317 25140578 25068646 24993988 24918046 24841658 24765988 24691980 
2723.692 24620508 24552414 24488290 24429016 24374654 24325242 24280458 
2727.068 24240060 24203728 24171430 24143512 24120254 24101970 24089046 
2730.443 24081166 24078120 24079696 24085684 24095912 24110728 24130236 
2733.818 24154442 24183132 24215676 24251342 24289290 24328676 24369048 
2737.193 24409912 24451310 24493270 24535586 24578044 24619878 24660206 
2740.569 24698118 24732456 24762656 24788334 24809734 24827310 24842292 
2743.944 24855798 24869166 24883342 24899168 24917062 24937346 24959840 
2747.319 24984338 25010344 25037090 25064012 25090410 25115862 25140156 
2750.694 25163610 25186536 25209782 25234188 25260210 25288656 25320266 
2754.070 25355392 25394524 25437980 25485798 25537558 25592556 25649988 
2757.445 25708728 25768636 25829008 25889496 25950342 26011092 26071252 
2760.820 26130226 26187164 26241330 26292124 26338910 26381054 26417778 
2764.195 26448132 26471162 26486060 26492576 26490674 26481446 26465916 
2767.571 26445210 26420596 26393024 26363132 26331728 26299798 26267872 
2770.946 26236930 26207612 26179950 26153978 26129486 26106088 26083744 
2774.321 26062880 26043740 26026888 26013064 26002578 25995684 25992376 
2777.696 25992344 25994628 25998076 26000574 26000082 25994488 25982070 
2781.072 25962090 25934830 25901348 25863014 25821728 25778550 25734356 
2784.447 25689462 25644012 25598356 25552634 25507374 25462960 25419642 
2787.822 25377592 25336670 25297226 25259682 25224320 25192014 25163328 
2791.197 25138578 25117756 25101048 25087952 25078544 25072822 25070576 
2794.573 25071348 25074472 25078896 25083108 25086374 25087568 25086302 
2797.948 25082722 25076686 25068048 25056852 25042880 25026596 25008272 
2801.323 24988584 24968052 24947066 24925168 24901764 24876010 24847204 
2804.698 24815276 24781072 24745820 24710744 24677248 24645618 24616440 
2808.073 24589300 24564650 24542946 24524928 24511674 24503822 24502034 
2811.449 24505680 24514270 24526716 24542106 24559810 24579412 24600942 
2814.824 24624154 24649264 24676092 24705168 24736524 24770654 24808260 
2818.199 24849870 24895728 24946366 25001710 25062012 25126922 25196790 
2821.574 25271308 25350296 25433624 25520902 25611886 25706478 25804464 
2824.950 25905920 26010460 26117768 26227004 26337290 26447816 26557558 
2828.325 26665424 26770430 26871512 26967330 27057172 27140296 27216842 
2831.700 27287894 27354762 27418708 27481146 27542854 27603968 27664526 
2835.075 27724632 27784960 27846392 27910270 27977516 28048870 28124090 
2838.451 28202398 28283056 28365248 28449296 28535412 28625156 28719308 
2841.826 28819288 28926408 29041524 29166172 29302514 29452408 29618352 
2845.201 29802564 30005886 30228128 30467332 30719360 30977622 31233936 
2848.576 31478718 31700894 31890736 32039314 32140776 32193120 32197900 
2851.952 32160294 32088078 31990700 31878396 31760604 31646400 31543560 
2855.327 31458304 31395220 31357076 31344220 31355724 31388986 31440492 
2858.702 31506042 31581864 31664434 31750586 31838108 31925220 32010850 
2862.077 32094572 32176706 32257534 32337840 32418090 32498394 32578316 
2865.453 32657434 32735240 32811418 32886148 32959886 33033174 33106328 
2868.828 33179424 33252462 33324976 33396642 33466924 33535286 33601008 
2872.203 33663124 33720808 33773524 33821304 33865108 33906700 33948116 
2875.578 33991468 34038664 34090768 34148548 34212068 34281624 34357392 
2878.954 34439272 34527264 34620912 34719208 34821008 34925240 35031220 
2882.329 35139056 35249224 35362576 35480060 35601892 35727820 35856884 
2885.704 35987676 36118508 36247724 36373908 36495780 36612884 36724792 
2889.079 36831716 36934300 37033232 37129188 37222856 37314772 37405628 
2892.455 37496360 37588224 37682712 37782212 37887840 38001096 38122328 
2895.830 38250444 38383728 38519524 38654160 38782684 38900008 39000112 
2899.205 39076492 39124092 39138564 39118292 39063620 38977712 38864896 
2902.580 38730516 38579776 38417504 38247908 38074584 37900896 37729804 
2905.956 37564344 37406460 37257512 37118000 36987988 36867460 36756668 
2909.331 36656000 36566524 36488964 36423272 36369012 36323764 36285072 
2912.706 36248980 36211056 36166976 36111808 36040452 35948404 35831368 
2916.081 35686380 35511952 35308912 35079820 34828584 34560632 34280724 
2919.457 33993260 33701616 33407520 33111264 32812204 32509356 32201864 
2922.832 31889844 31574488 31258576 30946132 30641628 30349810 30074628 
2926.207 29818534 29582598 29366110 29167694 28985380 28817128 28661966 
2929.582 28519384 28389336 28272270 28168598 28078206 28000840 27935358 
2932.958 27880484 27834910 27797218 27766664 27742750 27725338 27714602 
2936.333 27710436 27712696 27720218 27731522 27744518 27757092 27767266 
2939.708 27773906 27776236 27774506 27769454 27761472 27750698 27736676 
2943.083 27717782 27691258 27654390 27603686 27535864 27448992 27341704 
2946.458 27214338 27068668 26907468 26734626 26554106 26370208 26186390 
2949.834 26005570 25829852 25660638 25498484 25343412 25194930 25052534 
2953.209 24915414 24782862 24654700 24530678 24410754 24295106 24183762 
2956.584 24076544 23973624 23874718 23779898 23689574 23604168 23524480 
2959.959 23451346 23385358 23327072 23276624 23233872 23198604 23170258 
2963.335 23148452 23132410 23121226 23113540 23107912 23102148 23094564 
2966.710 23082858 23065318 23040616 23007528 22965432 22914048 22853066 
2970.085 22782978 22704000 22616762 22522320 22421894 22317030 22209364 
2973.460 22100890 21993626 21889282 21789562 21695300 21606872 21523754 
2976.836 21444934 21368252 21291444 21211796 21126772 21034598 20933962 
2980.211 20824970 20708534 20586782 20462212 20337436 20215022 20096700 
2983.586 19983652 19876426 19774982 19679490 19590154 19507526 19432466 
2986.961 19366464 19310306 19264620 19229118 19201862 19179316 19157086 
2990.337 19129522 19091262 19038222 18967708 18879904 18777552 18665296 
2993.712 18548884 18434058 18325832 18227236 18139582 18062376 17994024 
2997.087 17932554 17875824 17822312 17771290 17722692 17676998 17635312 
3000.462 17598460 17567166 17541600 17520866 17503686 17488162 17472364 
3003.838 17454704 17434458 17411900 17387862 17364170 17342238 17323444 
3007.213 17308444 17297308 17289514 17284480 17281654 17280378 17280342 
3010.588 17281550 17284446 17289274 17296756 17307306 17321272 17338720 
3013.963 17359134 17382000 17406692 17432802 17460636 17490648 17523764 
3017.339 17560576 17601426 17645664 17692044 17738812 17784338 17827284 
3020.714 17866916 17903342 17936870 17967950 17997064 18024210 18049318 
3024.089 18072462 18093464 18112740 18130946 18148564 18166150 18184186 
3027.464 18202358 18219982 18236464 18250320 18260616 18266458 18267666 
3030.840 18264556 18258232 18250042 18241612 18234320 18228618 18224750 
3034.215 18222536 18221570 18221364 18222192 18224058 18226926 18231074 
3037.590 18236256 18242130 18248764 18256332 18265178 18276168 18289716 
3040.965 18305750 18323792 18342560 18360844 18377780 18393060 18407198 
3044.341 18421026 18435718 18451932 18470324 18490898 18513406 18537784 
3047.716 18563684 18590970 18619086 18647310 18674772 18700612 18724550 
3051.091 18746864 18768556 18791010 18815230 18841910 18870560 18900252 
3054.466 18929672 18957742 18983770 19007828 19030434 19052174 19073570 
3057.842 19095312 19117472 19140430 19164564 19189810 19216270 19243318 
3061.217 19269780 19294580 19316406 19335008 19350874 19365042 19379144 
3064.592 19394492 19411608 19430492 19450312 19470168 19489228 19507388 
3067.967 19524716 19541906 19559514 19577918 19597400 19617712 19638858 
3071.343 19660770 19683338 19706638 19730736 19755668 19781676 19809176 
3074.718 19838688 19870702 19905492 19942958 19982162 20022130 20061410 
3078.093 20099060 20134842 20168924 20202490 20236856 20272926 20311290 
3081.468 20352018 20394280 20437238 20479510 20519940 20557668 20591992 
3084.844 20622740 20650120 20675384 20699744 20724940 20752776 20784198 
3088.219 20819722 20859108 20901280 20945088 20989632 21034076 21078038 
3091.594 21121832 21165178 21208074 21250522 21292070 21332684 21372602 
3094.969 21412212 21452314 21493882 21537332 21582668 21629718 21677396 
3098.344 21724524 21770052 21813288 21854298 21894020 21934168 21976234 
3101.720 22021826 22071640 22125330 22181712 22239042 22295612 22350448 
3105.095 22403474 22455286 22507070 22559940 22614214 22669786 22725716 
3108.470 22781128 22835150 22888026 22940072 22992332 23045610 23100540 
3111.845 23156908 23214612 23272708 23330464 23387282 23442708 23496672 
3115.221 23548896 23599830 23649930 23699862 23750954 23804046 23860296 
3118.596 23919810 23982518 24047160 24112724 24177876 24241916 24304322 
3121.971 24365296 24424914 24483874 24542456 24601082 24660170 24720040 
3125.346 24781038 24843730 24908360 24974650 25042074 25110106 25177828 
3128.722 25244828 25310608 25375062 25438612 25501540 25564370 25627704 
3132.097 25692274 25758508 25826968 25897830 25970954 26045816 26121816 
3135.472 26197792 26273150 26346936 26418554 26488420 26556608 26623536 
3138.847 26690440 26757990 26827030 26898160 26971490 27047052 27124532 
3142.223 27203614 27283944 27365736 27448814 27533286 27618478 27703654 
3145.598 27787750 27869886 27949880 28028016 28105672 28184544 28265904 
3148.973 28350464 28438012 28527204 28616628 28705114 28792450 28879378 
3152.348 28967210 29057220 29150366 29246120 29343172 29439856 29534504 
3155.724 29626120 29714990 29801784 29888240 29975602 30065004 30156698 
3159.099 30250472 30345724 30442310 30540268 30639566 30740878 30844204 
3162.474 30949442 31056056 31162840 31268652 31372570 31473942 31572848 
3165.849 31670422 31767446 31865634 31965982 32068782 32174316 32281876 
3169.225 32390532 32499858 32609354 32718700 32827572 32936078 33044078 
3172.600 33150922 33256576 33361002 33464204 33566536 33668248 33769548 
3175.975 33870768 33972048 34073564 34176184 34280404 34386692 34495232 
3179.350 34605556 34716516 34826896 34935940 35043144 35149188 35255116 
3182.726 35361716 35469596 35578300 35687136 35795532 35902948 36010172 
3186.101 36118580 36229568 36344336 36462948 36584408 36706980 36829336 
3189.476 36950320 37069964 37189176 37309324 37430944 37554556 37679928 
3192.851 37806536 37934012 38062612 38192300 38323868 38457360 38591976 
3196.227 38727256 38862104 38996268 39129968 39263780 39398508 39535016 
3199.602 39673308 39812880 39952864 40092380 40230816 40367584 40502796 
3202.977 40636380 40768656 40900460 41032856 41167512 41305816 41448756 
3206.352 41596380 41747440 41899724 42050744 42198932 42343924 42486844 
3209.728 42629732 42774760 42923124 43074428 43227140 43379100 43528512 
3213.103 43674568 43817892 43960012 44102952 44248100 44396748 44548968 
3216.478 44704700 44863608 45025332 45189172 45354252 45519396 45683132 
3219.853 45844568 46003712 46161324 46319108 46479124 46642852 46810696 
3223.229 46982304 47156304 47331040 47505028 47677428 47847860 48016248 
3226.604 48182888 48348184 48512840 48677856 48844080 49012708 49183888 
3229.979 49357288 49532056 49706672 49880244 50052844 50225324 50399140 
3233.354 50575932 50756516 50940456 51126560 51312968 51498408 51682140 
3236.729 51864380 52046252 52228608 52412272 52597176 52783280 52970588 
3240.105 53159328 53350244 53544204 53741440 53941732 54144212 54347468 
3243.480 54550964 54754632 54959640 55167792 55380408 55598776 55823020 
3246.855 56052548 56286304 56523284 56762808 57005032 57249660 57496960 
3250.230 57746220 57996604 58246984 58496484 58744536 58990976 59236084 
3253.606 59480604 59724996 59969868 60215984 60463612 60713052 60964432 
3256.981 61217712 61472624 61728836 61986192 62244504 62503732 62763192 
3260.356 63022392 63279860 63534380 63784368 64028928 64267748 64501360 
3263.731 64730480 64955756 65178148 65397308 65613328 65826268 66035912 
3267.107 66241996 66444428 66642316 66834344 67019352 67196264 67364592 
3270.482 67525432 67680208 67830824 67979088 68125704 68270496 68412864 
3273.857 68551936 68686936 68817952 68945080 69068048 69186736 69300288 
3277.232 69407528 69508424 69603208 69693208 69780360 69866592 69952960 
3280.608 70039456 70125232 70209112 70289672 70366304 70439240 70509552 
3283.983 70578344 70646760 70715224 70783592 70850712 70915544 70976288 
3287.358 71031464 71080480 71123648 71161896 71198000 71234656 71274240 
3290.733 71318488 71367256 71419432 71472472 71524232 71572912 71618272 
3294.109 71660672 71701128 71740512 71778904 71815688 71849536 71879408 
3297.484 71905136 71927080 71946512 71964336 71981392 71997776 72012520 
3300.859 72024688 72033248 72038096 72039352 72038448 72036968 72037160 
3304.234 72041384 72051784 72070368 72097944 72134680 72179320 72229904 
3307.610 72284184 72339792 72395384 72450736 72506488 72563736 72624240 
3310.985 72688752 72758168 72833192 72913848 73000472 73093256 73192384 
3314.360 73297776 73409352 73527064 73650832 73780912 73917432 74060056 
3317.735 74208376 74360800 74516072 74673088 74831584 74992256 75156304 
3321.111 75325176 75498896 75677328 75858440 76040056 76221168 76400808 
3324.486 76579616 76758256 76937176 77115528 77291304 77461768 77624448 
3327.861 77778392 77923792 78062456 78195920 78325544 78450840 78570384 
3331.236 78681608 78782024 78869976 78944760 79005488 79051984 79083432 
3334.612 79099016 79098816 79083320 79054416 79014664 78966376 78910824 
3337.987 78848440 78778008 78698008 78607544 78505944 78394120 78273208 
3341.362 78144200 78007928 77864280 77712768 77552744 77384072 77206240 
3344.737 77018384 76819512 76608704 76384816 76148544 75901768 75648144 
3348.113 75392296 75137872 74887400 74641448 74398432 74155704 73910880 
3351.488 73662488 73410528 73155608 72899144 72641824 72383560 72124080 
3354.863 71863072 71600376 71336608 71072592 70809056 70546504 70285352 
3358.238 70025672 69768064 69513640 69263640 69019416 68781648 68549768 
3361.614 68322456 68097440 67872896 67647216 67420120 67191816 66963292 
3364.989 66735812 66510692 66288808 66071556 65859964 65654336 65455280 
3368.364 65262088 65073676 64888848 64706176 64524344 64343168 64161956 
3371.739 63980436 63797840 63612976 63424820 63232488 63035912 62835680 
3375.115 62633156 62429816 62226568 62024220 61823184 61623776 61427088 
3378.490 61234152 61045840 60862756 60684056 60507672 60331324 60152120 
3381.865 59968348 59780052 59587656 59393256 59198260 59003996 58810616 
3385.240 58617816 58425140 58232924 58041708 57852884 57667468 57486480 
3388.615 57310112 57137740 56968572 56801020 56634744 56468752 56302940 
3391.991 56137904 55974444 55813376 55655684 55501776 55351200 55202932 
3395.366 55055244 54906132 54754336 54599544 54442332 54284608 54127848 
3398.741 53973092 53820608 53669264 53517404 53363544 53207116 53048080 
3402.116 52887796 52726564 52565052 52402892 52238660 52071240 51899816 
3405.492 51724428 51545904 51365324 51184004 51002380 50820576 50638400 
3408.867 50455368 50271228 50085748 49898532 49709456 49518392 49325068 
3412.242 49130084 48934340 48738568 48544224 48351220 48158824 47966104 
3415.617 47771104 47572680 47370612 47165316 46957792 46749144 46539716 
3418.993 46329428 46117772 45904116 45688760 45472852 45258008 45045912 
3422.368 44837636 44633384 44432752 44234820 44038808 43844132 43651268 
3425.743 43460392 43271540 43084600 42898580 42712716 42526272 42338812 
3429.118 42150156 41960300 41768964 41575888 41380928 41183720 40985372 
3432.494 40787072 40590756 40398056 40210208 40027340 39848544 39672872 
3435.869 39498760 39325120 39151144 38976660 38801776 38626416 38450516 
3439.244 38273600 38095636 37916224 37735224 37553000 37369948 37186940 
3442.619 37004544 36823276 36643060 36463236 36282552 36099604 35913100 
3445.995 35722676 35529860 35337056 35147608 34964812 34790172 34623352 
3449.370 34462368 34304068 34145212 33984052 33820048 33654068 33487718 
3452.745 33321578 33155392 32987662 32816388 32639678 32457292 32270276 
3456.120 32081016 31892378 31707134 31526848 31352338 31183060 31017656 
3459.496 30855054 30693224 30530352 30365018 30195768 30022608 29845968 
3462.871 29667734 29489890 29314458 29142286 28973584 28807072 28641650 
3466.246 28476220 28310746 28145690 27981544 27818800 27656720 27494278 
3469.621 27330094 27163366 26994478 26824880 26656722 26491412 26330214 
3472.997 26172314 26016650 25861114 25704402 25545992 25386338 25226182 
3476.372 25067102 24909904 24754940 24602766 24453096 24305652 24159590 
3479.747 24013052 23864322 23711338 23552848 23388924 23221218 23052844 
3483.122 22887398 22727634 22575540 22430758 22291880 22156780 22023464 
3486.498 21890606 21757756 21624876 21492140 21359480 21226548 21093308 
3489.873 20959832 20826848 20695608 20566734 20440296 20316012 20192180 
3493.248 20067586 19940980 19812088 19681640 19551264 19422350 19296312 
3496.623 19174294 19056258 18942236 18831598 18723478 18617046 18511160 
3499.999 18404640 18296212 18185394 18071874 17956346 17839780 17723246 
3503.374 17607636 17493856 17382172 17272550 17165578 17061044 16958842 
3506.749 16858904 16760366 16662126 16563600 16464474 16365167 16266672 
3510.124 16170366 16077382 15988270 15902784 15820166 15739936 15661746 
3513.500 15585598 15511762 15440069 15369932 15299737 15227873 15152315 
3516.875 15072207 14988067 14900617 14812397 14725153 14639847 14556579 
3520.250 14474080 14390296 14303720 14212744 14117441 14018702 13918104 
3523.625 13817734 13719474 13623903 13530916 13439145 13346505 13251597 
3527.000 13153737 13053101 12951087 12849644 12750169 12653378 12558348 
3530.376 12463304 12366339 12265986 12161909 12055301 11948208 11842130 
3533.751 11738085 11635700 11533917 11430491 11324539 11216233 11106763 
3537.126 10998715 10894464 10795437 10702578 10614662 10530296 10447642 
3540.501 10365105 10281398 10195704 10107586 10016503 9922285 9824563 
3543.877 9723712 9620275 9515170 9409921 9306424 9206810 9113207 9027304 
3547.734 8949875 8880101 8815885 8752895 8686635 8612679 8528125 8432947 
3551.592 8329344 8222693 8119040 8023613 7939782 7867674 7804787 7747442 
3555.449 7691217 7632841 7570461 7503606 7432952 7359479 7284435 7208730 
3559.306 7132668 7056518 6980752 6905840 6833096 6764100 6700061 6641953 
3563.164 6588932 6538440 6486340 6426579 6353444 6262606 6153269 6029412 
3567.021 5899881 5775559 5666747 5580483 5518094 5476284 5448535 5427263 
3570.879 5405523 5377879 5341416 5294825 5239252 5176376 5109285 5041400 
3574.736 4975470 4914207 4858917 4809832 4765845 4725178 4685822 4646502 
3578.594 4606650 4566668 4527293 4489896 4454946 4422777 4393020 4364738 
3582.451 4337261 4308916 4278230 4242026 4196958 4138616 4063892 3970856 
3586.308 3861392 3741696 3621265 3510921 3420675 3355958 3316993 3299030 
3590.166 3294857 3295759 3294256 3284341 3262340 3226788 3178688 3120949 
3594.023 3057478 2993316 2932733 2879629 2835237 2799786 2771674 2747532 
3597.881 2723558 2696518 2663746 2623909 2577476 2526382 2473162 2420581 
3601.738 2370605 2324465 2282594 2244424 2209588 2177252 2146117 2114252 
3605.595 2078860 2036680 1984351 1920680 1846836 1767515 1689639 1621156 
3609.453 1566483 1527445 1500080 1478602 1456527 1429200 1395792 1359461 
3613.310 1325360 1298740 1282588 1276241 1275710 1274978 1267601 1248527 
3617.168 1214834 1166226 1104867 1036276 966866 904174 854903 823133 809721 
3621.507 811979 824527 840860 854804 862241 861178 852480 837740 817821 
3625.847 790900 752363 695476 614308 507844 384591 262136 161392 99181 80059 
3630.669 96066 132954 175480 212043 235978 246023 244664 236807 226497 
3635.008 216187 205612 193512 177767 157680 133418 105876 76513 46622 16666 
3639.830 -12623 -40123 -64142 -82661 -93858 -96806 -92401 -83025 -73153 
3644.170 -66561 -67024 -77294 -99026 -132681 -178721 -236910 -306646 -386369 
3648.509 -472896 -560332 -640505 -704057 -742230 -750235 -728404 -682587 
3652.367 -622870 -560431 -507184 -472896 -463794 -482196 -524791 -582569 
3656.224 -643251 -695423 -730917 -747985 -749441 -740907 -728999 -718017 
3660.082 -710872 -708953 -711533 -717653 -725592 -734027 -741172 -745637 
3663.939 -746530 -743289 -736408 -727576 -718811 -713452 -714742 -726121 
3667.796 -750731 -789727 -841253 -899419 -953841 -991761 -1003166 -984785 
3671.654 -941641 -885432 -832225 -798789 -798061 -837846 -915290 -1016554 
3675.511 -1117299 -1193470 -1232426 -1234706 -1212040 -1178799 -1146877 
3678.886 -1122058 -1104872 -1092115 -1079820 -1065244 -1047891 -1029347 
3682.262 -1011265 -994439 -977248 -957412 -932615 -902957 -871577 -844758 
3686.119 -829513 -832919 -858614 -905833 -968090 -1034966 -1096180 -1143638 
3689.977 -1173677 -1186696 -1184845 -1170273 -1145026 -1111350 -1071292 
3693.352 -1028058 -985447 -946766 -914827 -890855 -874983 -865988 -862285 
3697.209 -863012 -867774 -877430 -892971 -915125 -944055 -977711 -1012984 
3701.067 -1045709 -1071755 -1087983 -1092776 -1086364 -1070631 -1047593 
3704.442 -1019860 -989480 -958338 -927755 -899187 -873925 -852926 -838045 
3708.299 -830769 -833283 -847668 -875578 -917009 -970372 -1030239 -1088744 
3712.157 -1136566 -1165680 -1170967 -1152924 -1115812 -1067359 -1015562 
3715.532 -968190 -930797 -906032 -893996 -892574 -898493 -908413 -919853 
3719.389 -930995 -941179 -948882 -953213 -952585 -946072 -933938 -917836 
3723.247 -900841 -886523 -877694 -875512 -878521 -882654 -882853 -873296 
3727.104 -849983 -812282 -762870 -707729 -654070 -609999 -582370 -574958 
3730.962 -587996 -617510 -657047 -699227 -739716 -778945 -821212 -872139 
3734.819 -934467 -1005017 -1073936 -1128238 -1156328 -1153188 -1121496 
3738.194 -1069541 -1006108 -938732 -871378 -805602 -742561 -685730 -642325 
3742.052 -623367 -641233 -703825 -807454 -930995 -1040519 -1100510 -1094594 
3745.909 -1028950 -928053 -820021 -728139 -669983 -652779 -675408 -729230 
3749.767 -801369 -879645 -954403 -1019595 -1070565 -1102063 -1109466 
3753.142 -1090561 -1047990 -989050 -925044 -866848 -822667 -796341 -786948 
3756.999 -790289 -800542 -813142 -826206 -838872 -850347 -857622 -855406 
3760.857 -838210 -803121 -752219 -692148 -633425 -585911 -556659 -546996 
3764.714 -552721 -565395 -576348 -580286 -577870 -574793 -578830 -596202 
3768.572 -629190 -674416 -724269 -768493 -799186 -812481 -809108 -793497 
3772.429 -771900 -750036 -732108 -720531 -715833 -717124 -722846 -731083 
3776.286 -740841 -751426 -763366 -776960 -791943 -805866 -815457 -816086 
3780.144 -804047 -778581 -742098 -699823 -658238 -624028 -601529 -591801 
3784.001 -593621 -603382 -617146 -631274 -643979 -654897 -664590 -673357 
3787.859 -681198 -687748 -692578 -695555 -696978 -696978 -695357 -691552 
3791.716 -684506 -674151 -661348 -648214 -638288 -634153 -636965 -644740 
3795.573 -652416 -653342 -640670 -611654 -568506 -518436 -471903 -440459 
3799.431 -434865 -460782 -517212 -594183 -674284 -736309 -764788 -755196 
3803.288 -714080 -656286 -598749 -558479 -547658 -571815 -627072 -701113 
3807.146 -776100 -834341 -866054 -870651 -854315 -825015 -789627 -751293 
3811.003 -709747 -663466 -611985 -557652 -506588 -467402 -448337 -454328 
3814.861 -484050 -528232 -570921 -595738 -592893 -562251 -513340 -460881 
3818.718 -421359 -407920 -428344 -482130 -559306 -641861 -709052 -746530 
3822.575 -750566 -727775 -690362 -652250 -624227 -612547 -617775 -634814 
3826.433 -656319 -673589 -680900 -677129 -665484 -650794 -638255 -630844 
3830.290 -628263 -627271 -622771 -609867 -585547 -550041 -505927 -459028 
3834.148 -415931 -383158 -366274 -369221 -393189 -435891 -492126 -553515 
3838.005 -610496 -655492 -684142 -696250 -694695 -684341 -670347 -656750 
3841.863 -646162 -640141 -639082 -642159 -647122 -651224 -650530 -641696 
3845.720 -622473 -592628 -553085 -506291 -454890 -401465 -347403 -294031 
3849.577 -243930 -201540 -174481 -173653 -210184 -292408 -418844 -573734 
3853.435 -726154 -842972 -901800 -899320 -848793 -769849 -681859 -598055 
3857.292 -526214 -469884 -429039 -402590 -388322 -384184 -387396 -395010 
3861.150 -404113 -412852 -421326 -431455 -446185 -467302 -492887 -516517 
3865.007 -528696 -520786 -488816 -435858 -372531 -314096 -274528 -264726 
3868.865 -287044 -333399 -387098 -428609 -445689 -436321 -408085 -373160 
3872.722 -343265 -324790 -318036 -317573 -315586 -304924 -283402 -253401 
3876.579 -221212 -194817 -181172 -185113 -208329 -248434 -299660 -352634 
3880.437 -396963 -423346 -426556 -406695 -369585 -325684 -285786 -260785 
3884.294 -257110 -274296 -303633 -330684 -340517 -322671 -276680 -210350 
3888.152 -137749 -73518 -30581 -17096 -34391 -76300 -130660 -183291 -222106 
3892.491 -240354 -237771 -218464 -189452 -156960 -126156 -100782 -82893 
3896.349 -73451 -73186 -81568 -97635 -118703 -141426 -161332 -174680 -179648 
3900.688 -176601 -168752 -160769 -157358 -161597 -173918 -191240 -208760 
3904.546 -220583 -221941 -210979 -188524 -157888 -123042 -88193 -57152 
3908.403 -31940 -14181 -4241 -1590 -5069 -12855 -22828 -32602 -40123 -44629 
3913.225 -46087 -45855 -45821 -47842 -52845 -61127 -70867 -80276 -87332 
3917.564 -89982 -87862 -81104 -69874 -54833 -36280 -15009 8117 31080 51327 
3922.386 66836 75817 78137 75353 70249 66107 65643 69984 78567 88808 98154 
3927.690 104219 105113 100010 89073 72669 51427 26640 -563 -27997 -53176 
3932.512 -73087 -85378 -88525 -82661 -69045 -49863 -27069 -2551 22995 49041 
3937.334 75651 102263 128081 151548 171270 185756 193811 195369 190728 
3941.673 181214 168685 154862 142002 131562 124204 120160 118536 117807 
3946.013 116150 112272 105147 95171 83406 71641 61931 55834 54111 56795 
3950.835 63356 73066 85229 99247 114758 131230 147604 162818 175645 185291 
3955.656 191590 194739 195998 196363 197026 198451 200440 202131 202330 
3959.996 199844 194009 184894 173226 161094 150487 143626 142632 148200 
3964.336 159768 175778 193678 210253 223016 230806 233525 232862 230773 
3968.675 229679 231403 236276 243537 252190 260710 268402 275431 282261 
3973.015 289688 297811 306233 313295 317871 318534 315053 308488 300530 
3977.354 293335 288428 286273 286074 286074 284018 278249 268302 254709 
3981.694 239558 225171 213966 207435 206010 209192 215490 223679 232630 
3986.034 241647 250797 260743 271751 284349 298043 312466 326559 338994 
3990.373 348577 354745 356834 355076 350003 342674 334418 326791 320922 
3994.713 317573 317009 318534 321452 324569 327023 328316 328449 327288 
3999.052 325465 322911 319794 316014 
##END=
