
##TITLE=Z305_2_d
##JCAMP-DX=5.01  $$ Nicolet v. 1
##DATATYPE=INFRARED SPECTRUM
##ORIGIN=UniL
##OWNER=Nicolet
##LONGDATE=2011/09/08
##TIME=15:16:55
##SPECTROMETER/DATA SYSTEM=Nicolet iS5
##DATA PROCESSING=
Ratio against background
%Transmittance->Absorbance
Truncated
ElementMultiply or ElementDivide
##COMMENTS=
Number of sample scans: 32
Collection length: 51.19 sec
Sample gain: 2.0
Background collected on: Jeu Sep 08 15:10:49 2011 (GMT+02:00);
Number of background scans: 32
Background gain: 2.0
Sample spacing:  1.000
Number of scan points: 12415
Resolution points: 8192
Number of FFT points: 65536
Apodization: N-B fort;
Phase correction: Mertz;
Laser frequency: 15798.0 cm-1
Number of rejected sample scans: 0
Number of rejected background scans: 0
Bench serial number: ASB1000141;
##RESOLUTION=4.000
##XUNITS=1/CM
##YUNITS=ABSORBANCE
##FIRSTX=649.893372
##LASTX=4000.122314
##FIRSTY=0.134083
##MAXX=4000.122314
##MINX=649.893372
##MAXY=0.308700
##MINY=-0.000488
##XFACTOR=1.000000
##YFACTOR=1.000000E-009
##NPOINTS=6950
##DELTAX=0.482117
##ZPD=6100
##XYDATA=(X++(Y..Y))
649.893 134082704 134120104 134264800 134525664 134879328 135290352 
652.786 135735104 136219680 136775904 137443792 138241664 139152352 
655.679 140123408 141092960 142013376 142870816 143683920 144483824 
658.571 145288624 146087200 146840048 147498256 148028976 148426048 
661.464 148712112 148919728 149079280 149205312 149299040 149357632 
664.357 149380080 149366640 149306000 149161680 148857680 148285856 
667.250 147355824 146064672 144544592 143008368 141637392 140500064 
670.142 139556064 138706272 137841120 136882576 135794000 134589408 
673.035 133311632 132013128 130724224 129447208 128162160 126848488 
675.928 125503392 124147816 122816728 121543520 120345768 119219984 
678.820 118151112 117125528 116141888 115214456 114363160 113600856 
681.713 112924960 112317528 111754488 111218064 110705824 110230184 
684.606 109810568 109459696 109173944 108934320 108715128 108496736 
687.498 108275888 108066504 107892056 107773560 107718056 107715384 
690.391 107745064 107787912 107835736 107896096 107986712 108128856 
693.284 108336608 108612408 108950584 109343120 109786296 110281992 
696.177 110832784 111434408 112068616 112701776 113292496 113797296 
699.069 114184184 114436640 114549592 114524880 114364504 114068136 
701.962 113638216 113084512 112430272 111707256 110950320 110186152 
704.855 109424400 108658792 107873624 107054520 106196536 105307904 
707.747 104404912 103505600 102622656 101760736 100921048 100105592 99322808 
711.122 98586304 97910528 97302752 96758616 96260744 95783016 95294424 
714.497 94769992 94190328 93543592 92824400 92031936 91171256 90255344 
717.872 89307944 88362432 87454120 86616656 85871888 85226968 84674032 
721.247 84195320 83768488 83367560 82965528 82534816 82044928 81470240 
724.621 80795224 80021632 79171056 78282808 77404264 76574200 75816536 
727.996 75134680 74516352 73942968 73399928 72884176 72402232 71966056 
731.371 71583888 71256760 70977264 70734648 70519840 70330728 70171304 
734.746 70049312 69970088 69933880 69934776 69964632 70016800 70088552 
738.121 70180888 70295472 70430480 70579048 70730240 70872984 71000672 
741.496 71113416 71215680 71312280 71403496 71483096 71540056 71562952 
744.870 71545488 71487744 71394400 71267808 71103232 70884688 70589256 
748.245 70193968 69683488 69058024 68333360 67537040 66699452 65848940 
751.620 65008016 64191112 63408368 62666072 61966624 61308248 60684512 
754.995 60085872 59502380 58928472 58366540 57825324 57317976 56854916 
758.370 56440980 56073016 55741908 55437660 55153720 54889476 54649068 
761.744 54436848 54254536 54098536 53962024 53838536 53726176 53629856 
765.119 53559608 53526812 53539896 53601408 53708480 53855000 54034592 
768.494 54241548 54472604 54725092 54998300 55296440 55633388 56032980 
771.869 56527848 57149268 57909100 58783416 59699448 60545688 61180860 
775.244 61466824 61314052 60696592 59668656 58341984 56869116 55400284 
778.619 54049112 52889740 51945484 51202604 50625220 50172768 49811452 
781.993 49515492 49270988 49070580 48911348 48792992 48717032 48685712 
785.368 48700576 48761628 48866924 49012560 49195060 49412420 49666512 
788.743 49962316 50306792 50706392 51166744 51691360 52283392 52947868 
792.118 53691832 54523768 55450992 56475392 57590056 58775072 59999012 
795.493 61218628 62377944 63417568 64272628 64878920 65185040 65155512 
798.867 64781600 64082572 63105836 61920232 60599552 59223400 57862764 
802.242 56574160 55403484 54381152 53522952 52833760 52307796 51933496 
805.617 51695052 51577392 51567244 51652732 51823316 52065152 52358068 
808.992 52676584 52987620 53255352 53447852 53538544 53510360 53356836 
812.367 53079828 52688628 52197816 51627544 51001856 50345856 49685832 
815.742 49043128 48433376 47865988 47344448 46869232 46439668 46056868 
819.116 45722368 45438272 45204392 45018532 44875732 44770740 44699412 
822.491 44660888 44657548 44694672 44777904 44911412 45096272 45329720 
825.866 45604328 45908056 46223940 46531048 46803208 47013392 47137468 
829.241 47157340 47066560 46871264 46589472 46245460 45866404 45477636 
832.616 45097924 44741536 44417412 44130680 43883904 43676880 43506756 
835.990 43367492 43251004 43148856 43053316 42960068 42868296 42780280 
839.365 42700212 42632004 42579336 42544028 42527108 42528428 42547432 
842.740 42582328 42630688 42689536 42755964 42828436 42907140 42994416 
846.115 43093416 43206788 43335164 43476872 43628776 43786996 43949784 
849.490 44117624 44293888 44483116 44688836 44912880 45153804 45408692 
852.865 45673596 45945364 46222756 46505528 46795272 47093704 47403428 
856.239 47727536 48070024 48435488 48828104 49251056 49705820 50192036 
859.614 50709148 51257596 51840000 52460948 53124876 53832944 54580456 
862.989 55353908 56132816 56889056 57593272 58217088 58735240 59129384 
866.364 59388584 59510052 59500820 59378632 59171336 58911584 58635680 
869.739 58377496 58162272 58008232 57924816 57914592 57976080 58104656 
873.113 58293096 58530492 58802424 59091912 59380568 59652920 59898892 
876.488 60115284 60304752 60474388 60633188 60789536 60951544 61127876 
879.863 61327444 61560968 61839308 62170860 62560596 63008828 63511336 
883.238 64060876 64649224 65268128 65909020 66563092 67220744 67872280 
886.613 68510576 69132384 69741024 70344640 70954168 71579440 72225336 
889.987 72889856 73565296 74240960 74905912 75550576 76168768 76754224 
893.362 77299976 77797968 78238616 78613504 78916232 79143224 79291464 
896.737 79357808 79336208 79219408 79001472 78680728 78263448 77763728 
900.112 77202480 76602144 75984520 75368216 74767736 74195016 73661624 
903.487 73177176 72750840 72388408 72091296 71857008 71679704 71553968 
906.862 71475368 71442200 71455016 71514312 71619176 71766752 71952456 
910.236 72172192 72423368 72705480 73019128 73364344 73738184 74135192 
913.611 74547464 74967416 75390288 75815864 76247584 76691600 77156408 
916.986 77650792 78183824 78766568 79411032 80127456 80923064 81796048 
920.361 82733968 83711952 84697024 85653984 86549720 87362464 88083328 
923.736 88718040 89284208 89810256 90332808 90890056 91521240 92260200 
927.110 93126928 94122920 95223408 96378616 97508368 98510848 99279464 
930.485 99703520 99692304 99189936 98181320 96703384 94839520 92718264 
933.860 90485368 88286016 86252336 84476728 83013984 81884424 81080336 
937.235 80579680 80354368 80378848 80627192 81070360 81674304 82390984 
940.610 83161464 83922984 84609736 85166288 85555320 85759256 85784528 
943.985 85657936 85425496 85141096 84859744 84631872 84492824 84461720 
947.359 84542744 84728520 85006160 85362336 85788200 86277960 86828328 
950.734 87436168 88095912 88800320 89542752 90318288 91126464 91969072 
954.109 92849344 93768120 94723048 95708544 96718248 97747952 98797072 
957.484 99868000 100964360 102087792 103236592 104405592 105588336 106780512 
960.859 107981016 109191840 110415784 111654160 112904336 114161344 
963.751 115419888 116676840 117933832 119195432 120467400 121752800 
966.644 123051600 124361000 125679224 127008440 128356336 129734384 
969.537 131155488 132628176 134156344 135739408 137377104 139073344 
972.429 140838720 142688304 144639584 146705888 148894000 151204272 
975.322 153634032 156180672 158845392 161630608 164536336 167554592 
978.215 170666880 173845376 177054208 180257200 183420608 186509728 
981.108 189489168 192317984 194947520 197331216 199430496 201224320 
984.000 202714592 203923504 204886416 205639568 206216656 206646992 
986.893 206956352 207175360 207339920 207486784 207652352 207864080 
989.786 208137632 208481424 208900480 209401664 209997040 210699472 
992.678 211517904 212451216 213487152 214605232 215782176 217001392 
995.571 218252928 219531840 220832256 222140208 223430960 224675472 
998.464 225844016 226916624 227886768 228758816 229541792 230242736 
1001.356 230864208 231406128 231871056 232269984 232623008 232954336 
1004.249 233287392 233636304 234006224 234397568 234813504 235266832 
1007.142 235781824 236386608 237106704 237955248 238929200 240012544 
1010.035 241183328 242422752 243716944 245057120 246434224 247833616 
1012.927 249235888 250623072 251985344 253329040 254675744 256056432 
1015.820 257498320 259014576 260600448 262236512 263897888 265562688 
1018.713 267219968 268867264 270506240 272137184 273758816 275372416 
1021.605 276987968 278629856 280334112 282136544 284063360 286118720 
1024.498 288283616 290520224 292785312 295041088 297255616 299402080 
1027.391 301448320 303347104 305040704 306466336 307568320 308313056 
1030.284 308688800 308699680 308353696 307653472 306594208 305171488 
1033.177 303391232 301278752 298875552 296232928 293397632 290400512 
1036.070 287259328 283984768 280591584 277108832 273579680 270055008 
1038.963 266587648 263222160 259995584 256944928 254109088 251534544 
1041.856 249272640 247365232 245839488 244699440 243927712 243492544 
1044.750 243358560 243498080 243890160 244517872 245362080 246392864 
1047.643 247570352 248851936 250196192 251572160 252959456 254339696 
1050.536 255690016 256976688 258153344 259173632 259999360 260609056 
1053.429 260999856 261179872 261156048 260925264 260471104 259767296 
1056.322 258789152 257515824 255933760 254033392 251801872 249223008 
1059.215 246283664 242982448 239341520 235409312 231259728 226976064 
1062.108 222636960 218312096 214051872 209894448 205872752 202014512 
1065.001 198344800 194881696 191629808 188580144 185712064 183001792 
1067.894 180427696 177976848 175644256 173428864 171327792 169331920 
1070.787 167426144 165592528 163816144 162086880 160399936 158752720 
1073.680 157140048 155553248 153980208 152409872 150837888 149267776 
1076.573 147711296 146183136 144697056 143263136 141886896 140573248 
1079.466 139330096 138168640 137103184 136146640 135305504 134578752 
1082.359 133958328 133434968 133001704 132658928 132413448 132276696 
1085.252 132259680 132369728 132610816 132984056 133490920 134133192 
1088.146 134911600 135821312 136845936 137957920 139117328 140277760 
1091.039 141398336 142446384 143403792 144267136 145044640 145752576 
1093.932 146411824 147050064 147698432 148389456 149155424 150019184 
1096.825 150990032 152060656 153208704 154401264 155599088 156765232 
1099.718 157863760 158859280 159719568 160412592 160912256 161205360 
1102.611 161294656 161201760 160958960 160605744 160177056 159697808 
1105.504 159184704 158648112 158096688 157540512 156988064 156442432 
1108.397 155895040 155323904 154695488 153967504 153100224 152058832 
1111.290 150815328 149351088 147653328 145716848 143546864 141162800 
1114.183 138601456 135911248 133152368 130385400 127660528 125019592 
1117.076 122491168 120092344 117834248 115722016 113755224 111926888 
1119.969 110222920 108622536 107099248 105627296 104182648 102744216 
1122.862 101294328 99816752 98294608 96713248 95061552 93336952 91547704 
1126.238 89713856 87864720 86031448 84245680 82533616 80913368 79397504 
1129.613 77992024 76697336 75508864 74416288 73404680 72454568 71546856 
1132.988 70665080 69799032 68947096 68115656 67318120 66570780 65891936 
1136.363 65300128 64811556 64441396 64202404 64102120 64143136 64321236 
1139.739 64626380 65043308 65555104 66146448 66803432 67515488 68273216 
1143.114 69066256 69882896 70710160 71534664 72346688 73140744 73915944 
1146.489 74675176 75422728 76163552 76902128 77643264 78394168 79162664 
1149.864 79958376 80789072 81658624 82566672 83508056 84476328 85465032 
1153.240 86469656 87488000 88518048 89555864 90594792 91624336 92632544 
1156.615 93607288 94535672 95404776 96198800 96896472 97473408 97901816 
1159.990 98154160 98208648 98048000 97660944 97039960 96179728 95076280 
1163.365 93729432 92144736 90335952 88323416 86134592 83799112 81345632 
1166.740 78803664 76200792 73564512 70924280 68307840 65740792 63245556 
1170.116 60837712 58528176 56323724 54228408 52245496 50377856 48627376 
1173.491 46994932 45479584 44078784 42788176 41603272 40519312 39531640 
1176.866 38635580 37826240 37098112 36445976 35864692 35350784 34902472 
1180.241 34519948 34204540 33957608 33779828 33670536 33627964 33650092 
1183.617 33735384 33883844 34096608 34375716 34722688 35138372 35621420 
1186.992 36168884 36775096 37431740 38127796 38847864 39572508 40280220 
1190.367 40947320 41553428 42083232 42529196 42891452 43177400 43399056 
1193.742 43569648 43702232 43808252 43895492 43968848 44029640 44076032 
1197.118 44103756 44107208 44081388 44022968 43931124 43807888 43656656 
1200.493 43481192 43283912 43066084 42827780 42568808 42289064 41988328 
1203.868 41665336 41315984 40933268 40506728 40024252 39474668 38850400 
1207.243 38149352 37375656 36540756 35661128 34756428 33849348 32963068 
1210.619 32118048 31333640 30624632 30000808 29467514 29026116 28674532 
1213.994 28409110 28225664 28120696 28090896 28133458 28245042 28421314 
1217.369 28657434 28948048 29288618 29676460 30110066 30589436 31114820 
1220.744 31685640 32300360 32956812 33652632 34386224 35157056 35965180 
1224.120 36810796 37693120 38610300 39559332 40536300 41535596 42550500 
1227.495 43571368 44584696 45574444 46521756 47406312 48209620 48914684 
1230.870 49506876 49975180 50311556 50512724 50581700 50529920 50377596 
1234.245 50151720 49885964 49616144 49375884 49198732 49113500 49145188 
1237.621 49316568 49645340 50143984 50818268 51666016 52675912 53827472 
1240.996 55094512 56444376 57838840 59239388 60602292 61882252 63038132 
1244.371 64031460 64833908 65430628 65819712 66011764 66026464 65892556 
1247.746 65642968 65312840 64939484 64554988 64182700 63833028 63499556 
1251.122 63160056 62779196 62319420 61746328 61036920 60184736 59199248 
1254.497 58103632 56927624 55705856 54471176 53249548 52061824 50919552 
1257.872 49826316 48779496 47772548 46798000 45849796 44925372 44025940 
1261.247 43156104 42321752 41528484 40781064 40082532 39434900 38840252 
1264.623 38300416 37817564 37393636 37029552 36724576 36476928 36283704 
1267.998 36142452 36051176 36008772 36014424 36066768 36163052 36298872 
1271.373 36467488 36662596 36876908 37104612 37340808 37581216 37822368 
1274.748 38061456 38297088 38529444 38760548 38993368 39229508 39468352 
1278.124 39704348 39928088 40126140 40283964 40389440 40433148 40410788 
1281.499 40322792 40173820 39971680 39726572 39450680 39156764 38856924 
1284.874 38562356 38282104 38022792 37789872 37587468 37420148 37292316 
1288.249 37208092 37169976 37177588 37227692 37313364 37425960 37557300 
1291.625 37700276 37850676 38006916 38169540 38340296 38521876 38717980 
1295.000 38932804 39171812 39440956 39745884 40090964 40478648 40909856 
1298.375 41383952 41900596 42459660 43061880 43707364 44395060 45122372 
1301.750 45885036 46678304 47497932 48341072 49205484 50088876 50987548 
1305.125 51896492 52809176 53720104 54625884 55525648 56420340 57310680 
1308.501 58194928 59068036 59921712 60745976 61532140 62272192 62959836 
1311.876 63589156 64152584 64640528 65042920 65350512 65556496 65657772 
1315.251 65653532 65544120 65329828 65011324 64591280 64076432 63479500 
1318.626 62818484 62114048 61387892 60657688 59937080 59235704 58560292 
1322.002 57916748 57311660 56751404 56242664 55791332 55401676 55078484 
1325.377 54827220 54654856 54570276 54581920 54694988 54909104 55216440 
1328.752 55602844 56048172 56530792 57030308 57527184 58005012 58448980 
1332.127 58845636 59183832 59456020 59658432 59792032 59861280 59872268 
1335.503 59831312 59743740 59614264 59446560 59245580 59016676 58765588 
1338.878 58498228 58219552 57933332 57641816 57346032 57045836 56739432 
1342.253 56423096 56091868 55739684 55361212 54953660 54517980 54059132 
1345.628 53585472 53106864 52632184 52169940 51727452 51311808 50931664 
1349.004 50597336 50319404 50108508 49973024 49916556 49938228 50032428 
1352.379 50190252 50399624 50647672 50921568 51208156 51496020 51775716 
1355.754 52040944 52289708 52523504 52746240 52961080 53168388 53363840 
1359.129 53539480 53684256 53787716 53843184 53849788 53814232 53749840 
1362.505 53676460 53616888 53592932 53623672 53721604 53891832 54132128 
1365.880 54433240 54780156 55151464 55523468 55870424 56165808 56386004 
1369.255 56509092 56514712 56386536 56111740 55684160 55105344 54388024 
1372.630 53555748 52640376 51683260 50727392 49809928 48958780 48186628 
1376.006 47492316 46864728 46289288 45753660 45251388 44784880 44364416 
1379.381 44006248 43727260 43541736 43457464 43472660 43574004 43734336 
1382.756 43916092 44070200 44141276 44077316 43828924 43360060 42656348 
1386.131 41733068 40640600 39456196 38273888 37174340 36208860 35395968 
1389.507 34726244 34175252 33713900 33316534 32962530 32635286 32322776 
1392.882 32016308 31712730 31415808 31136818 30891164 30692192 30546276 
1396.257 30449810 30391988 30358160 30335242 30315984 30300280 30294168 
1399.632 30305680 30341174 30401086 30480446 30569988 30660260 30743828 
1403.008 30817206 30882054 30944388 31012922 31095882 31199260 31326092 
1406.383 31476010 31646862 31835790 32040458 32258674 32489430 32732274 
1409.758 32988340 33259724 33549960 33863248 34203284 34572220 34969984 
1413.133 35394712 35843028 36311660 36797924 37300584 37818792 38352024 
1416.509 38899468 39459644 40032828 40621752 41233488 41874656 42551156 
1419.884 43261728 43996200 44739260 45473736 46186052 46865540 47508060 
1423.259 48115216 48692644 49248312 49788972 50317992 50834580 51333884 
1426.634 51807968 52248224 52645240 52988856 53270824 53483712 53622888 
1430.010 53687336 53680360 53610440 53489748 53335444 53164756 52991624 
1433.385 52824628 52664728 52507984 52350404 52195836 52064216 51995044 
1436.760 52035528 52224456 52576980 53079644 53697796 54384080 55088904 
1440.135 55759048 56342096 56795544 57085400 57191976 57109324 56841164 
1443.510 56397892 55792844 55043732 54169960 53190856 52128100 51005176 
1446.886 49850880 48705876 47618376 46638276 45806788 45143620 44647448 
1450.261 44300200 44078268 43959460 43928192 43975596 44094256 44273636 
1453.636 44497576 44739812 44966896 45143692 45237452 45232816 45142404 
1457.011 45009492 44886424 44807364 44777060 44776800 44781244 44770188 
1460.387 44734856 44675428 44595124 44494016 44365588 44196300 43972000 
1463.762 43685928 43347100 42980440 42620304 42296188 42021032 41791324 
1467.137 41592260 41407168 41221792 41026372 40812224 40566056 40266512 
1470.512 39885300 39393424 38775836 38045356 37248416 36448604 35703288 
1473.888 35041096 34459860 33939300 33458694 33010148 32602388 32255214 
1477.263 31988308 31813506 31729910 31727556 31794004 31921618 32110948 
1480.638 32370504 32712124 33145342 33674512 34298152 35011932 35811976 
1484.013 36698288 37672668 38735188 39879596 41087376 42322592 43536280 
1487.389 44663532 45629132 46358848 46781508 46844248 46526992 45850572 
1490.764 44877240 43690912 42379136 41007876 39611560 38201308 36770260 
1494.139 35308376 33818868 32324206 30870814 29522940 28341126 27366724 
1497.514 26611664 26063758 25696142 25479088 25386830 25395858 25484534 
1500.890 25633118 25820884 26028716 26239324 26432744 26584716 26662958 
1504.265 26619344 26392850 25918124 25148828 24093670 22835778 21508608 
1507.640 20231822 19066056 18010844 17034680 16102483 15193043 14302419 
1511.015 13442528 12633695 11893242 11232315 10651198 10142486 9694335 
1514.391 9295016 8934688 8605818 8304486 8030971 7789000 7585532 7425908 
1518.248 7309909 7229921 7170327 7110000 7030217 6922202 6794962 6672772 
1522.105 6584828 6548363 6561246 6605685 6657631 6697974 6716650 6716852 
1525.963 6711266 6716516 6743773 6794625 6863021 6940349 7021058 7104578 
1529.820 7193941 7292151 7397630 7503673 7599492 7675669 7730206 7773381 
1533.678 7825906 7906814 8026482 8180082 8352954 8525794 8680990 8806654 
1537.535 8895218 8944361 8955049 8931914 8881150 8812436 8738899 8675446 
1541.393 8633837 8618932 8626233 8643504 8654996 8648912 8620993 8577565 
1545.250 8531471 8496059 8478185 8474098 8472037 8456968 8418319 8353663 
1549.107 8271760 8188320 8120222 8076438 8054970 8044945 8032929 8009404 
1552.965 7972279 7927735 7887210 7861196 7853706 7859610 7865886 7855528 
1556.822 7809106 7708046 7541600 7316682 7066992 6844641 6696124 6638655 
1560.680 6658843 6729303 6821013 6910284 6978664 7015670 7019913 6999170 
1564.537 6967957 6942705 6935332 6948429 6975499 7004120 7022203 7022035 
1568.395 7003750 6975163 6950079 6942773 6962132 7010585 7084909 7179119 
1572.252 7285850 7396787 7503336 7593827 7657526 7687338 7685011 7664777 
1576.109 7650647 7669026 7734085 7844562 7987534 8147467 8311714 8473793 
1579.967 8633804 8796003 8966043 9147959 9343087 9549751 9764680 9983546 
1583.824 10201573 10413228 10611132 10786809 10932519 11042896 11117505 
1587.199 11161766 11186822 11207222 11237993 11293557 11384365 11517347 
1590.575 11696250 11921133 12187976 12486458 12800638 13107019 13378385 
1593.950 13589577 13719542 13757742 13705111 13574637 13386894 13165043 
1597.325 12932278 12706940 12502281 12328056 12190464 12093082 12036769 
1600.700 12019566 12036905 12082316 12149880 12234256 12331772 12439913 
1604.076 12556609 12678896 12803504 12926270 13042959 13149708 13242032 
1607.451 13314526 13360651 13371996 13340629 13260752 13131095 12956993 
1610.826 12750545 12529290 12311524 12111889 11938502 11791023 11661872 
1614.201 11539123 11410489 11266829 11106491 10937514 10777977 10649500 
1617.577 10567707 10539155 10559016 10615376 10692084 10772373 10841296 
1620.952 10886480 10901566 10887805 10854953 10818162 10792923 10789696 
1624.327 10810383 10848667 10894872 10939451 10975708 11000856 11015775 
1627.702 11024067 11030966 11041129 11059143 11088101 11129572 11183321 
1631.078 11246868 11315696 11382426 11438144 11473048 11476893 11442771 
1634.453 11369297 11266046 11152077 11052582 10989437 10971732 10995554 
1637.828 11048232 11114819 11180873 11235579 11273799 11295428 11305596 
1641.203 11311411 11319607 11333415 11350795 11364774 11365590 11343142 
1644.579 11288830 11198824 11076680 10934354 10790681 10667430 10583528 
1647.954 10548763 10563531 10619178 10702069 10793127 10867217 10895654 
1651.329 10843572 10681286 10402469 10048918 9706160 9455533 9330662 9310893 
1655.187 9352600 9412969 9463253 9489025 9485807 9456988 9409210 9349316 
1659.044 9280832 9204407 9117268 9015769 8897214 8761685 8613152 8459502 
1662.901 8311409 8179102 8069856 7986386 7925879 7881541 7843652 7801481 
1666.759 7744136 7662652 7552220 7413639 7254414 7087434 6928666 6792000 
1670.616 6686231 6613523 6569454 6545067 6527004 6501004 6452978 6372912 
1674.474 6259984 6126452 5994506 5886882 5817398 5785095 5777909 5778312 
1678.331 5771563 5750611 5717305 5680679 5651674 5636737 5632810 5626432 
1682.188 5596727 5523229 5395358 5224563 5044618 4899496 4819247 4805611 
1686.046 4839584 4894972 4950937 4993904 5017970 5023668 5015121 4998093 
1689.903 4979089 4965247 4962633 4975805 5005869 5048641 5094467 5128127 
1693.761 5132955 5095473 5013780 4902612 4793182 4719518 4699353 4727222 
1697.618 4778006 4819582 4819280 4755025 4626610 4462946 4314036 4222854 
1701.476 4205323 4246409 4316780 4385991 4431480 4440886 4411597 4350581 
1705.333 4272575 4194650 4129450 4082521 4052353 4033290 4019144 4005198 
1709.190 3989448 3972127 3954840 3939258 3926385 3915920 3907127 3898769 
1713.048 3890043 3880348 3869617 3856478 3838159 3809646 3765459 3702529 
1716.905 3623637 3539448 3466230 3421343 3413662 3442483 3498061 3566674 
1720.763 3634128 3689062 3725956 3743702 3746208 3739791 3731436 3726457 
1724.620 3727025 3732974 3742264 3752725 3761382 3766061 3764423 3755600 
1728.478 3740593 3723182 3709179 3704367 3711719 3728462 3745607 3748180 
1732.335 3718737 3645021 3526887 3384208 3250756 3160865 3131328 3156226 
1736.192 3214804 3282504 3338796 3369015 3367312 3336258 3286444 3232095 
1740.050 3185831 3154924 3139838 3136601 3139905 3146146 3153456 3162267 
1743.907 3173181 3186432 3200985 3215171 3226521 3233364 3234833 3231027 
1747.765 3222348 3209430 3192707 3171846 3147081 3120048 3093951 3074429 
1751.622 3067722 3078267 3107233 3150986 3202620 3252291 3289382 3305474 
1755.479 3296126 3263642 3216106 3166272 3126088 3101626 3092149 3090848 
1759.337 3088311 3075698 3047935 3005927 2956418 2909182 2873992 2857416 
1763.194 2860217 2878762 2906280 2935268 2958886 2971330 2969295 2952748 
1767.052 2925627 2895072 2869756 2855915 2855214 2862785 2868889 2863052 
1770.909 2836904 2788581 2726126 2664979 2621809 2606342 2619275 2652544 
1774.767 2694985 2736528 2771841 2800253 2824497 2847810 2871757 2895106 
1778.624 2914486 2926761 2930698 2928563 2924960 2925227 2931732 2943141 
1782.481 2955250 2962790 2961555 2951347 2934801 2917588 2904979 2900243 
1786.339 2903845 2913552 2926761 2940505 2952782 2961889 2964991 2958786 
1790.196 2939137 2903611 2852713 2791849 2730927 2680448 2648544 2637677 
1794.054 2644444 2662246 2684316 2705820 2723991 2738062 2748032 2753467 
1797.911 2752967 2744865 2728159 2703286 2673581 2644044 2620109 2605442 
1801.769 2601442 2606442 2617242 2630009 2642277 2652645 2661079 2668213 
1805.626 2674981 2682116 2689450 2697118 2704520 2710722 2714656 2715656 
1809.483 2712855 2706820 2698952 2691517 2687116 2687616 2693551 2703653 
1813.341 2715589 2726526 2734261 2738196 2739529 2740663 2744764 2753934 
1817.198 2769306 2790015 2814093 2839072 2863019 2884832 2904412 2922225 
1821.056 2938137 2951214 2959020 2958052 2945109 2918422 2879796 2834870 
1824.913 2792282 2761537 2749033 2756268 2778477 2807723 2833402 2846743 
1828.771 2843808 2826265 2802120 2781311 2772975 2781411 2804655 2836704 
1832.628 2870523 2900476 2923392 2939671 2951514 2961922 2973132 2986376 
1836.485 3001357 3017972 3036190 3057011 3082204 3112940 3149317 3189669 
1840.343 3230493 3266847 3293622 3305908 3299899 3276061 3239206 3198715 
1844.200 3167306 3156993 3173882 3217675 3280668 3352219 3420976 3478153 
1848.058 3519873 3547064 3564302 3577465 3590661 3605094 3618425 3626911 
1851.915 3627479 3619260 3604392 3586518 3569079 3553745 3539916 3525117 
1855.772 3506979 3484667 3458849 3432063 3406315 3382639 3360333 3338195 
1859.630 3314956 3291151 3269251 3252425 3243278 3242410 3248185 3256765 
1863.487 3265078 3270820 3273457 3273257 3270152 3262340 3246850 3220145 
1867.345 3181125 3132062 3080603 3036657 3009764 3004860 3020708 3051238 
1871.202 3087744 3123252 3153722 3178721 3199549 3218309 3235801 3250890 
1875.060 3261071 3263809 3257833 3243679 3223650 3200551 3177320 3156459 
1878.917 3139438 3127390 3121483 3122084 3128591 3139004 3150018 3157627 
1882.774 3158896 3152554 3140005 3124587 3110236 3099925 3094218 3091615 
1886.632 3088879 3083172 3073061 3058746 3042863 3028883 3020074 3018706 
1890.489 3024745 3036824 3052239 3068089 3081504 3090414 3094118 3093017 
1894.347 3089313 3085808 3085475 3090113 3100091 3113740 3128892 3143443 
1898.204 3156760 3169710 3183761 3200084 3218843 3238171 3255263 3267648 
1902.062 3274358 3276128 3275761 3276195 3279333 3285476 3293121 3299965 
1905.919 3304406 3306008 3305708 3305207 3305441 3306142 3306275 3304506 
1909.776 3300433 3295057 3290050 3287479 3288480 3293021 3299965 3308579 
1913.634 3318328 3329981 3343938 3359231 3372888 3380068 3375994 3357995 
1917.491 3327377 3290317 3255363 3229425 3214637 3207661 3200851 3185564 
1921.349 3156693 3114642 3066154 3022309 2993282 2985442 2998854 3028282 
1925.206 3065086 3102394 3135166 3162000 3183561 3200885 3214771 3224918 
1929.063 3231227 3234198 3235734 3238638 3245081 3256431 3272222 3290050 
1932.921 3308846 3326642 3342736 3357327 3369716 3378632 3383240 3382605 
1936.778 3377830 3371586 3367846 3369282 3377263 3389618 3402508 3411792 
1940.636 3415098 3413261 3409755 3409321 3414297 3425217 3438609 3450131 
1944.493 3456845 3457713 3454674 3451167 3449931 3451868 3457012 3464293 
1948.351 3474312 3489443 3513426 3548734 3594403 3645656 3693740 3728896 
1952.208 3745105 3740259 3718804 3687592 3654210 3622902 3594536 3566641 
1956.065 3535974 3501034 3463792 3428189 3399870 3382338 3376528 3380602 
1959.923 3391054 3405313 3421677 3440012 3459517 3479289 3496457 3508549 
1963.780 3514228 3514061 3510987 3508182 3508182 3511054 3515564 3519940 
1967.638 3522812 3525585 3531063 3541586 3558155 3578400 3598880 3614382 
1971.495 3622534 3623169 3618625 3612745 3607934 3605862 3607433 3613847 
1975.353 3628081 3656014 3701894 3766763 3846483 3929829 4003293 4057169 
1979.210 4085933 4092288 4084762 4073758 4067069 4068373 4076200 4085197 
1983.067 4091318 4092187 4088007 4081652 4076100 4072688 4071818 4073390 
1986.925 4076869 4083926 4096235 4114632 4138548 4164474 4187490 4204185 
1990.782 4213218 4216263 4217835 4223055 4233627 4249855 4267656 4282748 
1994.640 4292619 4296969 4298308 4300182 4305335 4314069 4324611 4335019 
1998.497 4343453 4350146 4356605 4365039 4374411 4382510 4384686 4376553 
2002.354 4355702 4323641 4285659 4248684 4220278 4205088 4204553 4217400 
2006.212 4240654 4270768 4304733 4339135 4370461 4394493 4408417 4410994 
2010.069 4404334 4393422 4384050 4381707 4388133 4401790 4418291 4432986 
2013.927 4442426 4447347 4450427 4456117 4468236 4487820 4512729 4540719 
2017.784 4568443 4594059 4616630 4635417 4649148 4655779 4653301 4640575 
2021.642 4619979 4595566 4572829 4557494 4552639 4558398 4572897 4593222 
2025.499 4615759 4639302 4662545 4683410 4700492 4711110 4713623 4708732 
2029.356 4699956 4692353 4691717 4701196 4720723 4746584 4774488 4801021 
2033.214 4827121 4856404 4894101 4944770 5008652 5081460 5156358 5225067 
2037.071 5281979 5324443 5353156 5370566 5379825 5383146 5380865 5374491 
2040.929 5365467 5356075 5349902 5349969 5357718 5372545 5392707 5414346 
2044.786 5434611 5451789 5464875 5474941 5483498 5493027 5506920 5526216 
2048.644 5551620 5580382 5607602 5626869 5631937 5619887 5591995 5553902 
2052.501 5514739 5483733 5467190 5466519 5476888 5489941 5496819 5491182 
2056.358 5471452 5441388 5407301 5375833 5351747 5337189 5331554 5333298 
2060.216 5341080 5353860 5371371 5392472 5415286 5436490 5454172 5467090 
2064.073 5476451 5485008 5494940 5507323 5520578 5531316 5535780 5532189 
2067.931 5521719 5507624 5494873 5487189 5485981 5490444 5497557 5503866 
2071.788 5507994 5509906 5510578 5511819 5513631 5514873 5514168 5510376 
2075.646 5503833 5496618 5491484 5490578 5494135 5500343 5505846 5508027 
2079.503 5504973 5497021 5486786 5476921 5469741 5466117 5465345 5466184 
2083.360 5466888 5466586 5464774 5461822 5457862 5452594 5446085 5438134 
2087.218 5428605 5417769 5405691 5391969 5376034 5357852 5337323 5316023 
2091.075 5296167 5280000 5269167 5263936 5263063 5264673 5267088 5270073 
2094.933 5275205 5284394 5299387 5319512 5341918 5362045 5375162 5379221 
2098.790 5374592 5365266 5356175 5352485 5356813 5369660 5388715 5411293 
2102.647 5434644 5457359 5478498 5497658 5514235 5527592 5536954 5542794 
2106.505 5546686 5550915 5558298 5570213 5586256 5605387 5624788 5642913 
2110.362 5659060 5674300 5690313 5708106 5727981 5748126 5766325 5780562 
2114.220 5789258 5792885 5792616 5789729 5785766 5781099 5775693 5769447 
2118.077 5763303 5757930 5754942 5754707 5757326 5761523 5765855 5768608 
2121.935 5769749 5769682 5769682 5770656 5772805 5774988 5775794 5773645 
2125.792 5766996 5756084 5741042 5722576 5701727 5678530 5653152 5626164 
2129.649 5598473 5570817 5544942 5521853 5502389 5487424 5477726 5474438 
2133.507 5478766 5491417 5510980 5534370 5557224 5573904 5580986 5577529 
2137.364 5565212 5547895 5530108 5514839 5503698 5496115 5490947 5487927 
2141.222 5488263 5493497 5505276 5523866 5546452 5568937 5587531 5599513 
2145.079 5604346 5604111 5600554 5594646 5585114 5569306 5544606 5510108 
2148.937 5467895 5422398 5379288 5342992 5314011 5290398 5267323 5239755 
2152.794 5204007 5157834 5102144 5037478 4967526 4896513 4833520 4791942 
2156.651 4788425 4841125 4961829 5150625 5390695 5653084 5901862 6103433 
2160.509 6237833 6299114 6296694 6249530 6180256 6109415 6052427 6017586 
2164.366 6006063 6015033 6037106 6062339 6082264 6089690 6080853 6057164 
2168.224 6023533 5987149 5955404 5933671 5922889 5920873 5922552 5922452 
2172.081 5917750 5907539 5893667 5880098 5869956 5864582 5863709 5865086 
2175.938 5865052 5861626 5852391 5837581 5819380 5801280 5787512 5782610 
2179.796 5789863 5810179 5840973 5877848 5913249 5940960 5956915 5959938 
2183.653 5952683 5939683 5925878 5914928 5907774 5903239 5899242 5894271 
2187.511 5887756 5881341 5876975 5876639 5881744 5892592 5907975 5926650 
2191.368 5946401 5965078 5980061 5989366 5990777 5983790 5969244 5949357 
2195.226 5927457 5906564 5888797 5874422 5861962 5849939 5836036 5820387 
2199.083 5802925 5784692 5765317 5744634 5721267 5694879 5666814 5640195 
2202.940 5620323 5611899 5617940 5638013 5668426 5703238 5735771 5761658 
2206.798 5779924 5792112 5802388 5814745 5831334 5853096 5878217 5903441 
2210.655 5925744 5942303 5950432 5949626 5939885 5923056 5902366 5882281 
2214.513 5867403 5861190 5866127 5881576 5905893 5935552 5967329 5999411 
2218.370 6030655 6060255 6088245 6113447 6134080 6149203 6158378 6162444 
2222.228 6163990 6165738 6168225 6171586 6173064 6169468 6158747 6140466 
2226.085 6117009 6092815 6073931 6064019 6065934 6079945 6103803 6134316 
2229.942 6168426 6202506 6233664 6259144 6276994 6286137 6287146 6282272 
2233.800 6275447 6270875 6272220 6280893 6296256 6315453 6334414 6349981 
2237.657 6360270 6364910 6365885 6365481 6366120 6369281 6375535 6384176 
2241.515 6394331 6404755 6413767 6420391 6423956 6424797 6423855 6423115 
2245.372 6424831 6430312 6440804 6455298 6471778 6487685 6500230 6507731 
2249.229 6510186 6508673 6505477 6503560 6505579 6513617 6528854 6551491 
2253.087 6580555 6614297 6649792 6683438 6711535 6731658 6741822 6741956 
2256.944 6732971 6716381 6694038 6667725 6638790 6609319 6581228 6557244 
2260.802 6539651 6530502 6530031 6537297 6549406 6562962 6575308 6584491 
2264.659 6590412 6594415 6598553 6604003 6611539 6620656 6629841 6637512 
2268.517 6642222 6643265 6640842 6635358 6627889 6619613 6611606 6604676 
2272.374 6599461 6596198 6594179 6592834 6590917 6587687 6582977 6577158 
2276.231 6571405 6567167 6565115 6565653 6568243 6571742 6575240 6578402 
2280.089 6581464 6585534 6591555 6600605 6612413 6625904 6639328 6650465 
2283.946 6657194 6658708 6654536 6645553 6633340 6619344 6604911 6590580 
2287.804 6576350 6561448 6544932 6526331 6505780 6484759 6465253 6449648 
2291.661 6440031 6437576 6441712 6450859 6462630 6474300 6484019 6490645 
2295.519 6494715 6496766 6498347 6500398 6503123 6506655 6510422 6514054 
2299.376 6517149 6519738 6521891 6523775 6525625 6527239 6528585 6529425 
2303.233 6529459 6528719 6527004 6524380 6520950 6516947 6512776 6508773 
2307.091 6505477 6503258 6502215 6502383 6503123 6503964 6504099 6502518 
2310.948 6498919 6492865 6484524 6474636 6464110 6454592 6447597 6444671 
2314.806 6446386 6452944 6463538 6476789 6491251 6505410 6518360 6529628 
2318.663 6540357 6550953 6563467 6579041 6598217 6620286 6642962 6662443 
2322.521 6673882 6672436 6654704 6619546 6569084 6507899 6443090 6381822 
2326.378 6330044 6291886 6268254 6257497 6256152 6260690 6267682 6275649 
2330.235 6283953 6292861 6302711 6313267 6324026 6334045 6343189 6351730 
2334.093 6360370 6370222 6382058 6396012 6411850 6428731 6446521 6464580 
2337.950 6483313 6502585 6522093 6540997 6558454 6573188 6584693 6593002 
2341.808 6598486 6601951 6603196 6601783 6597207 6589235 6579647 6572213 
2345.665 6571876 6584626 6615004 6665101 6733711 6817344 6909948 7004692 
2349.522 7094912 7175346 7241780 7292454 7327937 7350515 7363557 7371139 
2353.380 7376229 7381048 7386575 7392743 7399551 7406494 7413235 7420279 
2357.237 7427627 7435682 7444918 7455603 7467974 7482031 7497403 7513180 
2361.095 7528182 7541398 7552018 7559975 7566010 7571472 7578013 7587488 
2364.952 7600503 7617599 7638135 7661337 7685787 7709902 7732500 7752266 
2368.810 7767917 7778778 7785289 7788426 7789978 7792711 7798412 7808667 
2372.667 7823814 7843449 7866459 7892136 7920244 7951323 7986623 8027428 
2376.524 8074345 8127581 8186193 8248966 8314584 8382105 8451258 8521841 
2380.382 8594159 8668179 8743699 8820315 8897248 8973485 9048279 9120685 
2384.239 9189786 9254566 9314345 9368445 9416490 9458377 9494274 9524213 
2388.097 9548396 9566856 9579693 9587383 9590669 9590804 9589212 9587179 
2391.954 9585554 9584537 9583622 9582031 9579016 9574172 9567567 9559946 
2395.812 9552359 9545957 9542062 9542095 9547074 9557812 9575087 9599036 
2399.669 9629151 9664418 9703347 9744551 9786470 9828257 9870014 9911980 
2403.526 9955033 10000159 10048410 10100532 10157206 10218738 10284756 
2406.902 10354654 10427583 10502290 10578096 10654424 10731344 10809364 
2410.277 10889232 10971155 11055063 11140179 11225582 11310085 11392563 
2413.652 11472573 11549875 11624026 11694310 11760213 11820747 11875534 
2417.027 11924640 11968542 12008257 12044740 12078671 12110049 12138670 
2420.403 12164327 12186750 12206549 12224202 12240493 12256204 12271541 
2423.778 12286709 12301230 12315444 12329488 12344112 12359793 12376975 
2427.153 12395930 12416796 12440084 12466407 12497234 12534031 12578403 
2430.528 12631375 12692917 12762521 12838859 12920331 13005881 13094350 
2433.904 13185706 13279370 13375139 13472638 13571390 13671224 13772209 
2437.279 13874963 13980445 14089888 14204357 14325088 14452636 14587417 
2440.654 14729061 14877540 15032039 15191842 15356647 15526013 15700599 
2444.029 15880994 16068134 16262647 16464716 16673522 16887564 17105396 
2447.405 17325306 17546394 17768356 17991020 18214314 18437516 18659588 
2450.780 18878486 19092854 19300954 19501982 19695820 19882704 20062764 
2454.155 20235988 20401156 20556416 20698770 20824866 20930660 21012758 
2457.530 21068230 21095152 21093170 21062666 21004830 20921340 20813256 
2460.906 20681256 20525812 20347158 20145704 19922628 19679560 19418816 
2464.281 19143304 18855750 18559118 18256470 17950614 17644800 17342720 
2467.656 17047878 16763775 16493659 16239773 16003601 15785357 15584533 
2471.031 15399969 15230138 15073717 14929697 14797209 14675695 14564322 
2474.406 14462536 14369027 14282969 14203261 14129421 14061036 13998101 
2477.782 13940445 13887792 13839318 13793483 13748269 13701863 13652725 
2481.157 13600517 13545956 13491265 13439282 13392908 13353989 13323477 
2484.532 13300483 13283094 13268746 13254739 13239129 13221332 13201691 
2487.907 13181539 13162515 13146156 13133656 13125289 13120542 13118424 
2491.283 13118015 13118015 13117776 13117639 13117947 13119586 13123274 
2494.658 13129387 13137754 13147692 13158348 13168663 13178567 13187960 
2498.033 13197490 13207908 13220102 13234072 13250231 13268165 13287228 
2501.408 13306838 13326347 13344421 13360651 13373978 13384502 13392600 
2504.784 13399708 13407636 13418367 13433028 13451722 13473424 13496290 
2508.159 13518131 13537137 13552212 13563083 13570023 13573270 13572894 
2511.534 13568757 13560860 13549238 13534573 13517448 13498751 13478756 
2514.909 13457190 13433370 13406372 13376164 13343362 13309571 13276535 
2518.285 13245584 13217711 13192640 13169858 13148649 13128602 13110434 
2521.660 13094930 13082876 13074510 13068979 13064813 13060340 13054432 
2525.035 13046545 13037565 13029029 13022576 13020015 13021790 13028516 
2528.410 13039955 13055559 13074476 13095852 13118596 13141511 13163164 
2531.786 13183008 13200223 13214841 13227309 13237660 13246063 13252519 
2535.161 13256857 13259625 13261948 13265501 13272435 13284598 13303046 
2538.536 13327884 13358328 13392362 13428482 13465016 13500528 13533958 
2541.911 13564724 13591901 13615423 13635082 13651734 13666949 13682097 
2545.287 13698648 13717764 13738864 13761573 13784557 13807233 13829159 
2548.662 13850777 13872603 13895421 13919301 13943627 13967613 13990539 
2552.037 14011550 14030646 14047996 14064013 14078969 14093207 14106659 
2555.412 14119255 14131304 14142874 14154136 14164850 14174298 14181830 
2558.788 14186246 14187274 14184671 14179125 14171423 14162728 14153861 
2562.163 14145133 14136747 14128223 14119289 14109500 14098513 14086260 
2565.538 14072706 14058024 14042076 14025375 14008402 13991531 13975654 
2568.913 13961249 13949136 13939864 13934253 13932816 13936477 13945406 
2572.289 13959332 13977434 13998410 14021132 14044232 14067127 14089545 
2575.664 14111657 14133563 14155471 14177380 14199118 14220619 14242120 
2579.039 14264376 14287729 14312521 14338615 14365533 14392522 14419307 
2582.414 14445819 14472812 14501075 14531670 14565145 14601501 14640053 
2585.790 14680116 14720800 14761351 14801186 14839584 14876031 14909670 
2589.165 14939813 14966529 14990605 15013346 15036704 15062087 15090629 
2592.540 15121916 15154785 15187656 15218573 15246953 15272830 15297404 
2595.915 15321876 15347860 15375802 15406183 15438284 15471313 15504929 
2599.291 15538856 15573921 15611323 15652368 15698263 15749486 15805906 
2602.666 15866112 15928185 15989680 16048571 16103446 16154306 16202075 
2606.041 16248750 16296806 16347997 16404012 16464991 16530486 16599158 
2609.416 16669702 16740151 16808926 16874266 16934724 16989126 17036782 
2612.792 17077758 17112876 17143242 17170266 17195086 17218044 17239142 
2616.167 17257932 17274000 17287272 17298032 17306858 17314512 17321548 
2619.542 17328064 17333788 17338410 17341858 17344340 17346548 17349306 
2622.917 17353238 17358858 17365722 17373410 17381654 17389760 17397932 
2626.292 17406520 17416348 17427974 17442148 17459154 17479126 17501928 
2629.668 17527386 17555332 17585830 17618678 17654014 17692010 17732424 
2633.043 17775054 17819344 17864880 17911318 17958072 18005212 18052704 
2636.418 18100892 18149912 18199940 18250596 18301812 18352826 18403500 
2639.793 18453420 18502446 18550648 18598334 18645442 18691654 18737142 
2643.169 18781840 18826026 18870112 18914374 18959230 19004608 19050234 
2646.544 19095520 19139806 19182642 19224374 19265346 19306532 19348934 
2649.919 19393314 19440090 19489470 19541076 19594522 19649224 19704764 
2653.294 19760902 19817568 19874898 19933418 19993644 20056310 20121792 
2656.670 20190202 20261262 20334484 20408970 20483748 20558396 20632538 
2660.045 20706242 20779540 20852850 20926764 21001700 21078352 21156898 
2663.420 21237856 21321266 21406538 21493326 21580684 21667992 21754690 
2666.795 21841092 21927616 22015168 22104586 22196148 22290102 22385820 
2670.171 22482468 22579276 22675442 22770548 22864520 22957466 23049768 
2673.546 23142194 23234956 23328646 23423334 23518674 23614102 23708994 
2676.921 23802470 23894252 23984338 24073218 24161692 24250782 24341116 
2680.296 24433328 24527416 24623382 24721160 24821100 24924222 25031228 
2683.672 25143492 25261824 25387042 25519496 25659020 25805378 25957834 
2687.047 26115480 26277128 26441512 26607790 26775328 26944236 27114832 
2690.422 27287860 27464310 27644398 27827882 28014764 28204130 28395880 
2693.797 28589838 28786360 28985520 29187290 29391138 29596110 29801572 
2697.173 30006560 30211290 30415904 30621326 30828232 31037406 31249034 
2700.548 31462758 31678726 31896476 32115802 32336518 32557956 32779008 
2703.923 32998386 33214260 33425306 33630152 33828320 34019380 34203212 
2707.298 34379304 34547144 34705856 34854468 34992144 35118364 35232656 
2710.674 35334720 35424588 35502136 35567728 35621564 35664292 35696596 
2714.049 35718720 35730916 35732680 35723148 35701092 35666344 35618148 
2717.424 35556972 35483368 35398232 35302444 35196792 35082264 34959964 
2720.799 34831096 34697496 34561384 34424996 34290368 34159300 34033108 
2724.175 33912680 33798452 33690764 33589660 33495340 33408094 33328340 
2727.550 33256504 33193302 33139300 33094920 33060022 33034350 33016834 
2730.925 33006500 33002104 33002890 33008148 33017978 33032670 33052728 
2734.300 33078510 33110298 33147774 33190906 33239048 33291348 33347086 
2737.676 33405018 33463668 33521720 33578028 33631472 33681672 33728080 
2741.051 33770912 33810020 33845264 33877000 33904944 33929448 33950732 
2744.426 33969292 33985628 34000428 34014044 34027300 34040776 34055436 
2747.801 34072240 34092164 34116180 34144820 34178120 34215116 34255016 
2751.177 34296500 34338708 34381348 34424420 34468504 34514640 34564076 
2754.552 34617896 34677072 34742180 34813720 34891772 34976016 35065988 
2757.927 35160684 35259208 35360384 35462984 35565676 35667028 35765848 
2761.302 35860808 35950924 36035012 36112096 36181344 36241776 36292492 
2764.677 36332732 36362092 36380324 36387528 36384324 36371172 36348944 
2768.053 36318140 36279384 36233496 36181380 36124592 36064572 36002936 
2771.428 35941640 35881644 35823956 35769340 35718180 35671092 35628936 
2774.803 35592468 35562224 35538344 35520368 35507640 35498396 35491528 
2778.178 35485416 35478692 35470028 35457804 35440544 35416784 35384896 
2781.554 35344280 35294248 35235496 35168624 35095048 35016028 34933176 
2784.929 34847648 34760916 34674240 34589048 34506100 34426396 34350220 
2788.304 34277500 34207980 34141592 34077900 34017376 33960620 33908492 
2791.679 33861888 33821484 33787960 33761312 33741152 33727004 33717876 
2795.055 33712216 33708776 33705592 33701332 33694384 33683464 33668100 
2798.430 33647548 33621772 33591060 33555584 33515778 33472184 33425126 
2801.805 33374778 33320826 33263228 33201526 33135436 33065066 32991164 
2805.180 32915204 32838828 32763824 32692190 32624890 32562674 32505784 
2808.556 32453972 32407168 32364826 32327060 32293688 32265064 32241296 
2811.931 32222488 32208926 32200612 32197796 32200790 32209534 32224092 
2815.306 32244366 32270058 32301184 32337304 32378498 32424408 32475040 
2818.681 32530318 32590032 32654182 32722916 32796554 32875638 32961066 
2822.057 33053550 33153892 33262442 33379394 33504326 33636272 33774240 
2825.432 33916588 34062060 34209704 34358252 34507104 34655364 34801912 
2828.807 34945244 35083300 35214040 35335188 35445220 35543740 35631204 
2832.182 35709008 35779088 35843640 35904388 35963124 36020652 36078288 
2835.558 36136872 36197944 36262380 36331148 36404320 36481432 36561696 
2838.933 36644248 36728396 36814152 36902376 36994300 37091652 37196144 
2842.308 37309608 37433328 37568860 37717804 37881116 38060332 38255980 
2845.683 38468220 38695848 38936940 39187512 39442044 39693712 39934156 
2849.059 40153976 40344568 40498252 40609676 40676916 40701148 40686668 
2852.434 40640128 40569840 40484504 40392676 40302104 40219620 40150416 
2855.809 40098592 40066468 40054804 40062912 40089036 40130248 40183708 
2859.184 40246048 40314500 40386388 40459736 40532956 40604728 40674368 
2862.560 40741508 40806108 40868428 40929116 40988540 41047568 41107080 
2865.935 41167912 41230756 41296376 41364820 41435780 41508980 41583540 
2869.310 41658776 41734344 41809896 41885272 41959756 42032496 42102256 
2872.685 42167752 42228184 42283256 42334320 42383084 42432332 42484464 
2876.061 42541692 42605392 42676340 42754760 42840724 42934244 43035424 
2879.436 43144208 43260304 43383056 43511888 43645920 43784904 43928556 
2882.811 44076728 44229388 44385848 44545080 44705692 44866072 45024928 
2886.186 45181340 45334980 45485656 45633400 45778220 45919696 46057308 
2889.562 46190400 46318848 46442468 46561956 46678304 46793316 46908804 
2892.937 47026908 47149472 47277872 47412848 47554564 47702760 47856180 
2896.312 48013288 48171968 48328924 48479720 48619040 48739976 48835664 
2899.687 48900108 48928812 48919620 48873520 48793696 48685080 48553116 
2903.063 48403556 48241164 48070208 47894364 47717328 47542032 47371316 
2906.438 47207204 47051128 46903672 46764828 46634660 46513200 46401060 
2909.813 46298868 46207316 46126648 46056572 45995384 45941016 45890192 
2913.188 45838676 45782120 45715484 45633696 45532456 45408140 45258780 
2916.563 45084104 44885396 44665552 44428236 44177736 43917848 43651600 
2919.939 43381516 43109008 42834580 42558176 42279348 41997456 41712312 
2923.314 41424116 41133780 40842908 40553576 40267784 39987848 39715348 
2926.689 39451732 39197920 38954660 38722584 38502032 38293648 38098024 
2930.064 37915648 37747076 37592668 37452760 37327412 37216680 37119948 
2933.440 37036696 36966192 36907604 36860284 36823420 36796444 36778232 
2936.815 36767556 36762908 36762400 36764348 36767448 36770804 36774160 
2940.190 36777472 36780972 36784616 36787536 36788260 36784436 36773004 
2943.565 36750396 36713108 36657372 36579864 36478408 36351248 36198484 
2946.941 36021836 35824172 35610020 35384504 35153212 34921288 34692972 
2950.316 34471264 34257884 34053104 33856116 33665488 33480022 33298682 
2953.691 33121240 32948266 32780796 32619640 32465544 32318528 32177992 
2957.066 32043346 31914380 31790904 31673842 31564404 31463650 31372462 
2960.442 31290766 31217878 31152588 31093392 31039506 30990184 30945278 
2963.817 30904504 30867612 30833816 30802052 30770824 30738566 30704246 
2967.192 30666270 30623672 30574752 30517732 30450698 30371874 30280064 
2970.567 30175096 30057902 29930730 29796000 29657160 29517374 29379404 
2973.943 29245624 29117592 28996396 28882564 28775526 28674320 28576992 
2977.318 28481030 28383500 28280934 28170188 28048516 27913804 27765074 
2980.693 27602414 27427496 27242630 27051496 26858224 26666588 26480354 
2984.068 26302720 26135892 25981578 25841210 25715688 25605982 25513170 
2987.444 25437558 25378786 25335544 25304496 25280264 25255926 25223162 
2990.819 25173512 25100170 24998446 24867308 24709550 24531588 24342308 
2994.194 24150974 23966376 23795262 23640938 23504474 23384624 23279002 
2997.569 23185254 23101622 23027094 22961240 22903744 22854008 22810598 
3000.945 22771630 22734864 22698170 22659872 22619346 22576658 22532682 
3004.320 22488748 22446352 22406684 22370714 22338762 22310786 22286474 
3007.695 22265128 22246366 22229764 22215258 22202984 22193288 22186698 
3011.070 22183246 22183246 22186314 22192138 22200122 22210096 22221884 
3014.446 22236078 22253202 22274372 22300218 22331400 22367854 22409090 
3017.821 22454168 22502008 22551704 22602276 22653206 22704244 22754590 
3021.196 22803544 22849748 22891904 22928440 22958410 22981256 22997466 
3024.571 23007772 23013642 23016646 23018010 23018708 23019616 23020944 
3027.947 23022762 23024822 23026744 23027758 23026952 23023948 23018184 
3031.322 23009696 22999108 22987056 22974688 22962532 22951318 22941294 
3034.697 22932594 22925260 22919568 22915584 22913454 22913210 22914608 
3038.072 22916878 22920300 22924212 22929066 22935004 22942760 22952506 
3041.448 22964628 22978602 22993972 23010148 23026430 23042502 23058154 
3044.823 23073564 23088868 23104558 23121438 23140028 23161278 23185602 
3048.198 23212900 23242926 23274632 23306864 23338610 23369484 23399242 
3051.573 23428440 23457222 23485690 23513602 23540290 23564602 23586290 
3054.948 23605182 23621974 23637684 23653218 23669314 23686460 23704656 
3058.324 23723972 23744584 23766878 23790956 23816962 23844230 23871884 
3061.699 23898384 23922366 23942986 23959968 23973694 23985212 23995754 
3065.074 24006294 24017674 24030526 24044920 24060820 24078048 24095912 
3068.449 24113774 24130692 24146244 24160396 24173428 24186284 24200052 
3071.825 24215746 24234034 24255442 24279898 24307580 24338698 24373218 
3075.200 24411140 24451696 24493656 24535514 24575906 24613636 24648808 
3078.575 24682126 24714706 24747680 24781810 24817102 24853236 24890044 
3081.950 24927380 24965772 25006096 25048252 25091744 25135206 25176812 
3085.326 25215050 25249288 25280474 25310432 25341622 25376046 25414266 
3088.701 25455582 25498166 25539984 25579728 25617124 25652974 25688900 
3092.076 25726270 25766138 25808472 25852640 25897724 25943132 25988402 
3095.451 26033854 26079944 26127446 26177098 26229610 26284978 26343382 
3098.827 26403904 26465634 26527090 26586758 26643300 26696712 26747242 
3102.202 26796508 26846168 26897596 26951500 27007982 27066130 27124814 
3105.577 27183330 27241360 27299044 27356810 27414898 27473170 27531062 
3108.952 27588008 27643514 27697580 27750912 27804496 27859040 27915536 
3112.328 27973946 28034132 28095314 28156756 28217780 28278140 28337732 
3115.703 28396870 28456194 28516200 28577948 28642182 28709502 28779740 
3119.078 28852358 28926018 28999548 29071462 29141118 29208554 29274262 
3122.453 29339238 29404362 29470174 29536772 29603810 29670784 29737166 
3125.829 29803132 29868754 29934776 30001874 30070366 30140574 30211930 
3129.204 30283972 30355850 30427062 30497294 30566682 30635940 30705776 
3132.579 30776904 30849612 30923646 30998652 31074102 31149312 31224608 
3135.954 31300522 31377804 31457308 31539284 31623378 31708806 31794324 
3139.330 31879004 31962200 32043810 32124222 32203860 32283158 32362472 
3142.705 32442010 32522208 32603710 32687404 32774222 32865058 32959670 
3146.080 33057522 33157072 33257328 33356674 33454508 33550784 33645976 
3149.455 33740504 33835164 33930344 34026228 34122988 34220816 34319664 
3152.831 34419616 34520344 34621452 34722440 34823088 34923264 35023388 
3156.206 35124112 35226116 35329904 35435836 35543668 35653324 35764736 
3159.581 35877864 35992860 36109684 36228056 36347324 36466696 36585236 
3162.956 36702472 36818732 36934484 37050372 37167664 37286392 37406424 
3166.332 37527280 37647768 37767464 37885996 38003660 38120920 38238644 
3169.707 38357308 38477272 38598460 38720304 38842212 38963576 39083924 
3173.082 39203144 39321052 39438052 39554180 39669388 39783284 39895288 
3176.457 40005324 40113236 40219764 40325992 40433296 40542704 40654720 
3179.833 40769384 40886012 41003760 41122232 41241396 41361828 41484080 
3183.208 41608704 41735184 41862688 41990228 42117224 42243484 42370408 
3186.583 42499228 42631016 42765984 42903044 43039816 43174220 43304300 
3189.958 43429632 43551660 43672664 43795424 43922400 44054468 44191604 
3193.333 44332820 44476544 44621888 44768168 44915560 45064364 45214692 
3196.709 45366244 45518620 45670944 45822068 45971260 46117880 46261788 
3200.084 46403492 46544324 46685388 46828672 46975656 47127608 47284448 
3203.459 47445892 47610464 47776836 47943680 48110184 48275712 48440044 
3206.834 48603140 48764924 48925104 49084232 49243040 49402580 49563848 
3210.210 49727736 49894032 50061804 50229600 50396052 50560372 50723260 
3213.585 50885948 51050640 51218892 51391692 51568736 51748800 51930284 
3216.960 52111436 52291316 52469512 52646100 52821524 52996420 53171312 
3220.335 53347284 53525200 53706080 53890336 54078496 54269816 54463364 
3223.711 54657748 54851920 55045048 55237132 55428400 55619304 55810096 
3227.086 56000712 56190996 56380728 56569476 56757596 56945152 57132560 
3230.461 57320620 57509708 57700540 57894224 58091288 58292304 58497356 
3233.836 58705728 58916216 59127636 59338820 59549500 59759864 59970480 
3237.212 60181808 60394036 60606484 60818388 61029252 61239076 61448956 
3240.587 61660624 61875908 62095928 62320800 62549344 62780388 63012512 
3243.962 63245444 63479884 63717328 63959204 64206400 64459236 64716324 
3247.337 64976424 65238216 65500968 65764620 66029972 66297492 66568004 
3250.713 66841304 67117024 67394152 67672008 67949840 68228040 68507088 
3254.088 68787904 69072080 69360184 69653064 69949760 70249312 70549456 
3257.463 70848448 71144480 71437200 71727112 72015808 72304424 72594120 
3260.838 72884688 73174504 73461376 73742784 74016752 74282440 74540224 
3264.214 74791072 75036760 75278248 75516280 75751128 75982080 76208416 
3267.589 76429256 76644040 76852688 77055704 77254168 77449088 77641880 
3270.964 77832808 78021680 78207272 78387336 78560176 78724104 78879240 
3274.339 79026072 79166528 79301720 79433112 79560872 79684376 79803136 
3277.715 79917592 80027896 80135904 80242952 80349984 80457040 80563128 
3281.090 80666608 80765648 80859272 80947104 81029672 81107896 81182984 
3284.465 81256008 81327768 81399096 81470280 81541552 81612600 81682544 
3287.840 81749888 81813056 81870816 81922864 81969600 82012784 82054128 
3291.216 82095672 82138472 82183472 82230360 82278888 82328872 82379368 
3294.591 82429648 82478728 82525320 82568072 82605776 82638240 82665336 
3297.966 82687864 82706584 82722536 82735968 82747352 82757296 82766152 
3301.341 82775096 82784520 82795144 82806568 82818512 82830504 82842456 
3304.717 82855640 82871800 82893256 82921776 82958144 83001792 83051448 
3308.092 83104928 83160864 83218328 83277288 83338296 83401936 83468264 
3311.467 83537776 83610920 83688488 83772344 83864256 83965912 84078456 
3314.842 84201832 84335240 84477488 84627320 84784016 84947168 85116672 
3318.218 85291840 85471768 85655432 85841328 86028832 86217912 86408928 
3321.593 86602336 86798144 86995816 87194272 87392768 87590632 87787736 
3324.968 87984352 88180464 88375224 88567360 88754824 88935624 89108680 
3328.343 89273464 89430224 89578960 89719320 89850720 89971632 90081096 
3331.719 90178792 90265016 90340552 90405752 90459896 90501200 90527360 
3335.094 90536464 90527848 90502624 90462840 90411552 90350592 90280544 
3338.469 90200808 90109512 90005264 89887552 89756632 89614344 89461808 
3341.844 89300576 89131224 88953720 88768120 88574264 88372264 88162192 
3345.219 87943176 87714456 87474712 87223184 86960432 86688336 86409336 
3348.595 86126832 85843384 85560648 85278896 84997784 84716360 84434224 
3351.970 84151120 83866912 83581632 83295352 83007448 82718048 82427760 
3355.345 82137512 81848936 81563264 81280784 81001152 80723344 80446272 
3358.720 80169776 79894608 79622400 79355384 79094960 78841176 78592696 
3362.096 78347536 78102864 77857104 77608760 77358216 77106032 76853480 
3365.471 76601512 76351304 76104096 75861320 75624600 75395208 75173872 
3368.846 74960320 74753376 74550848 74350536 74149808 73946936 73740624 
3372.221 73530288 73315736 73098000 72877904 72657568 72438560 72222552 
3375.597 72010448 71802080 71596200 71391160 71185040 70977152 70767248 
3378.972 70556128 70344872 70134152 69923920 69713480 69501120 69285832 
3382.347 69066688 68844200 68619568 68394784 68171864 67952200 67736984 
3385.722 67526440 67320640 67119192 66921152 66726192 66533432 66342348 
3389.098 66152276 65963052 65774412 65586628 65400080 65215572 65033920 
3392.473 64856188 64683252 64515972 64354120 64196916 64042600 63888720 
3395.848 63732752 63573084 63408792 63240388 63069164 62896832 62724336 
3399.223 62552480 62380544 62207600 62032936 61855816 61676436 61495300 
3402.599 61312560 61128296 60942012 60753068 60560924 60365480 60167116 
3405.974 59966676 59765188 59562424 59358536 59152432 58943688 58732284 
3409.349 58518512 58303440 58088292 57873932 57660924 57448892 57237296 
3412.724 57024980 56810916 56594464 56375028 56152460 55927144 55699528 
3416.100 55470452 55240560 55010372 54779856 54548408 54315172 54079400 
3419.475 53840936 53600808 53360356 53121956 52886976 52656312 52429732 
3422.850 52205776 51982532 51758808 51533852 51308044 51082356 50857824 
3426.225 50635088 50414400 50195160 49977000 49758836 49540932 49322728 
3429.601 49104264 48885428 48665772 48445044 48223392 48000816 47778352 
3432.976 47557004 47337724 47121588 46909540 46701696 46498224 46298724 
3436.351 46102072 45907060 45712024 45515900 45317620 45117332 44915780 
3439.726 44714468 44514388 44316640 44121252 43927936 43736092 43545032 
3443.102 43354460 43164080 42972760 42778672 42579844 42373808 42159608 
3446.477 41938256 41713008 41488932 41271420 41064104 40867736 40680408 
3449.852 40498216 40316172 40130792 39940004 39744360 39545356 39344668 
3453.227 39143168 38941180 38737796 38532668 38326148 38119328 37913836 
3456.603 37711224 37512252 37316436 37122836 36929900 36736908 36543420 
3459.978 36349088 36153796 35957944 35760704 35561864 35361676 35161188 
3463.353 34961616 34764328 34570176 34379160 34190380 34003008 33816180 
3466.728 33629896 33444378 33260298 33077578 32895688 32713160 32528960 
3470.104 32342408 32153514 31963878 31774718 31587460 31402200 31218308 
3473.479 31034596 30850074 30664634 30479272 30295626 30115358 29939284 
3476.854 29767186 29597884 29429324 29259588 29087192 28911320 28731982 
3480.229 28549638 28365214 28180866 27998436 27820640 27649518 27485984 
3483.604 27329920 27178992 27029986 26879514 26724442 26563898 26398236 
3486.980 26229434 26059960 25892132 25727078 25565390 25406432 25249780 
3490.355 25095150 24942926 24792614 24644354 24497090 24349806 24201418 
3493.730 24051398 23900100 23748364 23598116 23450472 23306864 23167568 
3497.105 23032404 22900600 22771596 22644408 22518272 22392204 22265512 
3500.481 22137150 22006766 21874194 21739816 21605094 21471148 21340026 
3503.856 21213398 21092090 20976940 20867590 20762474 20659502 20556520 
3507.231 20450714 20340318 20224568 20103954 19980496 19856516 19734584 
3510.606 19616258 19502604 19393592 19288970 19188460 19091954 18999694 
3513.982 18911260 18826026 18742574 18658896 18573470 18485018 18393336 
3517.357 18299080 18203188 18106866 18010222 17912838 17814440 17713822 
3520.732 17610640 17505100 17397864 17289686 17181572 17073828 16966490 
3524.107 16859042 16750861 16641228 16529419 16414955 16297804 16178621 
3527.483 16058404 15938805 15821541 15707642 15597618 15490439 15384727 
3530.858 15278459 15169882 15058726 14944820 14829367 14712849 14596052 
3534.233 14478705 14360396 14240135 14118023 13994337 13870687 13748372 
3537.608 13629236 13514679 13405689 13302465 13205346 13113576 13026093 
3540.984 12941427 12857084 12770574 12679510 12581813 12476705 12364191 
3544.359 12244549 12118942 11988807 11855886 11722972 11593943 11472198 
3547.734 11361474 11263224 11176962 11099217 11025256 10949747 10868474 
3551.109 10780253 10686141 10589232 10493668 10402062 10315632 10233121 
3554.485 10152661 10072147 9990462 9907573 9824325 9741433 9659675 9578338 
3558.342 9497051 9414763 9331610 9247898 9164541 9082823 9003726 8928127 
3562.199 8856463 8788564 8723482 8659424 8593280 8519948 8434636 8332823 
3566.057 8213509 8079543 7939175 7803776 7683595 7586105 7513045 7461165 
3569.914 7423447 7391968 7359985 7322882 7278000 7225103 7164904 7098852 
3573.772 7028365 6954961 6880054 6805294 6732130 6661669 6594583 6530637 
3577.629 6469659 6411144 6354621 6300190 6247513 6196221 6145674 6095066 
3581.487 6043860 5992524 5942404 5894809 5850846 5809742 5768742 5723080 
3585.344 5666344 5593572 5502356 5395089 5278826 5164305 5062854 4982005 
3589.201 4924495 4887935 4865686 4849803 4832213 4806951 4770133 4720723 
3593.059 4659966 4591280 4518956 4446811 4378394 4315408 4258020 4205891 
3596.916 4157716 4112424 4068975 4027003 3985803 3945210 3904653 3863766 
3600.774 3822549 3781302 3740794 3701961 3666072 3633928 3605495 3579736 
3604.631 3554347 3526153 3491480 3446625 3389017 3318796 3238672 3154190 
3608.489 3072995 3001957 2944942 2902277 2869623 2840973 2809924 2772207 
3612.346 2727192 2678015 2630843 2591175 2562844 2545679 2535981 2527082 
3616.203 2511985 2484625 2441572 2382398 2309942 2230703 2152311 2082189 
3620.061 2026393 1987480 1964646 1953996 1950934 1950434 1948737 1945275 
3623.918 1940882 1938053 1938985 1942846 1945242 1937587 1908100 1845871 
3627.776 1745225 1612010 1463907 1326723 1224436 1168618 1156425 1174997 
3631.633 1208122 1241217 1264378 1273317 1268997 1255605 1237827 1219485 
3635.490 1202075 1184266 1164498 1141076 1113836 1084139 1054245 1026179 
3639.348 1001138 979286 959627 940965 922635 905004 888635 875388 866059 
3643.688 860780 858854 857626 854040 844612 825722 794916 751068 694381 
3648.027 626585 550838 471886 395270 327885 276591 247084 241581 258588 
3652.367 292208 334318 374344 402367 410559 394175 353982 296617 233160 
3656.706 175579 132589 107964 100175 104219 114294 125264 133683 137826 
3661.046 136997 131893 123872 114791 107201 103721 106406 116680 134545 
3665.385 158310 185159 210418 229447 236111 224706 190529 132258 53415 
3669.725 -35087 -116947 -175972 -201077 -191306 -155238 -109229 -72358 
3673.583 -61856 -90015 -158484 -255322 -355978 -434203 -474021 -474683 
3677.440 -448436 -411793 -379219 -358693 -350880 -350814 -351840 -347403 
3681.297 -334127 -312275 -284230 -252871 -219755 -185246 -149640 -114463 
3685.155 -82992 -61094 -55032 -70569 -109527 -169116 -240685 -312639 -374319 
3689.494 -418877 -445060 -455916 -455519 -447145 -432548 -412389 -387329 
3693.352 -358726 -329095 -300653 -275488 -254659 -237307 -221941 -207303 
3697.209 -193227 -181271 -174448 -175972 -188723 -213264 -247606 -287077 
3701.067 -325486 -356508 -375279 -379881 -371340 -352800 -328168 -301415 
3704.924 -275289 -251845 -231512 -214390 -200050 -188160 -178323 -171136 
3708.781 -168188 -171368 -183291 -205846 -238963 -280091 -323400 -361375 
3712.639 -386568 -393487 -381073 -351972 -312838 -270057 -231214 -201540 
3716.496 -183788 -177992 -181370 -190213 -200679 -209952 -216907 -221577 
3720.354 -224954 -227471 -228564 -227107 -222106 -212834 -201143 -189949 
3724.211 -183026 -184517 -196076 -216212 -240784 -261944 -272011 -265388 
3728.069 -240354 -200215 -151661 -103962 -66196 -45126 -42972 -57351 -81833 
3732.408 -108036 -130329 -147885 -164611 -186769 -219358 -262209 -309163 
3736.266 -350350 -375610 -379417 -362765 -330684 -289627 -244195 -196837 
3740.123 -147587 -96641 -47478 -7024 12557 -2319 -61393 -163618 -290091 
3744.463 -407920 -480575 -488286 -434666 -340947 -234724 -139670 -74346 
3748.320 -48041 -61558 -107274 -173256 -245950 -314096 -370843 -411329 
3752.177 -431058 -427020 -398055 -346774 -279627 -206309 -136755 -79216 
3756.035 -38466 -16102 -10669 -18852 -37572 -64407 -96707 -130793 -161399 
3760.375 -181370 -184848 -169248 -137749 -97668 -59239 -32039 -21602 -27897 
3764.714 -45192 -64142 -75572 -74909 -62784 -45457 -30647 -24551 -29554 
3769.054 -43966 -62022 -76864 -83390 -79613 -66892 -48406 -27699 -7753 10238 
3773.875 26011 39928 52752 64682 75485 83837 88012 85560 74756 55204 28728 
3779.179 -563 -26407 -42873 -46650 -37638 -19316 2716 22664 36283 41817 
3784.001 40491 35388 29821 26408 25745 27402 30153 33135 36283 39762 44103 
3789.305 49206 54508 59943 65842 73663 85394 102495 124204 147869 167988 
3794.127 178562 175215 157116 128545 98485 78203 76082 95370 131694 174850 
3798.949 211446 227425 213104 165701 93481 12591 -54568 -89982 -86901 -49896 
3803.771 7123 67896 115586 138190 130170 95105 44998 -3313 -33331 -37009 
3808.592 -15307 23161 68327 111145 147206 176607 202860 229646 258721 287334 
3813.414 308786 315219 299270 259715 203590 146742 107400 99247 125529 
3817.754 178098 241647 296982 327255 321121 276226 201402 116647 45727 6229 
3822.575 4373 33996 81550 131628 171535 194275 199081 191556 179955 173988 
3827.397 179623 197092 222585 248742 268866 278017 275132 263296 248079 
3831.737 236077 232530 240155 258290 283686 310444 332760 344233 339690 
3836.076 316512 275099 220132 160265 105843 66637 48676 52487 73795 105975 
3840.898 140908 172032 195137 208131 211612 208231 201965 196794 196695 
3845.238 204916 222452 249471 284349 324868 369071 415401 462830 510497 
3849.577 556013 595097 619650 618788 580631 496001 365754 204584 43904 
3853.917 -81899 -148613 -151628 -103266 -24120 65941 153570 230641 294230 
3858.257 344763 384326 414771 437423 452847 461603 463958 460608 451254 
3862.596 435500 412748 383165 350169 320491 302785 305371 331433 377096 
3866.936 432216 481306 509237 504692 465219 399283 326028 267706 239293 
3871.275 244133 273375 312566 346455 365953 369303 362969 358160 365224 
3875.615 390693 433974 488670 544236 590385 618157 622471 602662 563777 
3879.955 515838 470824 440508 432216 446943 479117 518127 552297 569616 
3884.294 563279 533487 489267 445881 419745 422200 454240 508607 571706 
3888.634 628842 667733 680609 666273 630302 583849 539226 507081 493115 
3892.973 497262 515838 543439 574924 606179 634682 658972 678153 692058 
3897.313 700421 703441 702014 697302 691062 685288 680775 677556 674403 
3901.653 669027 658939 642745 621210 596822 573862 557174 550539 555350 
3905.992 570843 593869 620944 648984 675465 699525 720865 739352 755450 
3910.332 768926 779747 788078 794950 801124 807929 815531 822900 828146 
3914.671 828843 823332 811647 796111 780178 768494 764113 767797 777888 
3919.011 791199 804709 816062 824693 831233 836545 841060 844047 844512 
3923.351 841159 834320 825523 817290 812809 813639 819979 829673 839632 
3927.690 847400 851218 851019 848064 843649 838570 832992 826353 817589 
3932.030 807331 796941 789141 786817 791962 804908 823896 846504 869478 
3936.369 890495 908690 923897 937046 948967 959627 968460 973773 974039 
3940.709 967929 955376 938142 918950 901651 890163 887108 893715 908889 
3945.049 929907 953151 974504 990843 1000573 1003429 1000972 995525 989381 
3949.388 984367 981013 979419 978622 978456 978622 979352 981245 984301 
3953.728 988485 993234 997883 1001636 1004393 1006186 1007348 1008145 
3957.585 1008378 1007680 1005721 1002101 996854 990345 983470 976729 970984 
3961.925 967065 964807 965006 967962 973640 981943 992138 1003363 1014323 
3966.264 1024519 1033320 1041590 1050558 1061286 1074739 1090816 1108853 
3970.122 1126825 1142870 1155262 1162804 1165760 1164431 1160146 1154066 
3973.979 1147422 1140877 1135296 1131010 1127921 1126193 1125396 1125031 
3977.837 1124798 1124167 1122971 1121576 1120679 1120247 1121277 1124034 
3981.694 1128585 1135163 1143668 1153634 1164431 1175196 1184532 1191443 
3985.552 1195230 1195430 1192805 1188486 1183635 1179648 1177123 1176159 
3989.409 1176425 1177123 1178153 1179150 1180545 1182372 1184598 1187157 
3993.266 1188984 1189582 1188585 1186193 1183336 1181243 1181309 1184366 
3997.124 1190844 1200081 1210448 1220881 1229553 1235435 1238326 1238027 
##END=
