
##TITLE=Z305_1_e
##JCAMP-DX=5.01  $$ Nicolet v. 1
##DATATYPE=INFRARED SPECTRUM
##ORIGIN=UniL
##OWNER=Nicolet
##LONGDATE=2011/09/08
##TIME=14:40:10
##SPECTROMETER/DATA SYSTEM=Nicolet iS5
##DATA PROCESSING=
Ratio against background
%Transmittance->Absorbance
Truncated
ElementMultiply or ElementDivide
##COMMENTS=
Number of sample scans: 32
Collection length: 51.17 sec
Sample gain: 2.0
Background collected on: Jeu Sep 08 14:27:12 2011 (GMT+02:00);
Number of background scans: 32
Background gain: 2.0
Sample spacing:  1.000
Number of scan points: 12415
Resolution points: 8192
Number of FFT points: 65536
Apodization: N-B fort;
Phase correction: Mertz;
Laser frequency: 15798.0 cm-1
Number of rejected sample scans: 0
Number of rejected background scans: 0
Bench serial number: ASB1000141;
##RESOLUTION=4.000
##XUNITS=1/CM
##YUNITS=ABSORBANCE
##FIRSTX=649.893372
##LASTX=4000.122314
##FIRSTY=0.109424
##MAXX=4000.122314
##MINX=649.893372
##MAXY=0.229414
##MINY=-0.001110
##XFACTOR=1.000000
##YFACTOR=1.000000E-009
##NPOINTS=6950
##DELTAX=0.482117
##ZPD=6100
##XYDATA=(X++(Y..Y))
649.893 109423632 109559048 109769400 110040048 110338248 110633488 
652.786 110918368 111216136 111568864 112019088 112583024 113243768 
655.679 113955784 114670944 115357088 116011632 116653304 117304896 
658.571 117970872 118630288 119241952 119761576 120164392 120447592 
661.464 120627032 120722792 120750744 120721656 120651088 120572616 
664.357 120537584 120605728 120827504 121212608 121702496 122139336 
667.250 122300368 121971776 121076848 119734952 118182384 116637224 
670.142 115212080 113929248 112750784 111622888 110503640 109376912 
673.035 108248640 107134952 106045848 104976648 103913432 102843248 
675.928 101765472 100695040 99655672 98666104 97732640 96847232 95994576 
679.302 95163720 94357680 93593192 92893008 92272448 91731712 91255304 
682.677 90820256 90407104 90009544 89636096 89303832 89026640 88807024 
686.052 88632984 88483560 88339248 88188536 88031912 87878832 87738864 
689.427 87616456 87508712 87410352 87320408 87248384 87213024 87235096 
692.802 87329240 87495696 87721384 87983136 88259304 88538360 88821128 
696.177 89117144 89435144 89775536 90125576 90462512 90759488 90994560 
699.551 91155488 91237400 91239480 91159368 90991616 90731232 90378256 
702.926 89942904 89443976 88903504 88339248 87758536 87157496 86527000 
706.301 85860952 85161256 84441192 83718624 83011176 82328672 81671584 
709.676 81034664 80412904 79805808 79219328 78661912 78138960 77648104 
713.051 77178768 76714376 76238472 75740360 75216776 74670296 74105720 
716.425 73526680 72935048 72331624 71720232 71109088 70508968 69931592 
719.800 69384480 68868424 68377880 67903968 67438352 66974544 66508756 
723.175 66036844 65552912 65048584 64516388 63953368 63365160 62766260 
726.550 62177664 61617896 61099996 60626484 60191168 59783360 59393944 
729.925 59019712 58663400 58331600 58029852 57760864 57522608 57311396 
733.300 57124096 56960716 56824020 56717908 56643804 56599788 56580536 
736.674 56580044 56594656 56624436 56672076 56740148 56828060 56930420 
740.049 57037224 57137436 57222592 57288788 57336164 57366448 57379568 
743.424 57371816 57336464 57266596 57158452 57013000 56834932 56628516 
746.799 56393968 56125196 55811868 55442972 55012216 54522264 53984048 
750.174 53414612 52831252 52248412 51675388 51116868 50575224 50052060 
753.548 49549768 49070132 48613444 48177892 47759568 47354132 46958936 
756.923 46573980 46201456 45845160 45508468 45193476 44901340 44632100 
760.298 44385776 44162076 43959828 43776000 43605876 43444168 43287208 
763.673 43134804 42991452 42864240 42761160 42688040 42645636 42631016 
767.048 42638840 42664316 42704816 42760172 42830560 42914636 43008572 
770.423 43108016 43210488 43319680 43445340 43601372 43797660 44031916 
773.797 44283984 44516812 44680316 44724016 44613372 44336600 43909860 
777.172 43370240 42769240 42157928 41576216 41051392 40594396 40204788 
780.547 39873604 39589236 39339736 39114416 38905264 38707660 38520172 
783.922 38344532 38184520 38045140 37929964 37841456 37780220 37745668 
787.297 37737176 37754416 37797068 37864812 37956432 38070316 38204816 
790.671 38360096 38538532 38745732 38988696 39273972 39605972 39985196 
794.046 40407948 40866172 41349436 41844372 42333112 42795052 43204448 
797.421 43532284 43752620 43844132 43797512 43617380 43322532 42942692 
800.796 42511032 42062792 41628468 41230756 40885576 40600252 40374640 
804.171 40202284 40072864 39975968 39903204 39851340 39822212 39821232 
807.546 39852864 39917480 40007136 40107060 40196500 40253316 40259716 
810.920 40204024 40082280 39895940 39650548 39353628 39013052 38639240 
814.295 38244324 37841204 37443840 37063328 36706620 36376360 36071520 
817.670 35789848 35529608 35290908 35075364 34885024 34720536 34580832 
821.045 34463340 34365784 34286784 34227376 34189876 34177080 34190164 
824.420 34228488 34289080 34367648 34460508 34563212 34671620 34780372 
827.794 34881468 34965280 35022240 35044472 35028276 34975188 34891812 
831.169 34786580 34668892 34546996 34427328 34314860 34214504 34129620 
834.544 34062528 34012360 33974772 33941952 33904764 33855440 33790248 
837.919 33710568 33622168 33533104 33450964 33379968 33321504 33274568 
841.294 33237584 33209968 33193052 33189152 33200778 33228818 33272314 
844.669 33329234 33397250 33474692 33560988 33656104 33759952 33871412 
848.043 33988672 34109584 34232576 34357856 34486836 34621560 34763896 
851.418 34914608 35073388 35239480 35412504 35592648 35780888 35977884 
854.793 36183252 36395672 36612776 36832544 37054380 37280112 37512756 
858.168 37756296 38014256 38288040 38578144 38884680 39208112 39550292 
861.543 39913960 40301012 40711084 41139972 41579640 42018188 42442416 
864.917 42839080 43195884 43503644 43756320 43951728 44092424 44186836 
868.292 44248176 44292348 44337148 44398436 44487812 44612928 44777168 
871.667 44981192 45223992 45503132 45814264 46149240 46495648 46838820 
875.042 47161624 47449772 47693884 47891328 48045780 48166264 48264788 
878.417 48352776 48441564 48542036 48663068 48812900 48997576 49220072 
881.792 49480176 49774592 50098876 50448520 50820872 51215020 51631164 
885.166 52068624 52524812 52994544 53471760 53951336 54430048 54908016 
888.541 55386996 55869032 56354504 56841428 57325688 57803444 58271916 
891.916 58730232 59178136 59614832 60036636 60438092 60811376 61149316 
895.291 61447356 61702520 61913240 62076928 62187720 62237276 62216280 
898.666 62116992 61937160 61681132 61359688 60987156 60579896 60154520 
902.040 59724996 59304752 58905436 58536788 58206104 57917660 57671628 
905.415 57465568 57295516 57157884 57051352 56976392 56934572 56927736 
908.790 56955804 57017084 57108716 57227848 57372688 57542804 57737852 
912.165 57956164 58193560 58443980 58699548 58952988 59199932 59439380 
915.540 59673448 59906540 60144320 60392704 60657804 60946280 61265096 
918.914 61619956 62014436 62447300 62911772 63395524 63883544 64360620 
922.289 64813904 65236248 65625668 65985808 66324396 66652440 66984556 
925.664 67336072 67723464 68160320 68653568 69200568 69785344 70380440 
929.039 70945664 71433384 71796768 71989760 71977088 71738840 71273072 
932.414 70599752 69758728 68809912 67821216 66859624 65985844 65241484 
935.789 64649456 64216232 63936056 63797220 63787012 63894784 64109496 
939.163 64418108 64804248 65244144 65709920 66173652 66607900 66991164 
942.538 67310072 67558456 67738496 67859688 67938680 67996608 68056792 
945.913 68142952 68272976 68458096 68702120 69002168 69352608 69747752 
949.288 70184424 70661888 71180512 71739272 72335024 72961856 73613536 
952.663 74285072 74974696 75684072 76416296 77174536 77959192 78768512 
956.037 79599480 80449064 81316024 82200208 83102480 84021752 84955432 
959.412 85899512 86849864 87804808 88765432 89734920 90716328 91709984 
962.787 92713224 93720920 94727504 95730264 96730336 97732016 98740296 
966.162 99758344 100786384 101822056 102863480 103911880 104972384 106053592 
969.537 107165144 108314072 109504160 110736776 112012648 113336368 
972.429 114716560 116164608 117692456 119308280 121015456 122812504 
975.322 124696488 126665848 128721448 130865456 133097168 135409184 
978.215 137785600 140203760 142635744 145054720 147436544 149757168 
981.108 151992208 154111952 156080864 157864464 159434208 160775120 
984.000 161889264 162794016 163515808 164081168 164514080 164834128 
986.893 165059296 165210784 165314288 165396656 165484688 165598192 
989.786 165749104 165944192 166188144 166488288 166856304 167304224 
992.678 167840880 168466912 169173808 169946528 170768432 171626944 
995.571 172515488 173430096 174365312 175309040 176240752 177136752 
998.464 177973856 178737760 179424720 180039888 180591184 181083760 
1001.356 181517856 181890064 182198432 182447712 182649952 182822192 
1004.249 182982128 183142080 183307760 183482384 183670752 183884832 
1007.142 184144752 184473520 184891232 185408512 186023616 186724112 
1010.035 187492944 188315296 189179728 190078480 191004032 191944912 
1012.927 192886592 193816032 194726336 195622480 196519968 197440752 
1015.820 198401792 199409232 200454096 201516224 202571712 203600096 
1018.713 204591280 205544432 206465072 207360192 208238288 209109984 
1021.605 209990752 210904640 211880784 212944624 214112432 215383024 
1024.498 216738784 218148656 219579808 221004288 222400064 223749808 
1027.391 225033008 226219008 227270288 228145104 228806448 229232304 
1030.284 229414464 229355632 229060080 228528096 227753632 226730688 
1033.177 225459120 223952384 222235344 220340960 218301040 216139344 
1036.070 213873600 211518896 209094992 206633344 204174528 201762976 
1038.963 199442672 197247504 195202576 193329040 191645872 190176688 
1041.856 188946848 187977792 187281824 186856912 186687632 186748704 
1044.750 187012736 187457440 188064992 188820864 189709904 190710224 
1047.643 191794880 192935888 194107008 195289728 196471968 197641792 
1050.536 198783056 199870672 200870000 201747312 202474944 203038000 
1053.429 203434944 203671120 203750576 203669088 203412208 202958608 
1056.322 202288880 201387472 200244896 198855216 197210624 195300928 
1059.215 193117888 190661952 187951024 185022160 181931680 178742304 
1062.108 175513200 172296864 169130720 166042976 163057856 160195776 
1065.001 157475184 154909152 152501088 150243296 148119360 146109936 
1067.894 144196880 142368528 140618912 138944928 137342416 135802976 
1070.787 134314320 132863280 131439672 130037528 128654776 127289968 
1073.680 125939160 124594280 123244832 121881712 120502336 119112648 
1076.573 117727168 116364168 115042600 113778824 112584704 111470040 
1079.466 110444288 109516616 108695384 107985056 107383040 106879368 
1082.359 106458368 106104352 105804224 105552808 105352288 105210128 
1085.252 105135112 105134272 105212360 105372104 105616568 105949504 
1088.146 106374328 106891696 107495832 108173824 108905584 109667496 
1091.039 110438472 111201672 111947256 112671408 113373576 114054520 
1093.932 114716344 115363704 116004888 116651608 117318008 118015304 
1096.825 118748344 119513464 120299392 121090200 121868240 122618848 
1099.718 123328584 123983848 124569784 125068560 125461904 125737608 
1102.611 125891296 125930352 125870632 125733792 125540960 125307960 
1105.504 125046760 124765944 124472592 124174192 123875728 123577072 
1108.397 123268856 122931704 122539144 122059104 121462040 120722920 
1111.290 119821000 118741336 117473144 116010248 114355016 112521544 
1114.183 110538432 108444240 106286720 104114000 101965672 99873920 97860592 
1117.558 95938536 94117032 92401096 90792360 89287512 87877416 86547056 
1120.934 85276320 84044592 82832184 81621472 80398504 79151296 77868720 
1124.309 76543136 75170640 73754408 72304808 70840072 69383160 67956424 
1127.684 66580900 65272248 64040832 62893160 61832128 60857992 59967320 
1131.059 59152508 58401868 57699440 57028796 56375556 55730344 55090976 
1134.435 54462764 53857440 53289852 52776808 52335492 51980812 51725736 
1137.810 51580192 51549336 51633364 51827160 52120888 52501332 52954080 
1141.185 53465724 54023708 54617016 55235628 55868200 56503656 57131768 
1144.560 57743684 58335200 58906044 59459668 60001180 60535824 61068532 
1147.936 61603496 62146124 62703624 63284464 63897588 64549528 65242408 
1151.311 65973424 66735776 67521944 68325056 69141160 69968688 70806328 
1154.686 71651016 72496776 73334408 74153384 74943464 75694840 76397808 
1158.061 77040736 77607528 78079032 78432864 78646144 78700312 78580904 
1161.437 78277928 77785248 77098152 76213856 75132312 73858512 72403680 
1164.812 70784416 69022328 67140304 65159744 63102120 60987500 58836000 
1168.187 56670076 54511896 52382740 50302252 48285008 46341924 44480688 
1171.562 42706388 41023024 39433952 37941536 36546848 35249224 34046864 
1174.938 32936222 31913132 30973638 30113086 29326688 28609550 27955852 
1178.313 27360230 26817726 26324898 25879964 25483408 25136786 24841800 
1181.688 24599890 24411070 24274222 24187508 24148836 24156578 24209650 
1185.063 24307334 24448716 24632432 24856360 25117582 25412192 25735656 
1188.438 26082582 26446090 26818324 27190492 27553690 27900164 28224920 
1191.814 28525186 28801584 29056724 29294218 29518154 29731738 29938042 
1195.189 30139048 30336058 30529144 30717084 30897246 31065700 31218448 
1198.564 31351164 31460620 31544164 31599394 31623416 31613544 31566612 
1201.939 31480358 31354438 31189966 30989046 30753468 30482934 30174138 
1205.315 29820984 29415532 28951058 28423684 27834310 27188728 26498104 
1208.690 25777214 25042494 24311680 23602698 22930638 22309670 21750510 
1212.065 21260090 20842596 20498822 20227344 20024558 19886380 19808310 
1215.440 19785558 19813926 19888842 20005476 20159380 20346324 20562774 
1218.816 20806166 21074806 21367242 21682376 22018618 22374412 22748690 
1222.191 23141216 23552672 23984268 24437602 24913132 25410296 25927200 
1225.566 26461442 27010098 27570426 28139644 28713964 29288264 29855834 
1228.941 30408940 30938660 31436824 31895694 32308002 32667256 32967392 
1232.317 33203282 33372384 33475942 33519932 33514562 33474262 33415358 
1235.692 33354208 33307518 33290666 33317640 33402440 33557120 33791932 
1239.067 34114388 34527912 35031868 35620916 36286552 37016812 37795948 
1242.442 38606428 39426404 40231180 40996548 41697872 42315360 42836080 
1245.818 43253788 43568952 43787288 43918768 43975448 43971120 43921044 
1249.193 43839368 43737304 43620972 43489652 43335092 43143548 42900228 
1252.568 42592016 42211276 41757508 41237096 40661960 40046052 39404892 
1255.943 38753084 38102364 37462040 36837920 36231692 35642136 35065952 
1259.319 34499392 33939800 33386658 32841864 32309390 31793684 31298920 
1262.694 30828446 30384952 29970772 29588948 29243038 28936608 28672866 
1266.069 28453330 28277892 28144910 28051980 27996704 27977550 27994054 
1269.444 28046078 28132678 28252290 28401434 28575400 28769048 28976736 
1272.820 29193280 29413972 29634066 29849482 30057122 30255944 30447286 
1276.195 30634766 30823252 31015912 31213108 31409752 31596828 31761314 
1279.570 31889134 31969048 31993016 31958208 31866488 31723886 31539246 
1282.945 31323030 31087200 30843172 30601274 30370276 30156130 29962962 
1286.321 29793586 29650278 29535992 29454358 29408796 29401456 29431948 
1289.696 29497196 29590898 29705270 29833228 29968786 30108576 30251610 
1293.071 30398420 30550436 30709866 30879350 31062320 31262814 31486056 
1296.446 31736076 32016094 32328024 32671970 33047904 33456296 33898460 
1299.822 34376112 34891308 35444068 36032424 36652432 37299032 37967208 
1303.197 38653040 39353956 40067960 40793044 41525932 42262988 43000596 
1306.572 43736532 44469568 45199944 45927132 46649048 47361524 48058364 
1309.947 48732268 49376556 49985068 50551736 51070468 51533256 51930808 
1313.323 52254916 52498416 52657396 52730940 52720056 52625680 52447976 
1316.698 52186832 51843064 51421380 50931476 50388092 49808368 49210864 
1320.073 48610848 48019876 47446372 46894996 46370092 45875428 45414908 
1323.448 44992364 44611352 44275032 43987144 43752328 43576316 43465956 
1326.823 43427800 43465520 43579248 43764456 44012628 44311648 44648808 
1330.199 45011144 45385408 45758888 46118544 46450952 46744720 46990460 
1333.574 47182492 47318772 47399916 47428040 47405424 47334180 47216656 
1336.949 47055820 46855432 46619760 46352692 46057492 45736320 45391328 
1340.324 45024960 44640616 44242488 43834824 43420696 43001660 42578528 
1343.700 42152124 41724644 41300496 40885936 40488176 40114328 39769268 
1347.075 39456704 39179684 38941104 38745404 38598424 38505728 38472092 
1350.450 38499100 38584556 38722328 38903884 39119852 39361136 39619800 
1353.825 39889440 40163284 40435912 40701732 40956680 41199024 41429108 
1357.201 41648380 41857904 42056108 42237864 42395684 42520276 42603600 
1360.576 42641176 42633060 42584816 42506648 42413408 42322224 42249876 
1363.951 42212044 42219312 42276536 42381620 42526196 42696520 42874296 
1367.326 43041428 43180880 43278348 43324184 43310820 43231644 43080172 
1370.702 42849904 42535296 42134236 41649656 41091016 40473120 39817712 
1374.077 39149912 38493164 37867668 37284984 36747544 36250100 35782760 
1377.452 35334972 34898596 34471376 34056760 33663768 33303152 32984768 
1380.827 32715126 32494966 32319386 32177564 32054298 31929676 31780530 
1384.203 31584572 31318828 30965238 30514676 29971944 29358096 28708158 
1387.578 28065482 27467734 26938808 26487080 26107354 25787762 25513944 
1390.953 25273204 25054570 24848360 24646458 24442054 24232038 24017918 
1394.328 23807616 23612808 23444352 23309032 23206294 23130138 23071468 
1397.704 23022272 22978462 22940804 22914432 22905142 22917330 22950866 
1401.079 23002008 23064480 23132270 23200876 23268130 23334694 23403122 
1404.454 23477156 23560054 23654724 23763166 23886236 24024504 24177420 
1407.829 24344164 24522928 24711410 24908324 25113334 25328274 25556780 
1411.205 25803690 26073436 26368694 26689700 27034216 27398874 27779486 
1414.580 28172594 28576144 28988356 29408938 29837842 30276122 30726332 
1417.955 31193420 31683750 32200970 32745208 33309876 33882484 34449172 
1421.330 34997492 35519108 36008628 36464388 36887300 37279712 37644592 
1424.706 37984168 38299800 38590712 38854564 39086824 39281732 39432648 
1428.081 39533020 39578492 39567860 39503696 39391756 39240280 39058620 
1431.456 38856672 38644636 38431624 38223848 38024132 37830720 37638340 
1434.831 37441672 37240040 37042616 36872508 36759880 36732040 36802612 
1438.207 36967060 37206936 37495668 37805668 38108332 38376564 38588756 
1441.582 38727728 38782320 38747216 38620696 38404072 38101208 37719464 
1444.957 37269064 36761536 36210336 35629260 35033484 34442536 33879148 
1448.332 33366766 32924890 32563958 32283910 32077022 31932708 31841102 
1451.708 31795610 31792794 31829086 31897652 31986528 32075308 32136388 
1455.083 32139882 32057222 31875226 31606738 31294718 30992034 30737108 
1458.458 30541228 30392592 30272142 30163518 30058648 29955578 29854806 
1461.833 29753666 29644816 29515884 29354234 29152174 28913340 28652622 
1465.208 28392378 28153044 27945288 27769914 27621022 27491170 27374170 
1468.584 27265668 27159874 27047086 26910992 26729836 26480248 26147222 
1471.959 25732632 25260420 24767568 24289640 23846714 23440958 23063466 
1475.334 22705012 22364120 22048700 21772630 21548022 21380502 21266494 
1478.709 21196176 21157592 21141972 21146078 21172378 21226548 21315386 
1482.085 21444516 21617910 21839106 22112464 22443456 22837594 23297704 
1485.460 23821862 24399890 25012134 25632168 26225528 26752774 27173842 
1488.835 27448074 27541476 27435014 27130492 26653130 26043176 25346750 
1492.210 24600450 23825326 23029748 22211840 21367728 20501324 19628008 
1495.586 18777032 17987946 17297790 16731406 16295636 15983628 15779860 
1498.961 15667345 15631175 15656834 15729664 15834942 15957195 16081715 
1502.336 16196024 16286727 16338468 16331416 16236505 16017869 15639076 
1505.711 15078656 14352212 13521618 12674870 11884932 11183117 10561698 
1509.087 9995277 9458580 8936650 8426392 7934754 7473839 7053756 6680578 
1512.944 6354150 6069462 5819514 5597398 5397505 5215945 5051121 4904321 
1516.802 4779312 4681200 4613415 4575039 4559838 4556054 4548353 4523576 
1520.659 4476572 4414944 4357643 4326017 4332576 4375382 4441187 4512361 
1524.516 4575006 4621385 4653502 4679994 4712684 4759849 4823703 4900937 
1528.374 4986631 5077403 5173258 5276143 5387608 5506383 5627305 5743090 
1532.231 5847588 5940120 6028203 6125747 6245496 6392986 6563635 6745893 
1536.089 6925198 7087906 7224126 7326488 7391125 7416908 7406056 7363961 
1539.946 7299531 7225844 7157224 7104813 7073593 7060458 7055407 7044462 
1543.803 7016108 6964758 6893822 6814113 6739129 6677819 6630917 6590580 
1547.661 6544629 6482371 6398635 6297366 6190138 6091807 6013017 5956345 
1551.518 5916238 5883389 5850174 5813503 5776767 5747589 5733588 5737080 
1555.376 5753633 5771630 5775659 5746683 5665740 5519470 5310153 5065972 
1559.233 4834458 4661640 4567472 4543766 4567438 4613315 4660167 4691516 
1563.091 4697545 4675674 4630795 4574571 4520463 4480087 4457256 4448485 
1566.948 4444367 4435196 4413003 4376084 4329229 4282915 4249621 4238111 
1570.805 4252164 4289976 4346230 4413940 4485042 4551233 4602900 4631231 
1574.663 4631264 4605177 4565597 4532650 4527795 4562382 4634881 4734189 
1578.520 4846989 4961862 5071738 5174700 5271884 5365836 5458299 5550042 
1582.378 5640329 5728183 5812831 5894070 5971797 6045170 6112137 6170308 
1586.235 6217564 6253564 6280793 6303955 6329304 6362455 6407916 6467943 
1590.093 6543351 6634517 6741552 6864333 7000786 7146512 7293095 7429817 
1593.950 7545477 7630750 7680560 7694960 7679109 7641069 7589679 7533408 
1597.807 7478795 7430862 7393686 7370432 7363018 7371713 7394967 7429548 
1601.665 7471817 7519349 7571405 7629199 7694522 7768423 7849623 7934652 
1605.522 8017977 8093350 8155738 8201151 8227725 8234546 8221579 8188692 
1609.380 8136595 8066885 7983619 7892743 7802494 7719952 7650241 7594333 
1613.237 7549355 7509033 7465244 7410875 7340473 7253909 7157156 7062546 
1617.094 6984220 6933581 6915502 6927959 6964119 7014323 7067699 7114345 
1620.952 7145366 7155304 7144120 7117680 7086997 7064095 7058943 7075344 
1624.809 7111111 7160120 7215232 7269947 7319479 7361703 7396382 7425908 
1628.667 7453749 7484525 7523192 7572956 7634965 7707743 7787043 7865177 
1632.524 7933201 7980953 7998469 7978995 7921627 7834914 7737323 7652097 
1636.382 7598818 7585229 7607348 7652670 7707878 7760091 7800705 7826480 
1640.239 7839164 7844630 7850230 7862377 7883465 7911132 7938196 7955001 
1644.096 7951458 7918421 7850973 7750883 7627682 7497908 7381621 7297071 
1647.954 7254178 7253943 7288647 7345427 7406662 7450378 7450918 7379700 
1651.811 7213076 6949843 6629706 6328060 6112809 6008683 5994305 6030857 
1655.669 6081894 6124032 6146078 6145271 6124772 6089589 6044565 5991987 
1659.526 5931017 5858872 5772469 5670104 5553063 5426156 5297810 5178623 
1663.384 5077839 5002049 4952143 4924361 4910990 4901440 4884618 4849334 
1667.241 4786984 4693224 4570184 4426961 4277728 4139451 4025264 3942267 
1671.098 3890143 3862696 3849726 3838594 3816899 3773681 3702596 3605628 
1674.956 3495355 3392123 3314722 3272890 3263809 3275427 3292186 3301668 
1678.813 3298696 3285342 3270619 3263575 3269484 3284608 3295892 3283205 
1682.671 3227122 3116844 2962123 2794517 2656345 2577876 2563444 2596642 
1686.528 2653078 2712822 2761370 2791849 2803387 2798952 2783846 2764738 
1690.385 2749233 2743964 2754134 2781078 2821329 2865921 2900676 2910083 
1694.243 2880997 2810391 2710955 2610342 2539980 2516884 2537347 2579009 
1698.100 2612375 2607342 2543046 2419181 2263209 2122343 2037279 2022631 
1701.958 2063645 2131932 2197666 2239195 2243991 2209555 2142987 2058851 
1705.815 1974266 1901943 1847435 1809836 1784050 1764854 1748020 1732085 
1709.673 1716616 1702379 1689506 1678163 1667586 1657342 1647064 1636854 
1713.530 1627142 1617530 1606556 1590992 1566051 1526879 1471820 1404334 
1717.387 1334733 1277471 1246234 1247696 1279930 1333869 1397653 1459519 
1721.245 1510221 1544469 1561096 1562492 1553115 1538517 1523122 1509656 
1725.102 1499415 1492234 1487679 1484720 1481794 1477438 1470191 1460217 
1728.960 1449146 1440802 1438475 1444326 1455430 1464439 1458821 1424346 
1732.817 1351351 1241183 1112872 996655 923266 906631 940300 1004459 1076366 
1737.157 1137090 1173103 1178817 1157222 1118653 1076798 1043716 1025449 
1741.014 1021098 1024984 1030696 1033652 1032855 1029966 1027973 1029700 
1744.872 1036243 1047037 1060456 1074606 1088291 1101279 1113803 1125728 
1748.729 1136525 1144697 1148983 1149415 1148385 1150877 1163269 1191011 
1752.586 1235468 1293954 1359960 1424579 1478236 1513480 1526547 1519531 
1756.444 1499515 1477206 1462411 1459718 1468296 1482027 1492633 1492333 
1760.301 1476474 1444991 1403171 1359361 1323100 1301697 1298141 1311435 
1764.159 1336827 1368535 1399814 1424413 1438309 1440137 1432757 1421953 
1768.016 1415504 1419194 1434286 1456094 1475477 1482027 1467232 1428934 
1771.874 1373554 1315091 1268698 1244340 1243609 1260157 1284848 1309208 
1775.731 1328883 1343574 1355506 1367172 1378906 1388279 1391271 1384390 
1779.588 1366674 1341779 1316187 1297477 1289966 1294020 1305586 1318846 
1783.446 1328584 1332240 1331044 1328983 1330977 1340582 1359162 1385819 
1787.303 1417864 1452737 1487014 1517037 1538052 1544636 1530936 1493298 
1791.161 1432491 1355971 1276806 1209318 1165428 1149282 1157488 1181309 
1795.018 1210614 1237229 1255605 1263846 1262650 1253844 1239522 1221180 
1798.875 1199849 1176724 1153933 1134067 1119716 1112540 1112806 1119184 
1802.733 1129648 1142206 1155727 1169947 1185230 1201776 1219253 1236997 
1806.590 1253279 1266804 1276042 1280528 1279963 1274879 1266106 1255106 
1810.448 1243177 1232610 1225167 1221612 1222110 1225034 1228357 1229254 
1814.305 1225998 1218123 1206627 1193968 1183269 1177355 1177522 1183701 
1818.163 1194167 1207192 1221080 1235335 1250554 1267601 1287008 1308012 
1822.020 1328385 1344072 1351418 1347662 1332805 1310504 1287573 1271655 
1825.877 1268233 1278036 1296812 1316819 1328152 1322868 1297876 1256469 
1829.735 1208521 1166624 1142305 1141076 1161242 1195363 1233807 1268000 
1833.592 1292425 1305386 1308809 1306782 1303293 1301299 1302129 1305951 
1837.450 1312731 1322469 1336328 1355107 1379072 1407127 1436447 1462710 
1841.307 1481162 1487246 1477704 1452038 1413775 1370164 1330512 1304223 
1845.165 1296912 1309042 1336694 1373056 1410883 1444093 1469459 1486748 
1849.022 1497886 1505799 1512781 1519365 1524386 1525948 1522690 1514876 
1852.879 1504369 1494361 1487446 1484853 1485950 1488443 1489906 1488876 
1856.737 1485451 1480963 1477339 1475477 1475410 1475277 1473582 1468628 
1860.594 1460483 1450210 1439738 1430729 1424513 1421720 1422418 1427039 
1864.452 1435616 1447584 1460948 1471886 1475410 1466700 1442730 1404534 
1868.309 1358032 1312133 1276640 1258363 1258895 1274845 1299471 1326590 
1872.167 1351251 1371261 1387083 1400346 1412811 1425177 1436746 1446054 
1876.024 1452038 1453634 1451540 1446586 1440270 1433787 1428136 1423715 
1879.881 1420623 1418761 1417332 1415637 1412313 1406894 1399515 1391504 
1883.739 1385387 1383991 1389110 1400877 1417166 1433455 1444359 1445722 
1887.596 1434818 1412013 1380202 1345036 1312764 1288604 1275842 1275078 
1891.454 1284084 1299138 1315456 1328518 1334932 1333536 1325560 1314426 
1895.311 1303957 1298141 1298839 1305586 1315789 1326191 1333636 1337026 
1899.168 1336860 1334932 1333736 1334799 1338488 1344271 1350819 1357533 
1903.026 1364114 1371028 1378241 1385554 1391537 1394429 1392501 1384756 
1906.883 1371493 1354209 1334799 1315124 1296646 1279963 1265275 1252847 
1910.741 1243410 1237827 1237030 1241748 1251717 1266073 1282854 1299205 
1914.598 1311900 1317384 1312498 1295350 1266671 1230451 1193503 1164066 
1918.456 1149847 1154199 1175694 1207790 1242114 1269728 1284350 1284350 
1922.313 1271556 1250920 1227992 1207059 1189549 1174598 1160777 1146425 
1926.170 1132007 1119051 1109816 1106528 1110381 1121509 1139149 1161774 
1930.028 1187655 1214302 1238558 1257067 1267069 1267468 1259626 1246832 
1933.885 1234405 1226098 1224104 1227394 1232544 1235169 1232478 1224137 
1937.743 1212973 1203005 1197789 1198121 1202473 1206959 1207557 1201510 
1941.600 1189084 1173069 1156558 1142206 1131210 1122672 1115032 1107790 
1945.458 1101744 1099054 1101777 1111112 1125961 1143070 1159182 1170611 
1949.315 1176126 1175993 1172339 1167222 1162338 1158086 1153368 1146658 
1953.172 1135927 1119948 1097924 1070188 1037439 1001404 964143 928347 
1957.030 895508 866889 841790 818784 795647 771813 748579 729494 719339 
1961.369 722890 742240 775996 818884 863668 902115 927151 934489 923299 
1965.709 896039 858257 817821 783166 761690 757109 769656 795182 825888 
1970.049 853409 871902 879339 877944 872499 867353 863834 859053 847135 
1974.388 823133 786983 743965 705930 685520 693220 731486 793954 867486 
1978.728 938939 998547 1043284 1075901 1102508 1128951 1158684 1191642 
1982.585 1226098 1259892 1292126 1322402 1350720 1376878 1399515 1416900 
1986.443 1429000 1436547 1442963 1452304 1466833 1487113 1510022 1530969 
1990.300 1545667 1552184 1551885 1548626 1547263 1550754 1558901 1569077 
1994.157 1577922 1582478 1582445 1579186 1576193 1576160 1579751 1586303 
1998.015 1593619 1598674 1599705 1595481 1584972 1567613 1542740 1510121 
2001.872 1470989 1427970 1385354 1347761 1318481 1298573 1286211 1278235 
2005.730 1271223 1263946 1257300 1253644 1255140 1261620 1270824 1279631 
2009.587 1285114 1287474 1289767 1296347 1311302 1335131 1364048 1390706 
2013.445 1408024 1410484 1397287 1371726 1341314 1313861 1295516 1290165 
2017.302 1297842 1316686 1343441 1374152 1404301 1429532 1446520 1453302 
2021.159 1450941 1443661 1436946 1437112 1447750 1468661 1495924 1524186 
2025.017 1547994 1564953 1576127 1585371 1596712 1613140 1634293 1658606 
2028.874 1683419 1707335 1730655 1754773 1781256 1809636 1838717 1864872 
2032.732 1885437 1899581 1909398 1917785 1929300 1946207 1969007 1995968 
2036.589 2024828 2053924 2083421 2114418 2148614 2187309 2229637 2274034 
2040.447 2317437 2357479 2391694 2419115 2439640 2454501 2465231 2475061 
2044.304 2487258 2505253 2531781 2567277 2610342 2657312 2703687 2744998 
2048.161 2779410 2805922 2825265 2838538 2845976 2847243 2842607 2833135 
2052.019 2821596 2813225 2812358 2822597 2843941 2872625 2901743 2924360 
2055.876 2934701 2931031 2915920 2894705 2874092 2859917 2855948 2863419 
2059.734 2881897 2909349 2943808 2982373 3022209 3060581 3094819 3123285 
2063.591 3145846 3164002 3179756 3195077 3210331 3224050 3233798 3236936 
2067.448 3232796 3222248 3209163 3197280 3190304 3189336 3193908 3201218 
2071.306 3209062 3215205 3220178 3225085 3231628 3240841 3252725 3265879 
2075.163 3279032 3291051 3301668 3311250 3320198 3328913 3336726 3342202 
2079.021 3344639 3343437 3338829 3332352 3325607 3320298 3317928 3319731 
2082.878 3326442 3338328 3355391 3376494 3399436 3421109 3438743 3449530 
2086.736 3452135 3446792 3435036 3418605 3399302 3378498 3357160 3335824 
2090.593 3316058 3299331 3287312 3281202 3280701 3283973 3288447 3291652 
2094.450 3292353 3291151 3289782 3290383 3294456 3301735 3310082 3316759 
2098.308 3320165 3319497 3316659 3314255 3315290 3321634 3333387 3349147 
2102.165 3366844 3384509 3400504 3414430 3425551 3433499 3438142 3439277 
2106.023 3437708 3434969 3433232 3434869 3440914 3451334 3464126 3477252 
2109.880 3488141 3495689 3500332 3503505 3506779 3511589 3517835 3524883 
2113.738 3531531 3537043 3541151 3544726 3548501 3553278 3558957 3564803 
2117.595 3569781 3572954 3573689 3572186 3568478 3562698 3554948 3545360 
2121.452 3534136 3522178 3511154 3502804 3498829 3499731 3504140 3510052 
2125.310 3513793 3511990 3501902 3482062 3452536 3414898 3371853 3326509 
2129.167 3282204 3241542 3206826 3179322 3159163 3146046 3138737 3136701 
2133.025 3138971 3145445 3155525 3168408 3182159 3194142 3200951 3200284 
2136.882 3190470 3171879 3146380 3116277 3084007 3051138 3019140 2987844 
2140.740 2957452 2928896 2903278 2881964 2865754 2855081 2848844 2845208 
2144.597 2842407 2838205 2831601 2822063 2810624 2798452 2787280 2778477 
2148.454 2772608 2768173 2761470 2747132 2718824 2671780 2603842 2518184 
2152.312 2420814 2321501 2229071 2149646 2084919 2031786 1985749 1942812 
2156.169 1903108 1871394 1856220 1866203 1905338 1970438 2052825 2138625 
2160.027 2215782 2276033 2317403 2341988 2355280 2362776 2370405 2382565 
2163.884 2402855 2434009 2477260 2531281 2592242 2654511 2711655 2757869 
2167.741 2791149 2811758 2821996 2825498 2825165 2821096 2812825 2798585 
2171.599 2777276 2749599 2718790 2688750 2664379 2649078 2644410 2649177 
2175.456 2659845 2671914 2679582 2676814 2659845 2626409 2578776 2521550 
2179.314 2464031 2415783 2384797 2376202 2389595 2419514 2457833 2496222 
2183.171 2529082 2554145 2573176 2588675 2603175 2617909 2631276 2640843 
2187.029 2644610 2641410 2632676 2620342 2607609 2597175 2591042 2589642 
2190.886 2593575 2601942 2613575 2626309 2637276 2643410 2643144 2636043 
2194.743 2624609 2612942 2605809 2606342 2615475 2630909 2648144 2661879 
2198.601 2668813 2667846 2660412 2650744 2642977 2640410 2644610 2655245 
2202.458 2670680 2688183 2705587 2720924 2732027 2738096 2737996 2731627 
2206.316 2719991 2704153 2686283 2668446 2652511 2640377 2633276 2632576 
2210.173 2639243 2654278 2676881 2705587 2737862 2770407 2800719 2827599 
2214.031 2852179 2876394 2902678 2932332 2963824 2994684 3021008 3039560 
2217.888 3049069 3050838 3047801 3043197 3039326 3036857 3034588 3030651 
2221.745 3024578 3017138 3010865 3009197 3015169 3029550 3050638 3074796 
2225.603 3097321 3114541 3124687 3128558 3128591 3128725 3132229 3141073 
2229.460 3155491 3173949 3193975 3212801 3229124 3242344 3253860 3266680 
2233.318 3283539 3306977 3337560 3374190 3413027 3450299 3481494 3503639 
2237.175 3516232 3520574 3519505 3516399 3513994 3514428 3518637 3526921 
2241.032 3539414 3556518 3578066 3603624 3631556 3659255 3683816 3702095 
2244.890 3712688 3715428 3712354 3706740 3702028 3701259 3705938 3716364 
2248.747 3731102 3748514 3767097 3785680 3804331 3823184 3843274 3865103 
2252.605 3889140 3914817 3941632 3968381 3993895 4017003 4036768 4052855 
2256.462 4065163 4073925 4080080 4084394 4088107 4092522 4098442 4106403 
2260.320 4115835 4126071 4135739 4143232 4148149 4150692 4151862 4153669 
2264.177 4158084 4166113 4177822 4192074 4207129 4221282 4233327 4243732 
2268.034 4253569 4264344 4277460 4292786 4309451 4325347 4338165 4346063 
2271.892 4348339 4345695 4339303 4330869 4322001 4313601 4306138 4299479 
2275.749 4293790 4289005 4285358 4283015 4282145 4282547 4284019 4285726 
2279.607 4287868 4290176 4293088 4297271 4303762 4313467 4327188 4345293 
2283.464 4367516 4392853 4419731 4445874 4469441 4488691 4503086 4512963 
2287.322 4519793 4525652 4532114 4540418 4550864 4562952 4575810 4588534 
2291.179 4600623 4612712 4625505 4640039 4657085 4676879 4698951 4722633 
2295.036 4747220 4772746 4799447 4828394 4860593 4897050 4938369 4984184 
2298.894 5033456 5084980 5137281 5189420 5240828 5291706 5342623 5394754 
2302.751 5449105 5506651 5568367 5634388 5704816 5779084 5856253 5934779 
2306.609 6013790 6092143 6169166 6245194 6321067 6398063 6477327 6559632 
2310.466 6644745 6731894 6819262 6905134 6987957 7066823 7141796 7213986 
2314.323 7285345 7358873 7437502 7524878 7623365 7734692 7858767 7993643 
2318.181 8135583 8279967 8422305 8559215 8688697 8809765 8922106 9024666 
2322.038 9115170 9190192 9246747 9283439 9301921 9307270 9307236 9311400 
2325.896 9328123 9363197 9418860 9493461 9581929 9676683 9770576 9856592 
2329.753 9929709 9987174 10028370 10054718 10069503 10076861 10081609 
2333.128 10088154 10100566 10121356 10151610 10191329 10239126 10293408 
2336.504 10351668 10411768 10471706 10529345 10583052 10631572 10674221 
2339.879 10710389 10740140 10763644 10780695 10790070 10788983 10771898 
2343.254 10730393 10653372 10530024 10351634 10117184 9835917 9529259 
2346.629 9227185 8962897 8769360 8670274 8678962 8797524 9017190 9319863 
2350.487 9680104 10072079 10470043 10853118 11209432 11534018 11827523 
2353.862 12092741 12332317 12547605 12738227 12904732 13047877 13169960 
2357.237 13273597 13360788 13432037 13486652 13523976 13543564 13545991 
2360.613 13533001 13505895 13465871 13412797 13346573 13266935 13174366 
2363.988 13070344 12957266 12836470 12709123 12575333 12434321 12285721 
2367.363 12129607 11967315 11800149 11630119 11458182 11284613 11108836 
2370.738 10930107 10747544 10561121 10370772 10176743 9979613 9779218 
2374.114 9575629 9368817 9159193 8947338 8734368 8521401 8309991 8101385 
2377.971 7897062 7698738 7508056 7326757 7156482 6998328 6852989 6720857 
2381.828 6602018 6496296 6404083 6325337 6259951 6207245 6166107 6134215 
2385.686 6109583 6089690 6072721 6057904 6044968 6034318 6026556 6022323 
2389.543 6021786 6024877 6031058 6039559 6049235 6058844 6066942 6072520 
2393.401 6074738 6073965 6070974 6067379 6065027 6065598 6069932 6078232 
2397.258 6089723 6103232 6117816 6132534 6146985 6161032 6175182 6189365 
2401.115 6204388 6220623 6238673 6258976 6281801 6307014 6334280 6362556 
2404.973 6391271 6419752 6447866 6476183 6505309 6536422 6570228 6607367 
2408.830 6648244 6692894 6741350 6793245 6847806 6904225 6960819 7016108 
2412.688 7068373 7116804 7161030 7201319 7238377 7273181 7306101 7337339 
2416.545 7366759 7394361 7420043 7444412 7468143 7491942 7516349 7541533 
2420.403 7567055 7592309 7616655 7639417 7660190 7679143 7696512 7712903 
2424.260 7729329 7746835 7766196 7788089 7812310 7838524 7865548 7892709 
2428.117 7919333 7945721 7972651 8001540 8033706 8069687 8109486 8152362 
2431.975 8196762 8241064 8284290 8325629 8365182 8403353 8440919 8478928 
2435.832 8517989 8559418 8603926 8652495 8705430 8762835 8824068 8888793 
2439.690 8956166 9025613 9096898 9169955 9244581 9320574 9397563 9475241 
2443.547 9553849 9633826 9716765 9804228 9897403 9996701 10101142 10208900 
2447.405 10317227 10423510 10526425 10625494 10721800 10817075 10913287 
2450.780 11011867 11113222 11216572 11320083 11421374 11518061 11608100 
2454.155 11690293 11764366 11830689 11889973 11943031 11989864 12030228 
2457.530 12062966 12086677 12099726 12100986 12089607 12065419 12028253 
2460.906 11978589 11916808 11843867 11760520 11668271 11568896 11463761 
2464.281 11354365 11241496 11125493 11006157 10883796 10758718 10632353 
2467.656 10506805 10384550 10268403 10160089 10060991 9971340 9890623 
2471.031 9817547 9750820 9689083 9631149 9576001 9523400 9473311 9426242 
2474.889 9383308 9345762 9314819 9290785 9273048 9260388 9250775 9241772 
2478.746 9231957 9220145 9206166 9190599 9174185 9157739 9142037 9127521 
2482.604 9114561 9103497 9094395 9086951 9080759 9074974 9068443 9060527 
2486.461 9051054 9040363 9029774 9020606 9013773 9009713 9007954 9007684 
2490.318 9007921 9007887 9007684 9008157 9010086 9014382 9021215 9030282 
2494.176 9040634 9051155 9060899 9068951 9075312 9080082 9083297 9084988 
2498.033 9085293 9083737 9080488 9075820 9070339 9064925 9060832 9058700 
2501.891 9058768 9061305 9065399 9070406 9075075 9078729 9080996 9081841 
2505.748 9081605 9080996 9080691 9081436 9083770 9087560 9092839 9098928 
2509.605 9105594 9112023 9117843 9122783 9126674 9129415 9130904 9130938 
2513.463 9129212 9125288 9118791 9109756 9098793 9086681 9074365 9062760 
2517.320 9052001 9041513 9030112 9016716 9000648 8982719 8964554 8948793 
2521.178 8937969 8933369 8934519 8939424 8944564 8946762 8943752 8935635 
2525.035 8924305 8913177 8905602 8903775 8908409 8918419 8931576 8945444 
2528.893 8958365 8969493 8978795 8986779 8993848 8999869 9004673 9008292 
2532.750 9010592 9012149 9013739 9016242 9019963 9024801 9030518 9036710 
2536.607 9042867 9049227 9055723 9062388 9069290 9076226 9083128 9090369 
2540.465 9098759 9109485 9123291 9140345 9160378 9181292 9200514 9216150 
2544.322 9226440 9231483 9232769 9232566 9234055 9238997 9248778 9263333 
2548.180 9281510 9301583 9321285 9339261 9354124 9365804 9374370 9380836 
2552.037 9386152 9391434 9397054 9403285 9409549 9415440 9420316 9424075 
2555.895 9426851 9429256 9431862 9435046 9439041 9442936 9446322 9448353 
2559.752 9448862 9448082 9446491 9445001 9444290 9444256 9444933 9445610 
2563.609 9445813 9445136 9443410 9440464 9436434 9431220 9425056 9417709 
2567.467 9409684 9401219 9393093 9386457 9381987 9380938 9383680 9390485 
2571.324 9400982 9414289 9429221 9444459 9458919 9472092 9483810 9494748 
2575.182 9505551 9516795 9528988 9542028 9555170 9568143 9580574 9592701 
2579.039 9605641 9620410 9637519 9657303 9678817 9701246 9723135 9743840 
2582.896 9763425 9782606 9801923 9821852 9842018 9861337 9878116 9891369 
2586.754 9900962 9908047 9914963 9924759 9939642 9960966 9988699 10021080 
2590.611 10055700 10090087 10122136 10150625 10175420 10196892 10216160 
2593.987 10233901 10251237 10268506 10286317 10304741 10324115 10344542 
2597.362 10365852 10388012 10410716 10433624 10456569 10479582 10503037 
2600.737 10527376 10553482 10582034 10613338 10647429 10683697 10721257 
2604.112 10759126 10796184 10832123 10866911 10901328 10935679 10970917 
2607.488 11007075 11043916 11080522 11116383 11150445 11182641 11213036 
2610.863 11242006 11270229 11298318 11326715 11355522 11384841 11414673 
2614.238 11444846 11475090 11504928 11533611 11560560 11584618 11605071 
2617.613 11621508 11633862 11642915 11649620 11655236 11661260 11668816 
2620.989 11678618 11690804 11705101 11720860 11737371 11753847 11769813 
2624.364 11785168 11800182 11815299 11830893 11847237 11864297 11881731 
2627.739 11899099 11915922 11931588 11946403 11960231 11973855 11987786 
2631.114 12002842 12019532 12038234 12059253 12082248 12107119 12133150 
2634.490 12160068 12187364 12215103 12242844 12271031 12299900 12329351 
2637.865 12359452 12390169 12420956 12451609 12481854 12511455 12540136 
2641.240 12567659 12593615 12618003 12640449 12661736 12682443 12703801 
2644.615 12726557 12751807 12779412 12808998 12839371 12869644 12898895 
2647.990 12926646 12953340 12979627 13006461 13034697 13064437 13095716 
2651.366 13128123 13161286 13194586 13228026 13261674 13295325 13329285 
2654.741 13363385 13397658 13432037 13466418 13500870 13535428 13570569 
2658.116 13606021 13642058 13678576 13715473 13752305 13789413 13826218 
2661.491 13863024 13899971 13937366 13975483 14014869 14055388 14097246 
2664.867 14140409 14184637 14229589 14275094 14321013 14367485 14414581 
2668.242 14462261 14510497 14559320 14608148 14656948 14705410 14753467 
2671.617 14801460 14849082 14896777 14944717 14992869 15041437 15090561 
2674.992 15140443 15191019 15242320 15294212 15346589 15398974 15451227 
2678.368 15503419 15555444 15607269 15659273 15711043 15762508 15813775 
2681.743 15864875 15916497 15969742 16025743 16085636 16150592 16220650 
2685.118 16295671 16374800 16457042 16541433 16627112 16713878 16801660 
2688.493 16890562 16980754 17072484 17165612 17259828 17354928 17450462 
2691.869 17546154 17641868 17737672 17833704 17930136 18027526 18126212 
2695.244 18226200 18327974 18431260 18536158 18642604 18750532 18859834 
2698.619 18970478 19082606 19196114 19311140 19427824 19546032 19665900 
2701.994 19786806 19908304 20029452 20149176 20266572 20381084 20492672 
2705.370 20601582 20708326 20813814 20918038 21020966 21121762 21219416 
2708.745 21312914 21401282 21484064 21560906 21631980 21697250 21756606 
2712.120 21810154 21857712 21899354 21935074 21965012 21989304 22007918 
2715.495 22021164 22028588 22030260 22026428 22017260 22003386 21985088 
2718.871 21962956 21937306 21908100 21875552 21839628 21800536 21758976 
2722.246 21715674 21671788 21628220 21586012 21545934 21508468 21474246 
2725.621 21443332 21415972 21392338 21372254 21355722 21342322 21331952 
2728.996 21324330 21319632 21318310 21320466 21326732 21337206 21351964 
2732.372 21370410 21392234 21416632 21443262 21471426 21501054 21531762 
2735.747 21563272 21595204 21627000 21658520 21689762 21721282 21753504 
2739.122 21786916 21821650 21856876 21891582 21924062 21952848 21977210 
2742.497 21997042 22013006 22026880 22039882 22053582 22068572 22084922 
2745.873 22102390 22120972 22140358 22161034 22183176 22207098 22232626 
2749.248 22259200 22286090 22311902 22335900 22357494 22376646 22394054 
2752.623 22410450 22427198 22445482 22466346 22490878 22519458 22552368 
2755.998 22589188 22629152 22671636 22715416 22760178 22805222 22850062 
2759.374 22894628 22938532 22981360 23022866 23062556 23100330 23135976 
2762.749 23169490 23200072 23227196 23249742 23267220 23278966 23285258 
2766.124 23286726 23284628 23280084 23273652 23265368 23254916 23241388 
2769.499 23224574 23204826 23182736 23159774 23137686 23117348 23099142 
2772.875 23083244 23068986 23055954 23043864 23032858 23023284 23016262 
2776.250 23011826 23010674 23012734 23017520 23024506 23032508 23040126 
2779.625 23045890 23048092 23045714 23038030 23025556 23008926 22989466 
2783.000 22968854 22947790 22926832 22906084 22884778 22862460 22838712 
2786.375 22813532 22787378 22760980 22735212 22710876 22688324 22668286 
2789.751 22650482 22635262 22622312 22611806 22603778 22598542 22596378 
2793.126 22597636 22602346 22610166 22620182 22631492 22642872 22653206 
2796.501 22662176 22669578 22675686 22681132 22686090 22690488 22694084 
2799.876 22696214 22696668 22695306 22692408 22688254 22683124 22676768 
2803.252 22668844 22658790 22646328 22631876 22616168 22600602 22586676 
2806.627 22575368 22567340 22562626 22560604 22561024 22563290 22567304 
2810.002 22573132 22580916 22591002 22603148 22617810 22634740 22654184 
2813.377 22676176 22700858 22728300 22758292 22790382 22824498 22860540 
2816.753 22898504 22938848 22981536 23026744 23074368 23124198 23176060 
2820.128 23230342 23287216 23347492 23412004 23481040 23554876 23632892 
2823.503 23714452 23798866 23885220 23973380 24063304 24155178 24248960 
2826.878 24344690 24441986 24539862 24637340 24733156 24826048 24914886 
2830.254 24999254 25078826 25153744 25225058 25293468 25360134 25426036 
2833.629 25491666 25557660 25624468 25692766 25763432 25837130 25914712 
2837.004 25996212 26081632 26170202 26261076 26353768 26448062 26544666 
2840.379 26644356 26748546 26858330 26974698 27098856 27231800 27374982 
2843.755 27530284 27699946 27886102 28091038 28315662 28559970 28822120 
2847.130 29097856 29380608 29661702 29930376 30174174 30381896 30543434 
2850.505 30651796 30704782 30703962 30655496 30567926 30451904 30318862 
2853.880 30179250 30043060 29918802 29813246 29731346 29676036 29647724 
2857.256 29645312 29665852 29705658 29760620 29826910 29901232 29980820 
2860.631 30063620 30147712 30231786 30314990 30397142 30478242 30558862 
2864.006 30639282 30719930 30800416 30880312 30959048 31035878 31110582 
2867.381 31183060 31253662 31322956 31391234 31459194 31527098 31595264 
2870.757 31663258 31730692 31796538 31859324 31918052 31971722 32020408 
2874.132 32065034 32107274 32148946 32191872 32237512 32286406 32339164 
2877.507 32395850 32457042 32523140 32594782 32672006 32754678 32841686 
2880.882 32931828 33024054 33117950 33213724 33312454 33415034 33522364 
2884.258 33634300 33750068 33867904 33985988 34102456 34215904 34325260 
2887.633 34430124 34530496 34626332 34718204 34806472 34891812 34975120 
2891.008 35057256 35139164 35222200 35307872 35397732 35493756 35598184 
2894.383 35712064 35836480 35971116 36114580 36264328 36416968 36567932 
2897.759 36711452 36841528 36951404 37033880 37083536 37095732 37068704 
2901.134 37003284 36902992 36773112 36620092 36450332 36270128 36084624 
2904.509 35898412 35715376 35538492 35370556 35213252 35067640 34933896 
2907.884 34812104 34702088 34603976 34517972 34444796 34384900 34338060 
2911.260 34303748 34280008 34264628 34253944 34243580 34228560 34202816 
2914.635 34159980 34094172 34000496 33875712 33719020 33532172 33318858 
2918.010 33083588 32831360 32566424 32291688 32008924 31718966 31421792 
2921.385 31116990 30804614 30485138 30159966 29831276 29502834 29179176 
2924.760 28865318 28566340 28286272 28027664 27791426 27576712 27381898 
2928.136 27204814 27043596 26896928 26764120 26644744 26538574 26444858 
2931.511 26362674 26290856 26227956 26172840 26124314 26081772 26044724 
2934.886 26012958 25986256 25964588 25947282 25933494 25921712 25909824 
2938.261 25895756 25877398 25853694 25824544 25790786 25754254 25716672 
2941.637 25679304 25642396 25605210 25565952 25522132 25471394 25411350 
2945.012 25339444 25254274 25154060 25037826 24905728 24758764 24599924 
2948.387 24432768 24262028 24092164 23926600 23767682 23616028 23471352 
2951.762 23332632 23198814 23069300 22943774 22822298 22704872 22591492 
2955.138 22481734 22375286 22272104 22172332 22076554 21985644 21900226 
2958.513 21820848 21747618 21680426 21619164 21563308 21513170 21468642 
2961.888 21430034 21397314 21370688 21349840 21334632 21324330 21318274 
2965.263 21315282 21313680 21311696 21306930 21297116 21280238 21254384 
2968.639 21218442 21171752 21114284 21046632 20969672 20884834 20793826 
2972.014 20698666 20601478 20504308 20409074 20317330 20230432 20149038 
2975.389 20073382 20002910 19936644 19872888 19809244 19743356 19672730 
2978.764 19595424 19510714 19418678 19320458 19218172 19114390 19011394 
2982.140 18911328 18815610 18724896 18639666 18559880 18485124 18415218 
2985.515 18349714 18288264 18230658 18176790 18126730 18080684 18038888 
2988.890 18000898 17965844 17932174 17897438 17858630 17813060 17758520 
2992.265 17693978 17620406 17539600 17454980 17370170 17288584 17212700 
2995.641 17144240 17083202 17029028 16980960 16937652 16898450 16862796 
2999.016 16830452 16801314 16775347 16752239 16731817 16713912 16698107 
3002.391 16684093 16671561 16659992 16648768 16637234 16624978 16611621 
3005.766 16597679 16583908 16571483 16561637 16555579 16553616 16555957 
3009.142 16562257 16571414 16582703 16595233 16608521 16622258 16636442 
3012.517 16651247 16666878 16683370 16700896 16719937 16740944 16764637 
3015.892 16791912 16823600 16860108 16901240 16946474 16994434 17043536 
3019.267 17092162 17139242 17183986 17226248 17266380 17304684 17341272 
3022.643 17376068 17408176 17437216 17462602 17484368 17503134 17520452 
3026.018 17537736 17556504 17578068 17602564 17629480 17657500 17684590 
3029.393 17708646 17727698 17740468 17746266 17745542 17739500 17730114 
3032.768 17719794 17710266 17703054 17699052 17698256 17700052 17703710 
3036.144 17708542 17713996 17720276 17727904 17737464 17749580 17764560 
3039.519 17781922 17800978 17820550 17839332 17856316 17870922 17883420 
3042.894 17894712 17905968 17918812 17934282 17952964 17974650 17998686 
3046.269 18024002 18049492 18074638 18099404 18124138 18149462 18176134 
3049.645 18204432 18234320 18265420 18296938 18328284 18358978 18388634 
3053.020 18417432 18445536 18473058 18500716 18528758 18557216 18586094 
3056.395 18615212 18644230 18672802 18701234 18729566 18758384 18788416 
3059.770 18819728 18851944 18884230 18915032 18942788 18966394 18985710 
3063.146 19001356 19014994 19028494 19043450 19061106 19081636 19104590 
3066.521 19129244 19154626 19179872 19204632 19228562 19251528 19273486 
3069.896 19294338 19314326 19333656 19353090 19373046 19394320 19417326 
3073.271 19442238 19469544 19499140 19531024 19565336 19601870 19640316 
3076.646 19679836 19720022 19759898 19799326 19838274 19877188 19916872 
3080.022 19957840 20000272 20043956 20088442 20132968 20176872 20219846 
3083.397 20261052 20300352 20337506 20371952 20403622 20433108 20461134 
3086.772 20488886 20517926 20549328 20583654 20620932 20660546 20701724 
3090.147 20743914 20786874 20830742 20875794 20921654 20967898 21013454 
3093.523 21057518 21099222 21138876 21177214 21215484 21255428 21297950 
3096.898 21343368 21391362 21440966 21491062 21540988 21590226 21638632 
3100.273 21686800 21735146 21783954 21833532 21884160 21935736 21988156 
3103.648 22041276 22094684 22148064 22201204 22253654 22305728 22357774 
3107.024 22410034 22462822 22516176 22569676 22622698 22675128 22726902 
3110.399 22778404 22830820 22885162 22942096 23001940 23063814 23126328 
3113.774 23188048 23247400 23303718 23356792 23407632 23457466 23507446 
3117.149 23558936 23612634 23669174 23728696 23791130 23855990 23922716 
3120.525 23990500 24058298 24125298 24190802 24254810 24317776 24380368 
3123.900 24443178 24506802 24571102 24635516 24699450 24762482 24824644 
3127.275 24886570 24949348 25013820 25080792 25149706 25219370 25288410 
3130.650 25355040 25418482 25478946 25537558 25596072 25656596 25720644 
3134.026 25788782 25860868 25935780 26011936 26087966 26162706 26235488 
3137.401 26306488 26376054 26444646 26513142 26581898 26651158 26721166 
3140.776 26791646 26862770 26934752 27008124 27083058 27160332 27239738 
3144.151 27320922 27402756 27483970 27563260 27640196 27715238 27789376 
3147.527 27864516 27942566 28024482 28110622 28200346 28292180 28384702 
3150.902 28476892 28568110 28658708 28749044 28839470 28930164 29020980 
3154.277 29111498 29201146 29289716 29376746 29462442 29547022 29630732 
3157.652 29714210 29798058 29883272 29970596 30060850 30154390 30250970 
3161.028 30349704 30449666 30549582 30648596 30746284 30842710 30938162 
3164.403 31033350 31128738 31224822 31322032 31420402 31520150 31621348 
3167.778 31723600 31826698 31930320 32034002 32137636 32241404 32345266 
3171.153 32449548 32554350 32659538 32764502 32868922 32972432 33074788 
3174.529 33176136 33276356 33375602 33474154 33571904 33669176 33766648 
3177.904 33864824 33964380 34065792 34169156 34273948 34379628 34485508 
3181.279 34590808 34695880 34800728 34905240 35009596 35113156 35215224 
3184.654 35315924 35415704 35515800 35618328 35725016 35836912 35954020 
3188.030 36075120 36197912 36320556 36441180 36559316 36675360 36790100 
3191.405 36904324 37018760 37133480 37248632 37364244 37480968 37599028 
3194.780 37719212 37841748 37966088 38091764 38218092 38344172 38470212 
3198.155 38596324 38722944 38850544 38979376 39109084 39239372 39369700 
3201.531 39499888 39629564 39758920 39887804 40016476 40145148 40274292 
3204.906 40404388 40536116 40669856 40805236 40941968 41078892 41215308 
3208.281 41350748 41485612 41620224 41755432 41891588 42028008 42163920 
3211.656 42298268 42430392 42560840 42691076 42822732 42957760 43097260 
3215.031 43241268 43388876 43538956 43690252 43842192 43994660 44147220 
3218.407 44299612 44450812 44600152 44746684 44890688 45032828 45174872 
3221.782 45318836 45466192 45617796 45773508 45932252 46093160 46255008 
3225.157 46416840 46578188 46738296 46896916 47053640 47208608 47362040 
3228.532 47514752 47667592 47821148 47975800 48131396 48288008 48445564 
3231.908 48604920 48767188 48933376 49104188 49279116 49456600 49634788 
3235.283 49811340 49985252 50156148 50324648 50491956 50658988 50826164 
3238.658 50993216 51160404 51328144 51497328 51669788 51847060 52029964 
3242.033 52217992 52409768 52603084 52796452 52989044 53181572 53376056 
3245.409 53574676 53779128 53990164 54207200 54428356 54651508 54874704 
3248.784 55096576 55316804 55535588 55753812 55972332 56192056 56413660 
3252.159 56636968 56861524 57086720 57312036 57537020 57761888 57987328 
3255.534 58214208 58443600 58675876 58910748 59147264 59384332 59620420 
3258.910 59855040 60087544 60318000 60546640 60773224 60997716 61219808 
3262.285 61439076 61655548 61869608 62081288 62290624 62497344 62700680 
3265.660 62899820 63094264 63283464 63467384 63646540 63820556 63989192 
3269.035 64152316 64309284 64459540 64603692 64741976 64875000 65003708 
3272.411 65128296 65248876 65366224 65480708 65593100 65704176 65814196 
3275.786 65922596 66028348 66130012 66226244 66317104 66403380 66486940 
3279.161 66569968 66653676 66738204 66822484 66904536 66982120 67053916 
3282.536 67119496 67179248 67234864 67287712 67339128 67390128 67441016 
3285.912 67491832 67542304 67591776 67639208 67683736 67724704 67761688 
3289.287 67795928 67828848 67862048 67897608 67935888 67976456 68017576 
3292.662 68057376 68094040 68126744 68155976 68182720 68208544 68234360 
3296.037 68260496 68286512 68311912 68336072 68358408 68379160 68397928 
3299.413 68414688 68429392 68441256 68450024 68455416 68457904 68457976 
3302.788 68456928 68455760 68456464 68460616 68470040 68486176 68510112 
3306.163 68541928 68580808 68625232 68673320 68723424 68774504 68826488 
3309.538 68879256 68933200 68988880 69046216 69105456 69167656 69233912 
3312.914 69305848 69385336 69473512 69570608 69675936 69787952 69905040 
3316.289 70026568 70152176 70281960 70416720 70555896 70699008 70844976 
3319.664 70992800 71142184 71293416 71447248 71603976 71763848 71925672 
3323.039 72088048 72249984 72410728 72570584 72730344 72890720 73051192 
3326.415 73210464 73366072 73515808 73657976 73792304 73919560 74040872 
3329.790 74156840 74267104 74370080 74464032 74547064 74618752 74679192 
3333.165 74729248 74769072 74798640 74815880 74819496 74807880 74780688 
3336.540 74739240 74685800 74622768 74552728 74477128 74396384 74310432 
3339.916 74218712 74120528 74015336 73901800 73779192 73646000 73501520 
3343.291 73345352 73177608 72999168 72810592 72612448 72405208 72188664 
3346.666 71963792 71732120 71496504 71260152 71025888 70795328 70568328 
3350.041 70343232 70117336 69887768 69653256 69413592 69169680 68923328 
3353.417 68676080 68429040 68182608 67936896 67691904 67447864 67205200 
3356.792 66963756 66723676 66484892 66247092 66010380 65775916 65544396 
3360.167 65317424 65095888 64879844 64668260 64459384 64251228 64042024 
3363.542 63831112 63618192 63404040 63190176 62978224 62769556 62566184 
3366.917 62369260 62179308 61996588 61819980 61647184 61476632 61305732 
3370.293 61133100 60958976 60783744 60608772 60435504 60264440 60095000 
3373.668 59925784 59755072 59580776 59401996 59218348 59030300 58839340 
3377.043 58647472 58456188 58267636 58083292 57903876 57729716 57560284 
3380.418 57393636 57227888 57060500 56889132 56712624 56530036 56341980 
3383.794 56149520 55954920 55760180 55567484 55378748 55195184 55017216 
3387.169 54844400 54675748 54509452 54344424 54179344 54013656 53847352 
3390.544 53680772 53514480 53349304 53185616 53023936 52864932 52708832 
3393.919 52555740 52405132 52256000 52106916 51956576 51804200 51649900 
3397.295 51494792 51340600 51188996 51040912 50896304 50754128 50612636 
3400.670 50470112 50325580 50178608 50029604 49878868 49726364 49571680 
3404.045 49413756 49251504 49084900 48913980 48739756 48564160 48388188 
3407.420 48212988 48038860 47865432 47691884 47517416 47341200 47162248 
3410.796 46980604 46796344 46610092 46423072 46236728 46052080 45870164 
3414.171 45690748 45512480 45334280 45153728 44969544 44781284 44589136 
3417.546 44393992 44196960 43999100 43800812 43602580 43404148 43205764 
3420.921 43007696 42810192 42613508 42417936 42223912 42031620 41841416 
3424.297 41653848 41469096 41287196 41107444 40928460 40749040 40567768 
3427.672 40384456 40199448 40014296 39830168 39648476 39469624 39293012 
3431.047 39117932 38943172 38768300 38593320 38418916 38245628 38074076 
3434.422 37904476 37736452 37569620 37403784 37238668 37074044 36909952 
3437.798 36745740 36580732 36414120 36245560 36074940 35902696 35729980 
3441.173 35557512 35386192 35216376 35047668 34879496 34711096 34541184 
3444.548 34369188 34194428 34016732 33836740 33655460 33474476 33295746 
3447.923 33120882 32950450 32784656 32622926 32464400 32307964 32153762 
3451.299 32001470 31851050 31702322 31553678 31403236 31248784 31088372 
3454.674 30921618 30749626 30574326 30398954 30226068 30057618 29894202 
3458.049 29735462 29580398 29427588 29275998 29124324 28971496 28816632 
3461.424 28658850 28497626 28333346 28166618 27998614 27830672 27663430 
3464.800 27497562 27332884 27169538 27007630 26848002 26691462 26538326 
3468.175 26388658 26241366 26094896 25947424 25797818 25645454 25490718 
3471.550 25334596 25177654 25020734 24864044 24707376 24551116 24395720 
3474.925 24241916 24090414 23941728 23795892 23652378 23510558 23370428 
3478.301 23231706 23094390 22958060 22821284 22682704 22539944 22391996 
3481.676 22239146 22083178 21927476 21775768 21630238 21491932 21359550 
3485.051 21230550 21101934 20971758 20839224 20705442 20571840 20440192 
3488.426 20311604 20185828 20062208 19939800 19817810 19696480 19576118 
3491.802 19457070 19339960 19224096 19109128 18994120 18878382 18761984 
3495.177 18645234 18528518 18412592 18298530 18186638 18077434 17971368 
3498.552 17868056 17767184 17668232 17569994 17471570 17372204 17271550 
3501.927 17169402 17066212 16962252 16857698 16753340 16649421 16546629 
3505.302 16446339 16349167 16255802 16166342 16079824 15994458 15909143 
3508.678 15822573 15734473 15646117 15559016 15475022 15395198 15320023 
3512.053 15248497 15179729 15112584 15046136 14980041 14914230 14848225 
3515.428 14781268 14712094 14639196 14561616 14479664 14393995 14307110 
3518.803 14221475 14138732 14060214 13985372 13912356 13838942 13762736 
3522.179 13682201 13596961 13508048 13417000 13325835 13235508 13146088 
3525.554 13056584 12965459 12871522 12774328 12674836 12574787 12476331 
3528.929 12381237 12289197 12198745 12107596 12012992 11913232 11808456 
3532.304 11699688 11589451 11479955 11372528 11266930 11162344 11056763 
3535.680 10948999 10838985 10727778 10617617 10510912 10409663 10314920 
3539.055 10226642 10143740 10064789 9987920 9911505 9834053 9754445 9671940 
3542.912 9586028 9496205 9402743 9305849 9206099 9104748 9003252 8904215 
3546.770 8810170 8723347 8645465 8576145 8513629 8453927 8392780 8325832 
3550.627 8250316 8165968 8074514 7979637 7885894 7796522 7713611 7637191 
3554.485 7565639 7496998 7429076 7360423 7290163 7217961 7143683 7067329 
3558.342 6989675 6911429 6833837 6758480 6686702 6619310 6557042 6499995 
3562.199 6447530 6399207 6353646 6308426 6260858 6206372 6140432 6059516 
3566.057 5962223 5850779 5731843 5614281 5507054 5417064 5346581 5293919 
3569.914 5254444 5222082 5190996 5156660 5116192 5068419 5013813 4954053 
3573.772 4891353 4828997 4769530 4714996 4666396 4623126 4583880 4546110 
3577.629 4508075 4468704 4427731 4386360 4345896 4307611 4272006 4238814 
3581.487 4207497 4177454 4148550 4120753 4093960 4066567 4035698 3997273 
3585.344 3946681 3880281 3797412 3701426 3599581 3501134 3415499 3348412 
3589.201 3301401 3271521 3253260 3240207 3226955 3208862 3183227 3148816 
3593.059 3105698 3055343 2999955 2942907 2887801 2838405 2796651 2763471 
3596.916 2737929 2717123 2697018 2674114 2645344 2609242 2566377 2518384 
3600.774 2467863 2417116 2367773 2320535 2276199 2234533 2196067 2161401 
3604.631 2130101 2100667 2070537 2035348 1990476 1933593 1864605 1787643 
3608.489 1709597 1638882 1580849 1537553 1505766 1479633 1452570 1419825 
3612.346 1380368 1337757 1297909 1266870 1248660 1243476 1247464 1254508 
3616.203 1257499 1250222 1228457 1190612 1138120 1075768 1010204 949499 
3620.061 900987 869677 856464 859186 872333 889665 904738 913869 915032 
3624.400 909354 898795 884585 865328 837009 792759 725810 633653 522042 
3628.740 405783 304542 235315 204717 207899 232994 266147 296087 315053 
3633.080 320756 313992 299237 280172 260180 240321 220231 198684 175115 
3637.419 149427 122248 94839 67664 41021 14844 -10702 -35153 -56986 -74909 
3642.241 -87332 -93494 -94024 -90844 -86338 -83854 -86504 -96972 -117311 
3646.581 -149375 -193492 -249361 -315222 -387693 -462139 -532104 -590279 
3650.438 -629719 -645931 -637825 -608610 -565296 -516583 -473194 -444431 
3654.295 -437546 -456545 -500333 -561523 -628627 -689998 -735945 -762671 
3658.153 -771999 -768757 -759595 -749309 -741833 -738790 -740576 -746067 
3662.010 -753972 -762539 -769948 -774347 -774182 -768327 -756850 -740907 
3665.868 -722284 -704156 -690560 -685598 -693306 -715833 -752682 -798789 
3669.725 -844461 -876801 -885035 -864004 -816879 -753145 -688013 -637891 
3673.583 -616617 -634715 -693802 -784104 -885035 -972950 -1032189 -1058468 
3677.440 -1059360 -1046172 -1030140 -1017744 -1010802 -1007298 -1004455 
3680.815 -999298 -990703 -979463 -966140 -950634 -931425 -906197 -873462 
3684.673 -834076 -792174 -754502 -728734 -722350 -738724 -777059 -830108 
3688.530 -886688 -936417 -971496 -989050 -990868 -980752 -961412 -935756 
3692.387 -905470 -871941 -837185 -803882 -774446 -750929 -734126 -723177 
3696.245 -716561 -712426 -709780 -708688 -711136 -718678 -733233 -755527 
3700.102 -783575 -814531 -844361 -869064 -885895 -893698 -892706 -884308 
3703.960 -869527 -849520 -825015 -797168 -767467 -737864 -711070 -689468 
3707.817 -675408 -670909 -677261 -695721 -727576 -773057 -831596 -899650 
3711.675 -970669 -1034966 -1083786 -1109466 -1109565 -1086529 -1046701 
3715.050 -998406 -950072 -908413 -877000 -856398 -844494 -837681 -832324 
3718.907 -826106 -817839 -807917 -796408 -783178 -767467 -747919 -724401 
3722.765 -697904 -671472 -648644 -633061 -626708 -628826 -635079 -640141 
3726.622 -637064 -620422 -588988 -545110 -494806 -445987 -406827 -383456 
3730.479 -379318 -393123 -419208 -450389 -479416 -503047 -524228 -549941 
3734.337 -588459 -644806 -717124 -795779 -866683 -916216 -936946 -929607 
3738.194 -900874 -858316 -808975 -756155 -700517 -642689 -585547 -535910 
3742.052 -505827 -509335 -557122 -649306 -768394 -881761 -952089 -958338 
3745.909 -901800 -803154 -689468 -584620 -508673 -472300 -478324 -521614 
3749.767 -592165 -677823 -767864 -853918 -928681 -984521 -1015298 -1017050 
3753.624 -991496 -945245 -889499 -835631 -792439 -764987 -753145 -753542 
3757.481 -761018 -771073 -782616 -795746 -810133 -823328 -829877 -822998 
3761.339 -797896 -754535 -698036 -637924 -585249 -548088 -530284 -529457 
3765.196 -538359 -548187 -552522 -550074 -545838 -546930 -559968 -588823 
3769.054 -631307 -680900 -727874 -764193 -785328 -791480 -786618 -776199 
3772.911 -765648 -758305 -755560 -756652 -759926 -762870 -763598 -761514 
3776.769 -757346 -752881 -750301 -750929 -754072 -757710 -757578 -749739 
3780.626 -732307 -706075 -674515 -642689 -616418 -599213 -592595 -595606 
3784.483 -605169 -617676 -630348 -641762 -652085 -662374 -673225 -684969 
3788.341 -697441 -709780 -721523 -732274 -741205 -747258 -748912 -744479 
3792.198 -733034 -715635 -694728 -674515 -659132 -650894 -649140 -649835 
3796.056 -646162 -630943 -600669 -556030 -503279 -452342 -414143 -399379 
3799.913 -414375 -459326 -525850 -599113 -659793 -693306 -694133 -666741 
3803.771 -623003 -577407 -544977 -537201 -560067 -611720 -682124 -755891 
3807.628 -816714 -854216 -866584 -858316 -836127 -806627 -773090 -735515 
3811.485 -692512 -643053 -588558 -534322 -488286 -459193 -453335 -471738 
3815.343 -507052 -545011 -568903 -567414 -537697 -487823 -431356 -385310 
3819.200 -364420 -378457 -428708 -507052 -595010 -670512 -717024 -728867 
3823.058 -711268 -676666 -639413 -611521 -600437 -607055 -626708 -651489 
3826.915 -671902 -681264 -677890 -664954 -647684 -632300 -622572 -618900 
3830.772 -618073 -614731 -602885 -578797 -542165 -495336 -443934 -394745 
3834.630 -353859 -326711 -317142 -326446 -353495 -395109 -445060 -495965 
3838.487 -541470 -576149 -598220 -608047 -608213 -602621 -594911 -588459 
3842.345 -586374 -590312 -600338 -614962 -631109 -644045 -649107 -642523 
3846.202 -622572 -589021 -543786 -489544 -429138 -365248 -300123 -236645 
3850.060 -179615 -136093 -116152 -130594 -188723 -291879 -428774 -573238 
3853.917 -694364 -768592 -788139 -761216 -703991 -633524 -563012 -500929 
3857.774 -451680 -416361 -394182 -382926 -380245 -383423 -389713 -397062 
3861.632 -404610 -413216 -425100 -442379 -466276 -493019 -515292 -523268 
3865.489 -508111 -466276 -401928 -325883 -254063 -201308 -179350 -191869 
3869.347 -232406 -285124 -330651 -355978 -357071 -339888 -315420 -294859 
3873.204 -284329 -284594 -290587 -294329 -289163 -272243 -245851 -215582 
3877.062 -188988 -172461 -170540 -185345 -214953 -255057 -298203 -336014 
3880.919 -360017 -364685 -348893 -316215 -274759 -234095 -204653 -193956 
3884.776 -203627 -227836 -254527 -269329 -261315 -227803 -173985 -111713 
3888.634 -54369 -14015 994 -11795 -47511 -96276 -145964 -185908 -210085 
3892.973 -217801 -212204 -198195 -179880 -160471 -142188 -126520 -114827 
3896.831 -108401 -108202 -114297 -125162 -137948 -148183 -152191 -147520 
3900.688 -134702 -116781 -98926 -86338 -82562 -88988 -103365 -121485 -138146 
3905.028 -148547 -150270 -142751 -127911 -107837 -85411 -63248 -43138 -27036 
3909.367 -16036 -10934 -11331 -16401 -23855 -31211 -36081 -36909 -33894 
3913.707 -28792 -24286 -23126 -27135 -36611 -49433 -63016 -73982 -79150 
3918.047 -77692 -69509 -55429 -37174 -16268 6196 28231 48113 64019 74160 
3922.868 77805 75320 68460 60076 53249 50234 51592 56762 63522 69587 73398 
3928.172 73795 70382 63290 52487 37211 17461 -6792 -34391 -62651 -87895 
3932.994 -106579 -115556 -114032 -102968 -84649 -62121 -38400 -14910 7687 
3937.334 29755 52122 75419 99314 122977 144554 161823 172994 176971 173259 
3942.156 163381 149427 134147 120525 110648 105544 104550 106240 108129 
3946.495 108030 104351 96265 84367 70282 56198 44468 36979 34659 37940 46688 
3951.799 59943 76612 95436 114957 133252 149493 162453 171668 177800 181281 
3956.621 183501 185325 187612 190297 193214 195302 195369 192485 186253 
3960.960 176938 165536 154133 144488 139019 139284 145416 156520 170839 
3965.300 185722 198650 207899 212772 213734 212275 210186 209092 210253 
3969.640 213568 218341 223944 229082 232795 235315 236575 237039 237404 
3973.979 238265 239757 242343 245725 249405 253483 257229 260577 263097 
3978.319 264490 264026 261439 255671 246487 233624 217513 199612 181711 
3982.658 166364 155459 150686 152542 160133 172364 187347 203424 219369 
3986.998 234950 249571 263561 276691 288428 298242 305702 310145 311903 
3991.338 311439 309250 306067 302453 298806 295424 292771 290914 290351 
3995.677 291412 293865 297181 300762 303812 305868 306432 305735 304044 
4000.017 301624 299071 
##END=
