
##TITLE=Z305_2_a
##JCAMP-DX=5.01  $$ Nicolet v. 1
##DATATYPE=INFRARED SPECTRUM
##ORIGIN=UniL
##OWNER=Nicolet
##LONGDATE=2011/09/08
##TIME=14:52:40
##SPECTROMETER/DATA SYSTEM=Nicolet iS5
##DATA PROCESSING=
Ratio against background
%Transmittance->Absorbance
Truncated
ElementMultiply or ElementDivide
##COMMENTS=
Number of sample scans: 32
Collection length: 51.20 sec
Sample gain: 2.0
Background collected on: Jeu Sep 08 14:50:09 2011 (GMT+02:00);
Number of background scans: 32
Background gain: 2.0
Sample spacing:  1.000
Number of scan points: 12415
Resolution points: 8192
Number of FFT points: 65536
Apodization: N-B fort;
Phase correction: Mertz;
Laser frequency: 15798.0 cm-1
Number of rejected sample scans: 0
Number of rejected background scans: 0
Bench serial number: ASB1000141;
##RESOLUTION=4.000
##XUNITS=1/CM
##YUNITS=ABSORBANCE
##FIRSTX=649.893372
##LASTX=4000.122314
##FIRSTY=0.129284
##MAXX=4000.122314
##MINX=649.893372
##MAXY=0.295736
##MINY=-0.002508
##XFACTOR=1.000000
##YFACTOR=1.000000E-009
##NPOINTS=6950
##DELTAX=0.482117
##ZPD=6100
##XYDATA=(X++(Y..Y))
649.893 129283680 129502968 129833880 130272400 130786512 131338480 
652.786 131905872 132499040 133152128 133906912 134782784 135762416 
655.679 136793584 137814848 138777728 139668032 140503776 141315888 
658.571 142124864 142923632 143678208 144345008 144895952 145328192 
661.464 145665648 145941264 146181648 146393632 146564384 146668160 
664.357 146677968 146567456 146302976 145838928 145118640 144098352 
667.250 142793056 141324256 139904224 138727936 137880624 137309968 
670.142 136886656 136458048 135898688 135138768 134166272 133025456 
673.035 131787496 130525488 129281224 128056464 126827240 125568656 
675.928 124275280 122968384 121684912 120457512 119301080 118209136 
678.820 117163800 116151976 115178824 114267328 113446928 112737984 
681.713 112139608 111628712 111173464 110743616 110325480 109923312 
684.606 109551200 109220776 108931560 108670832 108419744 108168768 
687.498 107923368 107705328 107542560 107457552 107454504 107519512 
690.391 107625888 107749184 107876600 108011568 108168088 108363192 
693.284 108607600 108902384 109244248 109632696 110073856 110582496 
696.177 111171880 111842264 112573240 113321096 114028712 114634016 
699.069 115089368 115366640 115457448 115367328 115107424 114691488 
701.962 114136128 113464608 112711008 111912272 111103704 110308600 
704.855 109532008 108763520 107986208 107188472 106370440 105544944 
707.747 104729712 103939200 103176840 102435240 101701440 100966576 
710.640 100231992 99508944 98812344 98152824 97529768 96931344 96339280 
714.015 95735432 95108856 94456512 93779104 93076352 92343424 91572704 
717.390 90759448 89908504 89038112 88174936 87349824 86586608 85894544 
720.765 85268816 84694608 84154256 83631368 83113712 82590192 82046808 
724.139 81467560 80836408 80143280 79391064 78596744 77789176 76999168 
727.514 76251616 75560432 74927608 74347512 73814056 73325784 72885240 
730.889 72496856 72162304 71877496 71632344 71416504 71222400 71049416 
734.264 70902664 70790216 70716672 70681576 70678424 70698928 70737808 
737.639 70794312 70872440 70976760 71107640 71258280 71416072 71566192 
741.013 71698032 71808880 71903848 71991640 72080816 72174744 72270368 
744.388 72361288 72440680 72502928 72542512 72550344 72510520 72397616 
747.763 72182920 71839880 71352776 70722712 69967864 69119904 68212928 
751.138 67280592 66350452 65442488 64571708 63749372 62981552 62269440 
754.513 61608080 60987344 60394340 59818764 59256476 58710432 58188336 
757.888 57699484 57249392 56838180 56460828 56109964 55779992 55468460 
761.262 55176296 54905196 54655492 54425504 54212080 54014028 53833920 
764.637 53678484 53557060 53478352 53445636 53456544 53503764 53577936 
768.012 53671248 53778264 53896072 54022660 54156300 54295684 54444244 
771.387 54611456 54813760 55070512 55392868 55774720 56182472 56560684 
774.762 56834180 56927928 56790936 56404568 55792768 55010068 54133140 
778.136 53238160 52384236 51612356 50939336 50365168 49879724 49468928 
781.511 49120512 48823392 48569344 48352628 48169044 48016800 47895324 
784.886 47805540 47747212 47719512 47719992 47745584 47794628 47867024 
788.261 47964588 48091308 48250864 48445228 48675964 48944092 49251392 
791.636 49602436 50003432 50461064 50980544 51562840 52203608 52891580 
795.010 53609876 54335676 55039404 55688152 56244136 56667584 56925320 
798.385 56992336 56859824 56536568 56048364 55433408 54733852 53994328 
801.760 53255840 52552076 51912476 51357864 50900924 50546000 50289492 
805.135 50122900 50035144 50016632 50061060 50164476 50322900 50528248 
808.510 50764376 51008308 51230824 51401424 51495796 51497180 51399376 
811.885 51204508 50920152 50557172 50127436 49645412 49127896 48592580 
815.259 48057920 47539964 47049244 46591500 46167920 45777480 45419468 
818.634 45095020 44806040 44554260 44339644 44159580 44009108 43884052 
822.009 43781900 43703408 43651744 43630896 43643244 43688496 43763360 
825.384 43863048 43982340 44116228 44258520 44402140 44535424 44644068 
828.759 44712928 44729052 44685308 44583520 44433084 44247916 44043796 
832.133 43834824 43630460 43437064 43258400 43096600 42953516 42829864 
835.508 42724488 42634232 42554080 42478732 42404164 42328800 42253456 
838.883 42181260 42115832 42059652 42015412 41984280 41967600 41966796 
842.258 41982964 42016104 42064764 42125872 42195976 42272484 42354956 
845.633 42445192 42546148 42660440 42788252 42927472 43074356 43224980 
849.008 43377160 43531740 43691716 43860848 44041780 44235040 44438772 
852.382 44650644 44868460 45091712 45321336 45558844 45805060 46059964 
855.757 46322904 46593788 46874180 47167384 47477492 47807908 48159896 
859.132 48531848 48921580 49327588 49751220 50197168 50672132 51180944 
862.507 51723680 52293556 52876420 53452160 54000184 54501304 54940128 
865.882 55307392 55598328 55813184 55957216 56040896 56080408 56094960 
869.256 56106196 56133944 56192920 56292908 56437320 56625948 56855820 
872.631 57122284 57420072 57740772 58073180 58403876 58717676 59001912 
876.006 59248884 59457160 59631292 59780584 59916272 60049116 60189420 
879.381 60347128 60531136 60750512 61013164 61323664 61683348 62089696 
882.756 62537484 63020744 63534192 64074168 64637376 65220080 65816672 
886.131 66419600 67021280 67616480 68204240 68787744 69372976 69965728 
889.505 70568840 71180432 71795008 72405640 73005520 73589952 74156064 
892.880 74700672 75219104 75704704 76148984 76544320 76885120 77167528 
896.255 77388776 77544824 77628880 77632208 77546280 77366640 77095152 
899.630 76741136 76320376 75850352 75349216 74833240 74315504 73808752 
903.005 73325112 72875400 72469056 72112296 71806424 71549472 71336872 
906.379 71165440 71034040 70944688 70900568 70904704 70956976 71054440 
909.754 71191288 71361992 71562168 71789536 72043384 72321912 72620640 
913.129 72932456 73248192 73558824 73858944 74147568 74427968 74707208 
916.504 74993800 75296960 75625776 75989856 76399264 76862736 77386248 
919.879 77969784 78606832 79282672 79977496 80670760 81342672 81979168 
923.254 82572960 83123144 83634376 84117096 84587024 85062776 85566136 
926.628 86117944 86732064 87411936 88144696 88901352 89634224 90282264 
930.003 90781008 91063568 91074648 90778560 90165048 89255976 88103096 
933.378 86788960 85408520 84057304 82822320 81763288 80914160 80284768 
936.753 79867368 79645088 79598808 79712120 79968536 80348824 80829656 
940.128 81378400 81956400 82525040 83046552 83491792 83843480 84095736 
943.502 84254496 84335640 84364128 84369800 84383408 84434512 84544352 
946.877 84725496 84981624 85309304 85702216 86154632 86663744 87228856 
950.252 87849584 88524096 89246528 90008936 90803432 91624376 92470456 
953.627 93343688 94247632 95184096 96151984 97147400 98166240 99206168 
957.002 100268344 101356504 102474040 103621800 104796264 105990312 
959.894 107196352 108409840 109630472 110861688 112107776 113370392 
962.787 114646616 115929976 117213272 118492024 119767336 121045064 
965.680 122332520 123635296 124954952 126289312 127635896 128995168 
968.573 130372552 131777584 133221928 134714272 136259536 137859776 
971.465 139516880 141237232 143033056 144919824 146913840 149026800 
974.358 151262656 153619520 156092480 158678432 161378448 164195776 
977.251 167131776 170180080 173323024 176533440 179775488 183012448 
980.143 186209120 189328464 192332528 195176672 197808800 200179936 
983.036 202249728 203997024 205424560 206555664 207427472 208077056 
985.929 208539440 208845280 209022688 209105280 209132768 209145856 
988.821 209183936 209276544 209440704 209684752 210013536 210433952 
991.714 210957600 211597536 212362176 213249680 214246592 215330656 
994.607 216477440 217668448 218892752 220144096 221415184 222690448 
997.500 223943952 225145216 226264384 227281776 228191584 228998608 
1000.392 229711856 230336880 230873728 231319472 231674400 231948768 
1003.285 232163616 232345968 232523024 232712832 232923088 233155472 
1006.178 233412592 233705504 234056288 234491632 235036704 235706176 
1009.070 236500032 237405904 238404864 239480528 240619024 241809504 
1011.963 243039760 244291232 245540704 246768192 247962464 249129456 
1014.856 250290656 251476672 252712752 254010384 255362096 256746464 
1017.748 258137904 259516208 260873504 262212848 263542736 264870192 
1020.641 266200064 267537776 268894336 270291840 271760928 273330368 
1023.534 275018976 276824608 278724768 280680352 282649152 284595840 
1026.427 286492064 288314720 290036544 291616288 293004064 294146016 
1029.320 294995680 295527712 295735840 295626528 295206560 294474176 
1032.213 293417568 292023872 290289536 288230656 285881152 283288256 
1035.106 280498272 277546656 274460736 271263744 267984304 264665728 
1037.999 261362784 258134160 255037072 252114928 249399776 246919088 
1040.892 244699936 242775056 241181504 239948944 239093616 238609872 
1043.785 238472064 238640000 239070800 239730048 240591856 241637232 
1046.678 242848480 244200176 245659392 247191216 248761248 250344544 
1049.571 251923168 253479424 254989408 256417664 257716768 258840912 
1052.464 259754512 260439984 260899600 261145360 261187488 261024176 
1055.357 260638512 260003024 259090928 257879520 256352848 254499040 
1058.250 252302288 249742656 246803552 243480448 239794256 235794656 
1061.144 231560032 227179568 222739808 218318336 213971872 209742576 
1064.037 205664944 201764816 198063984 194575728 191300112 188224992 
1066.930 185327568 182583744 179973120 177483696 175112080 172857824 
1069.823 170717824 168682880 166737072 164862656 163044928 161274144 
1072.716 159545872 157856944 156200816 154566112 152937968 151302800 
1075.609 149654496 147996880 146344384 144716144 143132224 141609568 
1078.502 140160112 138793376 137519104 136347344 135288544 134349296 
1081.395 133529856 132823184 132216944 131699128 131262168 130905944 
1084.288 130637336 130466368 130401808 130447496 130602864 130864920 
1087.181 131231416 131702544 132280040 132963344 133745432 134611376 
1090.074 135538096 136498752 137470496 138436528 139388416 140324944 
1092.967 141248144 142161168 143067728 143974640 144893280 145839088 
1095.860 146830896 147883776 149003408 150183232 151405664 152645072 
1098.753 153872192 155061168 156187760 157227568 158156896 158949632 
1101.646 159581552 160038112 160316864 160431584 160406608 160272880 
1104.540 160058720 159784768 159465312 159111008 158731664 158338848 
1107.433 157941968 157543760 157133344 156685536 156162976 155519552 
1110.326 154712240 153704352 152466768 150980272 149232768 147220768 
1113.219 144951840 142450304 139758992 136932896 134039208 131144288 
1116.112 128302336 125557408 122938520 120462152 118138112 115969920 
1119.005 113955480 112085424 110342816 108703424 107137160 105614832 
1121.898 104110128 102600960 101070936 99506352 97894672 96226336 94495096 
1125.273 92702840 90860896 88990768 87121576 85282928 83503600 81806728 
1128.648 80207160 78714368 77331800 76058056 74886728 73805928 72799776 
1132.024 71848128 70931384 70034320 69148224 68273680 67419696 66602148 
1135.399 65838836 65149204 64551756 64062068 63694804 63461864 63370564 
1138.774 63423896 63618228 63944688 64389056 64935060 65567284 66270976 
1142.149 67033804 67844616 68690944 69560112 70438736 71313920 72176896 
1145.525 73022728 73851096 74664272 75465968 76260032 77050912 77844624 
1148.900 78649800 79477120 80337904 81241112 82190440 83183856 84214144 
1152.275 85272848 86351728 87445808 88553064 89671456 90797304 91923576 
1155.650 93039448 94132384 95189960 96199128 97146656 98015528 98782640 
1159.026 99420904 99899072 100186248 100257952 100095624 99687312 99026176 
1162.401 98107344 96928112 95489272 93797648 91868104 89722656 87390544 
1165.776 84902928 82290264 79583960 76814128 74011048 71207840 68435472 
1169.151 65723060 63095220 60568696 58153860 55856216 53678000 51620232 
1172.527 49684272 47870984 46180600 44611792 43161588 41825400 40597380 
1175.902 39471872 38442736 37503944 36649440 35872468 35166576 34525868 
1179.277 33945820 33423800 32959600 32553922 32208394 31923826 31700254 
1182.652 31536646 31431518 31384036 31393834 31461510 31587814 31773470 
1186.028 32018128 32320492 32678402 33087950 33544090 34039736 34564328 
1189.403 35104392 35644404 36166940 36657116 37104504 37503688 37855484 
1192.778 38165164 38440708 38690236 38920992 39138888 39347860 39550292 
1196.153 39746796 39936224 40115384 40279236 40422932 40541612 40631468 
1199.529 40690888 40718872 40714724 40677060 40604112 40493596 40344352 
1202.904 40155832 39928196 39660932 39351128 38992572 38576264 38091364 
1206.279 37528652 36882648 36153940 35349204 34481920 33570116 32633748 
1209.654 31695298 30777260 29899138 29079858 28334372 27673106 27102702 
1213.030 26625544 26240028 25942040 25726376 25587178 25518968 25517106 
1216.405 25576812 25693470 25862662 26079944 26341410 26644462 26987178 
1219.780 27368136 27786374 28239948 28726848 29245058 29792984 30370276 
1223.155 30977124 31614184 32281194 32977082 33699180 34444112 35208328 
1226.531 35988036 36778920 37575504 38370012 39152520 39911124 40632852 
1229.906 41305964 41919500 42463968 42931496 43314812 43608368 43809828 
1233.281 43921076 43950404 43911068 43822288 43706156 43584996 43482292 
1236.656 43419820 43417840 43495916 43670908 43956236 44360964 44888336 
1240.031 45535180 46292236 47146220 48079280 49070056 50095864 51129656 
1243.407 52141584 53102784 53984272 54762004 55420420 55951524 56355748 
1246.782 56640140 56817412 56903940 56918932 56883996 56818960 56739356 
1250.157 56653200 56557816 56440340 56279136 56050964 55734748 55316804 
1253.532 54793536 54171572 53465088 52691700 51871364 51023136 50162132 
1256.908 49301164 48448192 47607064 46777744 45958440 45146596 44341516 
1260.283 43545544 42763460 42002964 41271748 40576608 39922968 39314308 
1263.658 38753192 38242044 37783512 37380204 37034424 36747112 36517476 
1267.033 36343432 36222256 36150988 36127652 36150988 36219988 36332912 
1270.409 36486768 36676764 36896788 37140664 37401800 37674476 37953252 
1273.784 38232892 38508660 38777140 39036688 39288772 39537264 39787644 
1277.159 40043580 40304940 40565800 40814660 41035040 41209004 41321304 
1280.534 41360516 41321524 41205400 41019088 40774008 40484104 40166080 
1283.910 39835908 39507648 39192808 38899140 38631020 38391696 38184012 
1287.285 38012088 37881440 37797572 37764064 37781020 37843988 37944248 
1290.660 38070496 38212304 38360856 38511088 38661728 38814276 38971876 
1294.035 39138740 39320148 39522096 39751188 40014444 40317956 40665852 
1297.411 41060464 41501400 41988076 42519548 43095836 43717804 44385884 
1300.786 45098992 45854328 46647164 47472836 48327000 49207564 50113192 
1304.161 51043112 51994968 52964448 53945704 54933020 55922204 56911156 
1307.536 57898764 58883504 59861200 60824488 61763176 62666268 63523948 
1310.912 64328648 65074064 65754136 66361188 66885404 67316728 67645712 
1314.287 67865920 67974016 67969016 67850192 67616824 67268256 66806444 
1317.662 66238328 65578340 64846412 64066024 63261732 62453228 61655700 
1321.037 60879608 60131916 59418140 58744344 58115980 57538908 57018292 
1324.413 56558268 56163960 55841748 55599608 55447416 55393996 55444440 
1327.788 55598436 55848796 56182740 56583216 57032308 57513528 58010012 
1331.163 58506304 58986388 59432768 59829792 60163728 60425376 60611400 
1334.538 60722236 60761636 60733516 60641916 60490040 60281076 60019208 
1337.914 59709640 59358348 58972116 58556992 58119012 57663232 57193868 
1341.289 56713948 56224452 55724540 55212188 54685556 54144212 53591544 
1344.664 53035128 52485140 51953552 51451928 50988516 50569528 50199176 
1348.039 49881284 49621120 49425412 49301088 49254512 49288800 49402656 
1351.415 49589996 49840776 50142944 50482316 50845236 51218072 51587056 
1354.790 51940144 52267396 52563144 52827024 53063768 53281688 53488136 
1358.165 53687108 53876116 54047388 54188240 54285208 54328240 54313372 
1361.540 54245188 54136144 54007236 53883656 53789780 53747216 53769040 
1364.916 53859088 54012036 54215420 54451420 54698748 54937044 55148000 
1368.291 55315712 55427572 55471356 55433372 55299824 55056292 54691684 
1371.666 54200964 53587984 52867216 52061380 51203384 50329784 49473828 
1375.041 48662584 47909680 47216108 46572212 45963596 45376360 44801852 
1378.417 44239992 43698864 43193248 42738564 42347652 42027824 41779288 
1381.792 41595284 41461772 41359532 41262092 41136876 40949688 40662652 
1385.167 40242480 39668116 38938204 38078200 37137960 36184080 35278868 
1388.542 34465492 33764284 33173274 32678186 32259390 31898118 31577624 
1391.917 31282790 31000896 30721780 30440426 30159256 29889376 29647476 
1395.293 29448330 29300210 29200970 29139808 29101506 29072560 29045778 
1398.668 29022006 29009538 29018534 29057716 29128220 29224856 29336934 
1402.043 29453188 29563800 29663262 29751466 29832872 29915146 30006206 
1405.418 30112554 30237968 30383282 30547344 30728180 30923502 31131086 
1408.794 31349416 31578228 31818818 32074240 32348800 32647572 32974898 
1412.169 33333346 33723568 34144568 34594612 35071628 35574056 36099820 
1415.544 36645724 37207624 37780476 38359624 38943640 39536868 40149616 
1418.919 40793588 41477924 42201748 42952532 43710040 44453012 45164208 
1422.295 45830944 46448332 47017712 47545656 48040860 48511284 48960932 
1425.670 49388508 49787708 50148260 50458940 50708292 50886696 50988780 
1429.045 51014044 50966872 50855776 50691944 50488532 50259064 50017892 
1432.420 49776712 49542304 49314412 49084748 48839520 48564488 48254756 
1435.796 47925108 47616712 47385652 47284448 47341128 47550644 47882412 
1439.171 48291968 48733972 49164148 49543236 49842708 50042396 50131936 
1442.546 50108396 49972612 49727476 49376816 48926960 48386444 47765444 
1445.921 47076756 46335584 45561528 44783672 44037380 43360320 42784668 
1449.297 42327120 41987672 41753240 41605824 41527904 41507196 41537564 
1452.672 41614136 41728324 41864768 41995888 42083888 42086884 41965152 
1456.047 41701736 41317476 40875232 40450972 40097540 39827552 39621396 
1459.422 39449920 39288992 39127140 38962488 38796304 38625620 38439980 
1462.798 38222508 37956724 37634944 37267008 36879072 36506588 36179148 
1466.173 35908852 35691740 35513172 35357112 35210592 35064984 34912600 
1469.548 34741284 34532108 34259572 33898244 33435072 32880820 32274484 
1472.923 31668744 31108768 30615140 30182342 29789968 29418580 29061258 
1476.299 28725928 28431008 28194230 28026462 27926172 27882958 27883100 
1479.674 27916206 27979670 28078064 28220960 28418096 28677010 29000930 
1483.049 29391494 29850298 30381042 30988262 31674270 32436334 33261300 
1486.424 34123204 34985820 35800932 36512572 37064264 37400752 37479200 
1489.800 37280328 36815448 36127292 35275672 34323896 33318500 32282374 
1493.175 31219198 30119906 28973266 27781074 26563122 25362416 24239430 
1496.550 23252784 22444294 21828932 21398184 21129206 20994502 20969360 
1499.925 21029904 21153348 21318622 21504394 21691396 21863218 22001922 
1503.301 22086422 22088512 21966788 21669176 21143122 20358096 19337502 
1506.676 18171678 16989058 15895290 14935046 14095706 13339296 12627213 
1510.051 11935811 11258939 10605495 9992056 9432743 8936616 8503223 8125150 
1513.908 7791766 7492515 7218567 6963816 6725467 6504771 6306779 6138449 
1517.766 6005525 5907942 5838555 5782912 5722341 5640698 5531954 5406898 
1521.623 5290297 5209876 5180702 5199581 5248408 5303881 5347990 5371405 
1525.481 5377209 5377745 5388279 5419144 5471620 5539236 5613577 5688970 
1529.338 5764981 5844566 5931151 6023835 6116942 6200860 6266909 6313671 
1533.196 6351091 6399038 6476250 6592767 6744177 6916310 7090095 7247946 
1537.053 7376801 7467839 7517259 7524946 7495178 7435547 7356952 7274159 
1540.910 7201925 7151059 7124955 7118521 7119734 7113739 7089691 7044260 
1544.768 6984624 6923683 6875341 6846931 6835452 6829730 6815392 6781970 
1548.625 6726375 6655310 6582506 6522766 6483986 6464513 6454726 6443124 
1552.483 6421770 6390296 6355832 6330077 6323622 6339928 6373887 6412388 
1556.340 6438248 6431152 6370659 6241597 6044397 5806753 5578100 5408945 
1560.198 5323939 5316862 5364964 5441187 5522390 5589847 5632575 5647646 
1564.055 5640698 5624116 5612033 5614919 5635059 5666177 5696893 5716332 
1567.912 5717037 5698773 5668828 5639926 5625996 5636770 5676046 5742486 
1571.770 5832006 5938608 6054779 6171854 6277397 6358656 6405293 6414607 
1575.627 6396920 6374055 6372811 6410673 6490813 6603666 6734754 6871234 
1579.485 7005164 7134689 7262366 7392743 7529328 7673680 7824792 7980042 
1583.342 8136629 8292057 8443588 8587805 8720338 8836343 8932151 9007311 
1587.199 9064316 9110365 9154490 9206099 9273792 9363333 9478086 9619665 
1591.057 9788096 9981275 10193296 10415094 10632658 10829643 10990898 
1594.432 11104689 11165880 11176521 11145448 11085144 11008366 10927116 
1597.807 10851080 10787182 10741906 10720578 10727370 10763915 10828828 
1601.183 10917433 11023082 11138649 11258021 11376814 11491931 11600987 
1604.558 11701390 11790275 11864603 11922563 11963433 11988059 11997731 
1607.933 11992691 11971777 11931758 11869575 11784112 11678482 11560390 
1611.308 11441546 11333891 11245712 11179479 11130728 11089461 11042046 
1614.684 10976150 10882811 10761640 10623117 10488135 10380954 10319942 
1618.059 10312443 10353975 10432844 10532502 10635952 10728355 10796557 
1621.434 10833278 10838374 10820676 10794554 10776890 10780117 10808650 
1624.809 10858689 10921714 10987806 11049218 11101087 11142048 11174073 
1628.185 11201442 11229425 11263598 11308997 11368243 11442125 11528132 
1631.560 11620793 11711329 11788777 11841143 11856193 11825412 11747413 
1634.935 11633147 11505472 11393685 11323110 11303895 11331136 11389535 
1638.310 11461482 11530651 11585128 11620010 11636585 11641690 11644991 
1641.686 11655236 11676339 11706428 11737507 11757285 11752928 11712248 
1645.061 11628553 11503533 11350046 11190188 11050475 10955116 10917127 
1648.436 10937004 11004560 11103058 11209942 11296515 11329708 11270297 
1651.811 11084635 10765105 10358556 9961576 9666654 9513206 9478932 9515068 
1655.669 9573326 9621054 9641719 9630539 9591786 9533391 9463829 9388014 
1659.526 9306255 9214764 9108165 8981366 8832825 8665712 8488626 8314483 
1663.384 8156312 8024626 7923821 7852154 7802190 7763026 7722010 7666024 
1667.241 7584116 7470098 7323826 7153249 6972705 6799707 6649455 6531006 
1671.098 6445647 6388245 6348468 6312360 6265094 6192356 6085086 5943143 
1674.956 5780696 5622236 5492155 5405456 5361308 5346917 5343596 5335243 
1678.813 5313809 5280000 5242505 5211854 5194517 5186704 5174163 5133659 
1682.671 5042406 4887500 4680563 4459164 4274081 4161330 4126239 4148885 
1686.528 4200170 4255979 4299379 4322335 4324343 4309585 4285023 4258488 
1690.385 4238412 4231754 4243397 4273780 4318052 4365675 4400183 4404166 
1694.243 4363500 4275921 4157047 4039678 3959755 3936215 3963867 4016435 
1698.100 4059711 4058239 3987308 3844344 3658453 3482329 3363371 3321600 
1701.958 3343637 3400371 3460385 3500065 3505877 3473945 3410489 3328746 
1705.815 3244914 3170945 3112739 3069524 3037091 3010265 2985376 2961155 
1709.673 2937836 2917321 2901210 2890636 2885266 2884065 2884666 2884732 
1713.530 2882197 2874759 2860050 2835136 2795717 2737596 2659145 2563977 
1717.387 2462898 2372937 2311441 2288257 2303846 2349017 2410152 2472562 
1721.245 2524116 2557544 2571043 2567743 2554145 2537847 2524583 2517051 
1725.102 2514884 2516351 2519017 2520950 2520750 2517484 2511252 2503153 
1728.960 2495789 2493156 2499188 2515317 2538180 2559111 2564077 2536247 
1732.817 2463864 2346951 2205159 2072168 1983286 1956159 1985649 2051128 
1736.675 2127171 2192304 2230503 2234399 2206491 2157705 2102998 2056421 
1740.532 2026193 2012246 2009782 2011946 2013877 2013477 2011413 2009216 
1744.389 2008817 2010847 2014576 2018903 2022631 2024928 2025261 2023297 
1748.247 2017505 2005987 1986715 1958289 1921778 1881444 1844573 1819352 
1752.104 1812065 1824243 1852726 1890129 1926704 1952065 1958655 1943079 
1755.962 1908067 1862110 1817289 1784250 1768247 1767681 1774934 1780524 
1759.819 1774735 1751846 1711726 1659936 1606589 1562326 1535625 1529673 
1763.677 1542541 1568545 1600137 1629603 1650357 1657841 1651355 1634592 
1767.534 1614205 1598906 1594783 1602698 1617497 1628472 1624548 1596678 
1771.391 1543339 1472485 1400412 1344803 1316520 1317018 1338655 1370729 
1775.249 1403071 1430430 1451806 1469526 1485817 1501477 1514544 1521194 
1779.106 1518667 1507129 1490338 1475111 1467830 1471487 1484454 1500645 
1782.964 1513380 1516938 1509822 1494661 1477272 1464206 1459585 1464738 
1786.821 1477970 1496622 1517470 1537719 1554545 1564089 1561362 1541444 
1790.678 1501111 1440636 1366873 1291794 1228224 1186559 1170079 1175295 
1794.536 1194699 1220515 1246234 1268432 1286045 1299205 1307646 1310471 
1798.393 1306184 1293821 1273616 1248294 1221944 1199284 1183734 1176857 
1802.251 1177754 1184632 1195263 1208388 1223307 1239522 1256668 1273782 
1806.108 1289368 1302163 1311169 1315888 1316287 1312365 1304389 1292359 
1809.966 1277271 1260191 1243808 1230783 1223207 1221944 1225633 1231780 
1813.823 1237030 1238924 1236398 1230617 1223905 1219186 1219120 1224769 
1817.680 1235601 1250022 1266372 1283021 1299205 1315057 1330279 1344105 
1821.538 1355373 1361621 1360259 1349523 1328983 1300900 1270559 1244340 
1825.395 1229121 1228822 1243210 1267335 1293289 1311435 1313595 1295981 
1829.253 1260756 1215930 1173169 1143701 1133768 1143435 1167488 1198453 
1833.110 1229587 1256436 1277604 1294187 1308311 1321206 1332905 1342178 
1836.968 1347562 1348925 1348393 1349191 1355705 1370895 1395127 1425709 
1840.825 1457059 1482359 1494129 1487246 1459818 1415105 1362120 1312266 
1844.682 1277338 1264909 1275842 1305054 1344903 1386418 1422285 1449246 
1848.540 1467298 1479167 1488743 1498883 1510155 1521293 1529506 1532599 
1852.397 1530304 1523920 1515608 1507362 1499980 1492001 1481727 1467730 
1856.255 1450310 1431560 1414939 1402972 1396789 1394927 1394528 1392434 
1860.112 1386850 1377775 1367106 1357168 1349423 1344172 1341147 1339153 
1863.969 1338588 1340117 1344139 1350221 1355340 1354509 1342277 1315523 
1867.827 1274812 1226962 1182173 1151043 1140644 1152272 1180412 1216694 
1871.684 1253046 1283253 1304290 1316387 1321006 1320043 1315157 1307580 
1875.542 1298175 1288969 1281990 1278833 1280129 1285048 1290963 1295815 
1879.399 1297709 1296845 1294718 1293588 1294552 1297443 1300401 1300999 
1883.257 1297643 1290564 1281392 1273217 1268233 1266837 1267668 1267800 
1887.114 1263979 1254342 1239489 1221579 1204533 1192572 1188054 1191941 
1890.971 1203304 1219917 1238625 1256602 1270957 1279631 1281758 1277836 
1894.829 1269562 1259792 1250853 1244008 1239455 1235834 1231248 1225034 
1898.686 1217492 1210082 1205331 1204733 1208454 1215897 1224835 1233408 
1902.544 1241416 1249690 1259061 1270991 1285314 1299836 1312498 1320807 
1906.401 1323665 1321505 1316420 1309873 1303592 1298341 1293854 1289966 
1910.259 1286709 1284450 1284250 1286743 1291761 1298407 1305852 1312498 
1914.116 1317484 1319644 1316885 1306151 1285048 1251817 1207756 1158750 
1917.973 1112773 1079322 1064242 1067929 1084305 1104335 1117590 1117025 
1921.831 1101412 1074506 1043849 1017046 999345 990810 989016 989548 989780 
1926.170 989448 990743 995459 1004891 1018142 1032290 1045011 1055241 
1930.028 1063246 1071118 1080518 1090948 1100449 1106096 1105265 1098057 
1933.885 1087128 1076034 1068527 1066103 1067398 1070454 1073344 1075635 
1937.743 1079256 1086796 1098522 1111942 1121775 1120745 1103339 1068992 
1941.600 1022460 973275 932564 908723 904307 917821 943223 973806 1005787 
1945.940 1036143 1063180 1085833 1101645 1107989 1103305 1088324 1065239 
1949.797 1039332 1014954 993998 976895 960789 942791 921473 898164 874259 
1954.137 852447 832860 813240 789605 758570 718675 672213 624694 580863 
1958.476 543970 515374 491423 469398 447606 426677 409265 399150 396099 
1962.816 397359 397823 390361 371425 340585 301226 259649 222121 193048 
1967.156 173292 162983 159801 161856 167723 175778 182971 188043 188871 
1971.495 185258 179159 173657 171204 173690 180651 189899 201667 218474 
1975.835 245791 290848 358094 446180 546525 645898 730490 791497 828013 
1980.174 845906 856198 870209 894047 929675 973474 1018873 1058530 1088424 
1984.514 1105000 1108554 1100482 1083342 1061187 1039298 1023489 1018441 
1988.371 1027375 1047768 1073709 1098057 1113072 1114666 1105730 1092111 
1992.229 1082345 1083475 1097559 1121443 1149182 1174033 1191443 1201377 
1996.086 1206593 1210448 1216395 1225333 1235767 1246234 1255140 1261321 
1999.944 1264909 1265508 1260157 1245636 1217691 1173601 1114434 1045111 
2003.801 973076 907295 856995 825888 816029 826419 853210 892387 939736 
2008.141 989680 1036409 1075270 1101844 1114999 1115596 1106461 1090782 
2011.998 1071583 1049761 1024718 996754 965870 934921 907561 888237 879140 
2016.338 880700 889665 901684 912707 920975 925126 926985 927716 927882 
2020.677 928579 930206 933693 941097 954247 972611 995226 1018607 1039132 
2025.017 1053448 1062050 1066202 1069424 1074539 1081947 1089155 1093240 
2028.874 1090517 1080319 1066069 1051920 1043816 1046938 1063113 1092011 
2032.732 1133170 1185495 1247995 1320707 1400911 1483689 1563956 1634825 
2036.589 1691169 1733549 1764488 1789673 1815791 1847701 1887301 1934392 
2040.447 1987114 2041806 2096738 2149147 2195401 2231768 2253550 2256581 
2044.304 2240494 2208589 2167828 2129468 2106094 2106727 2137793 2198598 
2048.161 2282461 2378834 2473795 2554378 2609442 2633976 2627542 2595975 
2052.019 2549912 2500121 2458566 2433109 2425712 2433709 2451169 2470129 
2055.876 2485525 2496022 2503054 2510552 2522483 2540780 2564477 2592275 
2059.734 2620975 2649177 2676915 2704687 2732294 2759436 2783579 2801920 
2063.591 2812992 2817094 2816193 2814192 2814759 2819862 2829900 2843274 
2067.448 2857149 2869723 2879762 2886967 2891970 2895539 2897441 2897741 
2071.306 2896573 2893705 2890069 2886567 2883798 2882331 2883065 2886133 
2075.163 2892204 2902577 2917188 2935702 2956118 2975500 2990146 2998454 
2079.021 2999989 2996953 2992949 2991214 2993483 2999788 3007462 3013034 
2082.878 3014702 3011032 3003192 2993750 2984808 2977636 2972164 2967493 
2086.736 2961655 2954283 2945109 2934300 2923192 2912117 2901210 2890803 
2090.593 2881764 2874693 2870990 2871491 2875760 2882497 2889469 2894272 
2094.450 2896407 2896340 2895306 2895039 2896340 2898174 2899342 2898441 
2098.308 2895306 2891737 2891270 2897174 2911183 2933400 2960121 2987210 
2102.165 3010698 3027781 3038392 3044632 3048702 3053207 3060014 3069324 
2106.023 3081404 3096587 3115008 3136735 3161766 3188468 3215038 3239606 
2109.880 3261405 3280635 3299531 3320565 3345274 3374224 3405914 3436839 
2113.738 3464159 3485034 3497827 3502804 3501000 3493852 3482896 3470104 
2117.595 3455976 3441949 3428724 3416567 3405347 3394727 3383874 3372287 
2121.452 3361167 3351217 3344405 3342001 3343738 3347644 3350983 3350683 
2125.310 3344305 3331884 3314489 3294089 3273056 3251891 3229291 3203822 
2129.167 3172980 3135233 3091381 3043230 2993650 2946777 2905446 2870990 
2133.025 2845309 2827299 2815160 2806322 2797084 2783145 2762337 2733794 
2136.882 2698685 2661079 2625976 2596742 2575743 2562344 2553145 2545246 
2140.740 2535747 2523116 2507852 2490923 2472029 2450502 2424179 2390361 
2144.597 2348517 2300815 2249620 2199930 2155907 2118780 2088149 2062147 
2148.454 2037379 2010481 1979924 1943145 1897850 1843076 1776099 1696458 
2152.312 1604627 1501244 1387648 1265109 1133303 993101 847732 706329 583617 
2156.651 499882 475899 525558 651340 838072 1058231 1280495 1475809 1627973 
2160.991 1733449 1799022 1835989 1856686 1871427 1885404 1902542 1924308 
2164.848 1951300 1982520 2016307 2048298 2074299 2091711 2098869 2098403 
2168.706 2094907 2092077 2092810 2097371 2102765 2104430 2099735 2087017 
2172.563 2067374 2045468 2024762 2008251 1998764 1995635 1997766 2003990 
2176.421 2011613 2017605 2019769 2015208 2002426 1983819 1963648 1948204 
2180.278 1944510 1956292 1983020 2019835 2058884 2091711 2113120 2122875 
2184.135 2123808 2122209 2123208 2129035 2139757 2153243 2165863 2175187 
2187.993 2181614 2184911 2186276 2187475 2188208 2189207 2191605 2196433 
2191.850 2205358 2219546 2237697 2256881 2273834 2284826 2288224 2285326 
2195.708 2279230 2273934 2273568 2278897 2290022 2304612 2320235 2335325 
2199.565 2349783 2363542 2377468 2391660 2405421 2417615 2428077 2436408 
2203.423 2443505 2450169 2457367 2465131 2473428 2481759 2489990 2498755 
2207.280 2509019 2521050 2535047 2550312 2565277 2579243 2591409 2601875 
2211.137 2611575 2621475 2631409 2640843 2649878 2657512 2664879 2673947 
2214.995 2686083 2703020 2725359 2751800 2780111 2808056 2833336 2854314 
2218.852 2870990 2882698 2889002 2890803 2888235 2882431 2876027 2871691 
2222.710 2871457 2876827 2887267 2900176 2913785 2925327 2933800 2940272 
2226.567 2946343 2953716 2963957 2977135 2992282 3008463 3024912 3041128 
2230.425 3057678 3074830 3092549 3110870 3129826 3148716 3167907 3187967 
2234.282 3208362 3228457 3246984 3262140 3273591 3282371 3290183 3300767 
2238.139 3317026 3339530 3366744 3395529 3420875 3439411 3450432 3454807 
2241.997 3456344 3459383 3466196 3477653 3492483 3507681 3520374 3529293 
2245.854 3533635 3534704 3534003 3532900 3532266 3532867 3534771 3538746 
2249.712 3545527 3555950 3570315 3589057 3611743 3637737 3667342 3700524 
2253.569 3737051 3776288 3816666 3855108 3888371 3912878 3926218 3927823 
2257.427 3918595 3900741 3877239 3851765 3826226 3802827 3783107 3767364 
2261.284 3755633 3748147 3743835 3742098 3742365 3744337 3748147 3754931 
2265.141 3765426 3780266 3800053 3823485 3849057 3875166 3899404 3920434 
2268.999 3937151 3949456 3957314 3962129 3964804 3966041 3967245 3968315 
2272.856 3969251 3969351 3967947 3964704 3960055 3955240 3952131 3952331 
2276.714 3957146 3965940 3977945 3990752 4002557 4012021 4019411 4025163 
2280.571 4031818 4041283 4054828 4073156 4096168 4122392 4150290 4178023 
2284.428 4203114 4223456 4237442 4243632 4242059 4234263 4221984 4208635 
2288.286 4197393 4190033 4187691 4189632 4193947 4197828 4199200 4196022 
2292.143 4187725 4175313 4160192 4144670 4131189 4121388 4115936 4114765 
2296.001 4116437 4118712 4119883 4118277 4113360 4106035 4097506 4089545 
2299.858 4083424 4079545 4077370 4075665 4073256 4068875 4062286 4053758 
2303.716 4043858 4033156 4022421 4011586 4000717 3989682 3978246 3966275 
2307.573 3953569 3939760 3924580 3908097 3890678 3873127 3857047 3843943 
2311.430 3834415 3829034 3826827 3826025 3824788 3821513 3814894 3804933 
2315.288 3791730 3775586 3757672 3738588 3719272 3700892 3684617 3671719 
2319.145 3663365 3660358 3662363 3669012 3678636 3689062 3697349 3700290 
2323.003 3694542 3677366 3647026 3603858 3550271 3490879 3430995 3376328 
2326.860 3331183 3297428 3274559 3260304 3251290 3244513 3238838 3234165 
2330.718 3232229 3234799 3242577 3255463 3272422 3291452 3310683 3329046 
2334.575 3345474 3359899 3372521 3382973 3391755 3399536 3407050 3415165 
2338.432 3425017 3436438 3449063 3462122 3474179 3484733 3493852 3502102 
2342.290 3510085 3518470 3527789 3538412 3552309 3572587 3603557 3650033 
2346.147 3715662 3800889 3902714 4014161 4126573 4230516 4316948 4379130 
2350.005 4413304 4418727 4397806 4355936 4300416 4238245 4176016 4118545 
2353.862 4068440 4026535 3992424 3964871 3942200 3923209 3906191 3890210 
2357.719 3874932 3860356 3846717 3835184 3825992 3819641 3816265 3815295 
2361.577 3816164 3818805 3823117 3829502 3838828 3852133 3870118 3893453 
2365.434 3922240 3956010 3994665 4037504 4084160 4134802 4189297 4247246 
2369.292 4308715 4372771 4438141 4503756 4568644 4631599 4692856 4752646 
2373.149 4811642 4871114 4932504 4996652 5064765 5137616 5215073 5297207 
2377.007 5383247 5471821 5561856 5652178 5741646 5829487 5915868 6000553 
2380.864 6084045 6166578 6248085 6328161 6406302 6481329 6552164 6617998 
2384.721 6678055 6732163 6780658 6823974 6862785 6897458 6928026 6953984 
2388.579 6975095 6991022 7001864 7008699 7013145 7017084 7022203 7029712 
2392.436 7039613 7051433 7063860 7075546 7085616 7093935 7100738 7107171 
2396.294 7114749 7124416 7137080 7153249 7172382 7193672 7216108 7238714 
2400.151 7260782 7282211 7303203 7324702 7347583 7372589 7399989 7429683 
2404.009 7461232 7494032 7528182 7564190 7603167 7646229 7694522 7748184 
2407.866 7806845 7869159 7933471 7998436 8062903 8126164 8188152 8248729 
2411.723 8307492 8364304 8418960 8471225 8522009 8571786 8621467 8671694 
2415.581 8722367 8773113 8822986 8871512 8918013 8962593 9005958 9048144 
2419.438 9089725 9130701 9170462 9208637 9245359 9280426 9314650 9348774 
2423.296 9383071 9417641 9451875 9484791 9515373 9543316 9568211 9590940 
2427.153 9612788 9634876 9658862 9686169 9717477 9753870 9795993 9843949 
2431.010 9897877 9957101 10020469 10086255 10152695 10218059 10280923 
2434.386 10341182 10399449 10456840 10515495 10576874 10641929 10711578 
2437.761 10785314 10862631 10943155 11026480 11112643 11202258 11295665 
2441.136 11393447 11495300 11601089 11709764 11820849 11933734 12048352 
2444.511 12165044 12284698 12407898 12535873 12669889 12810431 12958256 
2447.887 13113200 13274519 13440238 13608688 13777374 13944483 14108987 
2451.262 14270813 14430371 14588445 14745103 14899623 15050596 15195994 
2454.637 15333306 15460978 15577114 15680503 15770171 15844874 15903300 
2458.012 15944235 15967060 15971081 15956610 15923612 15872367 15802778 
2461.388 15715063 15609296 15486867 15349576 15199426 15039654 14872637 
2464.763 14699447 14521221 14338205 14150267 13957930 13762531 13565544 
2468.138 13369570 13177201 12990518 12811899 12643110 12485435 12340157 
2471.513 12208083 12089334 11983665 11890075 11806924 11732571 11665651 
2474.889 11604764 11549093 11498259 11451684 11408992 11369672 11333415 
2478.264 11299678 11268801 11240816 11215314 11192398 11170980 11149833 
2481.639 11127940 11104281 11078415 11050747 11022130 10993550 10966159 
2485.014 10940606 10917501 10897012 10879176 10863786 10850401 10838884 
2488.390 10828319 10818230 10808209 10798086 10788168 10779099 10771422 
2491.765 10765512 10761708 10759534 10758854 10759466 10760927 10763338 
2495.140 10766905 10771422 10776381 10781646 10786333 10790375 10794078 
2498.515 10797746 10802298 10808786 10817346 10827843 10839971 10852541 
2501.891 10864431 10874929 10883559 10890320 10895790 10901090 10907443 
2505.266 10916175 10928272 10943970 10962999 10983966 11005376 11025121 
2508.641 11041910 11054384 11062609 11066994 11067878 11066042 11061997 
2512.016 11055574 11046907 11035827 11022266 11006157 10987772 10967349 
2515.392 10944990 10921510 10897183 10873061 10849925 10828285 10808514 
2518.767 10790715 10774309 10759228 10745575 10733382 10723260 10715585 
2522.142 10710117 10705940 10701933 10696533 10688926 10679349 10668788 
2525.517 10659416 10652964 10651097 10653711 10660639 10670079 10680504 
2528.893 10690353 10698876 10705668 10710728 10714023 10716061 10717046 
2532.268 10717555 10718268 10719933 10723635 10729408 10737185 10746458 
2535.643 10756239 10766021 10775158 10784023 10792855 10802230 10812523 
2539.018 10823801 10835894 10848702 10861815 10875642 10889776 10904250 
2542.394 10919438 10934795 10950256 10965990 10981553 10997083 11012547 
2545.769 11027160 11040619 11052481 11062201 11070291 11077327 11084056 
2549.144 11091535 11100372 11110808 11122808 11136405 11151023 11166492 
2552.519 11182470 11198620 11214022 11228269 11240952 11251595 11261149 
2555.895 11270365 11279852 11290259 11301276 11311785 11320934 11327226 
2559.270 11330082 11329912 11327634 11324028 11320151 11316240 11311921 
2562.645 11306786 11300767 11293625 11286178 11279139 11273324 11269141 
2566.020 11266454 11264958 11264244 11263666 11262986 11261898 11260197 
2569.396 11257613 11254178 11250609 11247854 11247616 11251391 11260300 
2572.771 11274242 11292639 11313451 11334741 11355080 11374025 11391610 
2576.146 11408992 11426953 11445731 11465224 11484582 11503397 11521599 
2579.521 11539837 11558995 11580433 11604697 11631854 11661022 11691246 
2582.896 11721440 11750852 11779244 11806549 11832869 11858576 11883536 
2586.272 11907715 11931350 11954646 11977772 12001445 12025630 12050429 
2589.647 12075775 12101327 12126778 12152231 12177311 12202085 12226554 
2593.022 12250513 12274200 12297889 12322125 12347146 12373566 12401181 
2596.397 12429514 12458189 12486322 12513535 12540000 12566192 12592899 
2599.773 12620699 12650001 12680568 12712228 12744710 12777876 12812001 
2603.148 12847460 12884389 12922857 12962694 13003388 13044633 13086529 
2606.523 13128807 13172010 13216447 13262050 13308614 13355799 13402887 
2609.898 13449705 13495914 13541410 13586261 13630125 13672626 13713215 
2613.274 13751586 13787293 13820368 13851017 13879274 13905684 13930181 
2616.649 13953242 13974730 13995295 14015006 14034136 14053095 14071680 
2620.024 14089785 14107549 14124766 14141607 14158484 14175086 14191278 
2623.399 14206684 14220516 14232602 14243113 14252563 14262321 14273826 
2626.775 14288140 14306048 14327452 14351800 14378274 14406154 14434789 
2630.150 14464146 14494156 14524817 14555688 14586869 14617846 14648997 
2633.525 14680494 14713054 14747400 14784045 14823368 14865059 14908504 
2636.900 14953257 14998425 15043599 15088536 15132896 15176675 15219637 
2640.276 15261710 15303238 15344256 15385379 15426851 15469493 15513033 
2643.651 15557504 15602083 15646014 15688507 15729045 15767284 15803363 
2647.026 15837898 15871508 15905052 15939217 15974553 16011612 16050255 
2650.401 16090551 16131952 16174424 16217554 16260961 16304890 16349133 
2653.777 16393965 16439697 16486742 16534891 16584460 16635409 16687399 
2657.152 16740426 16794358 16849018 16904306 16960082 17016382 17073070 
2660.527 17130076 17187330 17245072 17303444 17362686 17423248 17485404 
2663.902 17549294 17614884 17682140 17750340 17819100 17888116 17956830 
2667.278 18025314 18093464 18161520 18229620 18298044 18366858 18436272 
2670.653 18505972 18575892 18645578 18715002 18783814 18852048 18920118 
2674.028 18988512 19058234 19129938 19203870 19280206 19357802 19435828 
2677.403 19512794 19587762 19660178 19730216 19798598 19866436 19934910 
2680.779 20005060 20077790 20153516 20232690 20315666 20402580 20493368 
2684.154 20588308 20686850 20788752 20893666 21001560 21112370 21226652 
2687.529 21344968 21467700 21595100 21726544 21861338 21998438 22136732 
2690.904 22275594 22414498 22553622 22693282 22834276 22976994 23121682 
2694.280 23268514 23417110 23566944 23717778 23869082 24020826 24172938 
2697.655 24325592 24479248 24634010 24790088 24947592 25106242 25266354 
2701.030 25427582 25590202 25754254 25919496 26085996 26253544 26421758 
2704.405 26590352 26758766 26926644 27093354 27257906 27418920 27574946 
2707.781 27724774 27866990 28000626 28125434 28241542 28349616 28450358 
2711.156 28544614 28633544 28717256 28796238 28870100 28938486 29000542 
2714.531 29055166 29101824 29139630 29168402 29188496 29200368 29204868 
2717.906 29202706 29194734 29181478 29163086 29139736 29111214 29077554 
2721.281 29038762 28994766 28946524 28894746 28841028 28786926 28734248 
2724.657 28684724 28639206 28598438 28562448 28530990 28503922 28480784 
2728.032 28461324 28445512 28433024 28423684 28417246 28413744 28413356 
2731.407 28416504 28423612 28434934 28450464 28469710 28491646 28515562 
2734.782 28540650 28566446 28593270 28621300 28650816 28681858 28714212 
2738.158 28746850 28779138 28810188 28839364 28866276 28890710 28912278 
2741.533 28930870 28946242 28958178 28967244 28973726 28978544 28982086 
2744.908 28984848 28986832 28988108 28988816 28989524 28991366 28995864 
2748.283 29004188 29017260 29035114 29057148 29082018 29108450 29135414 
2751.659 29162414 29189772 29217910 29247574 29279330 29313500 29350226 
2755.034 29389332 29430884 29474712 29521310 29570574 29623036 29678270 
2758.409 29736350 29796674 29858426 29920328 29981176 30039510 30094334 
2761.784 30144908 30190832 30231822 30267880 30298966 30324652 30344124 
2765.160 30357200 30363418 30363028 30356418 30344444 30327744 30306746 
2768.535 30281734 30252710 30219744 30183550 30145014 30105664 30066958 
2771.910 30029994 29995270 29962786 29932184 29903076 29875498 29850156 
2775.285 29828188 29810940 29799726 29795468 29798448 29807676 29822368 
2778.661 29840256 29859242 29876706 29890298 29897718 29897220 29887884 
2782.036 29869926 29844122 29811970 29775348 29736030 29695760 29655600 
2785.411 29616260 29577950 29540994 29504784 29469676 29435352 29401952 
2788.786 29369972 29339876 29312332 29287802 29266820 29249700 29236410 
2792.162 29227196 29221986 29221028 29224608 29233112 29246618 29264762 
2795.537 29286882 29311624 29337572 29363096 29386424 29406172 29421204 
2798.912 29430778 29434680 29432906 29425886 29414290 29399080 29380788 
2802.287 29360152 29337252 29312472 29285782 29257746 29228932 29200404 
2805.663 29173044 29147708 29124784 29104660 29086908 29071390 29058104 
2809.038 29047086 29039116 29034336 29033554 29036744 29043508 29053536 
2812.413 29066076 29080530 29096616 29114368 29133890 29155930 29180842 
2815.788 29209438 29241974 29278622 29319172 29362884 29409576 29458792 
2819.164 29510530 29565394 29624276 29687918 29757356 29832942 29914472 
2822.539 30001448 30093342 30189588 30290120 30395258 30505790 30621896 
2825.914 30743722 30870458 31000966 31133792 31267408 31400066 31530946 
2829.289 31658802 31782490 31901326 32014418 32121152 32221560 32315638 
2832.665 32404702 32489822 32572780 32655466 32739706 32827500 32919920 
2836.040 33017832 33121348 33229284 33340752 33454400 33569148 33685144 
2839.415 33803252 33924720 34051564 34185184 34326192 34474604 34629956 
2842.790 34792040 34961328 35138984 35327280 35528528 35745016 35977452 
2846.166 36225680 36487668 36759696 37036224 37310764 37575724 37822228 
2849.541 38042428 38228768 38375840 38481148 38544652 38569852 38561852 
2852.916 38527560 38474956 38411604 38345328 38283156 38231156 38194252 
2856.291 38175760 38177356 38198412 38236944 38289996 38354160 38426044 
2859.667 38503156 38583216 38664988 38747580 38830472 38913196 38995944 
2863.042 39078884 39162240 39246372 39331720 39418204 39505980 39594828 
2866.417 39684708 39775368 39866812 39958712 40050484 40141404 40230744 
2869.792 40317336 40400312 40478720 40551868 40618768 40678876 40731900 
2873.167 40778156 40818268 40854596 40889216 40925036 40964576 41009732 
2876.543 41061624 41120412 41185908 41257792 41335480 41419016 41508508 
2879.918 41604216 41706116 41814164 41928148 42047680 42172536 42302284 
2883.293 42436496 42574692 42716152 42860036 43005644 43151928 43298484 
2886.668 43444756 43590268 43734844 43877892 44019336 44158556 44295320 
2890.044 44429120 44559948 44687732 44812728 44935552 45057120 45178804 
2893.419 45301952 45428192 45558512 45693952 45834996 45981460 46131996 
2896.794 46285344 46437676 46584384 46719296 46835096 46923864 46978944 
2900.169 46995556 46971228 46906924 46806124 46674320 46517588 46342480 
2903.545 46155244 45960688 45763788 45567928 45376432 45191672 45014488 
2906.920 44845312 44683656 44528632 44379352 44235116 44095872 43961844 
2910.295 43833544 43711248 43595104 43484672 43378552 43274944 43171140 
2913.670 43063452 42947848 42820212 42676524 42514176 42331688 42129488 
2917.046 41909576 41675184 41429916 41177568 40921216 40662976 40403656 
2920.421 40143076 39880032 39612868 39339844 39060180 38774096 38483352 
2923.796 38190888 37900568 37616404 37341780 37079204 36829984 36594392 
2927.171 36372004 36162188 35964168 35776856 35599736 35431956 35272472 
2930.547 35121164 34977884 34842980 34717416 34601964 34496988 34402472 
2933.922 34317548 34241108 34172060 34109264 34052208 34000604 33954384 
2937.297 33913004 33875568 33840896 33807692 33774812 33741832 33708132 
2940.672 33673868 33638740 33602156 33562596 33518534 33467676 33407592 
2944.048 33336032 33250388 33148452 33028026 32887612 32726522 32545600 
2947.423 32347016 32134496 31912736 31686746 31461120 31239420 31023920 
2950.798 30815604 30614500 30419920 30230934 30047002 29867902 29693844 
2954.173 29525388 29363626 29209618 29064164 28928074 28801478 28684512 
2957.549 28576886 28478484 28389194 28309262 28238748 28177932 28126634 
2960.924 28084498 28050744 28024378 28004302 27989424 27978858 27971648 
2964.299 27966454 27962002 27956418 27947514 27933308 27911790 27881156 
2967.674 27840210 27787750 27722868 27645104 27554222 27450474 27335072 
2971.050 27209468 27076040 26936938 26794640 26651332 26508812 26368836 
2974.425 26233024 26102920 25980100 25865720 25760022 25662222 25570240 
2977.800 25480986 25390484 25295188 25192506 25080722 24960050 24832188 
2981.175 24699520 24564510 24429892 24297382 24168244 24043308 23923100 
2984.551 23808318 23699826 23598990 23506920 23425118 23354484 23295258 
2987.926 23246946 23208040 23175606 23145550 23113120 23073040 23020106 
2991.301 22950794 22863228 22757942 22637914 22507942 22374518 22243576 
2994.676 22120274 22008198 21908832 21821894 21745666 21678128 21617528 
2998.052 21562194 21511532 21465752 21424848 21389206 21358856 21333204 
3001.427 21311488 21292662 21275506 21258978 21242520 21225400 21207550 
3004.802 21188832 21169352 21149522 21129658 21110318 21092162 21075778 
3008.177 21062006 21051432 21044684 21041798 21042876 21047640 21055850 
3011.552 21067048 21080926 21097240 21115744 21136130 21158602 21183058 
3014.928 21209918 21239874 21273662 21312080 21355826 21404800 21458754 
3018.303 21516442 21576228 21636646 21696240 21753992 21809526 21862766 
3021.678 21913536 21961980 22007638 22049852 22087920 22121042 22148796 
3025.053 22171250 22188616 22201972 22212224 22220524 22227882 22235240 
3028.429 22242844 22250796 22258748 22266210 22272768 22277964 22281974 
3031.804 22284836 22286824 22288288 22289300 22289962 22290520 22291148 
3035.179 22292788 22296276 22302448 22311798 22324494 22339808 22356622 
3038.554 22374064 22391264 22408148 22424966 22442446 22461184 22481560 
3041.930 22503474 22526298 22550028 22573902 22597740 22621368 22644722 
3045.305 22667308 22689162 22710038 22730500 22751202 22773516 22798342 
3048.680 22826350 22857082 22889284 22921172 22951214 22978182 23002392 
3052.055 23025136 23048196 23073598 23102636 23135696 23172252 23211292 
3055.431 23251524 23292076 23332420 23372314 23411794 23450858 23489188 
3058.806 23526612 23562888 23597766 23631386 23663786 23694998 23725268 
3062.181 23754732 23783572 23811850 23839782 23867228 23894184 23920160 
3065.556 23945052 23968230 23990326 24011440 24032522 24054760 24079134 
3068.932 24106244 24136576 24169644 24204676 24240656 24276254 24310384 
3072.307 24342308 24371640 24398488 24423900 24449380 24476478 24506662 
3075.682 24541090 24579972 24622682 24668342 24715444 24763006 24810086 
3079.057 24856396 24902044 24947208 24991918 25036740 25081564 25126780 
3082.433 25172388 25218842 25265828 25313206 25360626 25407696 25454704 
3085.808 25501960 25550208 25600220 25652166 25705528 25759036 25811038 
3089.183 25860060 25905322 25947528 25988226 26029314 26073084 26120442 
3092.558 26171222 26224260 26277726 26329898 26379890 26427674 26474052 
3095.934 26520752 26569286 26621246 26677510 26738398 26803486 26871970 
3099.309 26942334 27012848 27081894 27148586 27212396 27274100 27335318 
3102.684 27397496 27462546 27531026 27602520 27675684 27748756 27819826 
3106.059 27887764 27952566 28014728 28075626 28136780 28199110 28263288 
3109.435 28329596 28397720 28467162 28537536 28608170 28678566 28748232 
3112.810 28816632 28883662 28949392 29013894 29077980 29142322 29207668 
3116.185 29274652 29343810 29415424 29489572 29566210 29644956 29724888 
3119.560 29805262 29884834 29962680 30038338 30111844 30183726 30255162 
3122.936 30327248 30400802 30476040 30552782 30630358 30707982 30785512 
3126.311 30863058 30941506 31021784 31104640 31190466 31278908 31368650 
3129.686 31458232 31546480 31632214 31715400 31796608 31876616 31956568 
3133.061 32037106 32118656 32201328 32285016 32369680 32455400 32542530 
3136.437 32631286 32721664 32813494 32906234 32999460 33092812 33186328 
3139.812 33280578 33376030 33473332 33572264 33672648 33773848 33874888 
3143.187 33975128 34074284 34172384 34269792 34366856 34464128 34561996 
3146.562 34661064 34761524 34863912 34968872 35076336 35186192 35297772 
3149.938 35410208 35522452 35633540 35742892 35850404 35956324 36061404 
3153.313 36166472 36272612 36380648 36491596 36605924 36723388 36843404 
3156.688 36964568 37085448 37204444 37320696 37434088 37545452 37656332 
3160.063 37768116 37882308 37999320 38119400 38241652 38365452 38489940 
3163.438 38614756 38739720 38864928 38990612 39117388 39245608 39376052 
3166.814 39508996 39644884 39783360 39923692 40064836 40205156 40343516 
3170.189 40479304 40612332 40743764 40874616 41006200 41139392 41274516 
3173.564 41410884 41547556 41683428 41817008 41947384 42074328 42197800 
3176.939 42318904 42439052 42560000 42683396 42810556 42941924 43077136 
3180.315 43215464 43355668 43496468 43637088 43777464 43917704 44057988 
3183.690 44198648 44339608 44480544 44621228 44761444 44901712 45042528 
3187.065 45184724 45329352 45477232 45628360 45782892 45939876 46097616 
3190.440 46254896 46409508 46560812 46708372 46853584 46998216 47145040 
3193.816 47296456 47453540 47615788 47781536 47947864 48112148 48273232 
3197.191 48430968 48587056 48743832 48903372 49067016 49234728 49405736 
3200.566 49578668 49752668 49927296 50102408 50278256 50454704 50630952 
3203.941 50806868 50981888 51156232 51330828 51506132 51682884 51860688 
3207.317 52038632 52215452 52390776 52564900 52739620 52916916 53098924 
3210.692 53286444 53478768 53673796 53869064 54062432 54253148 54441652 
3214.067 54629604 54818912 55010220 55203760 55398548 55592976 55786248 
3217.442 55978096 56169236 56361104 56555020 56751664 56951232 57153236 
3220.818 57356768 57560964 57765748 57970820 58177084 58384736 58594116 
3224.193 58805152 59017396 59229816 59441392 59651396 59859492 60065704 
3227.568 60270572 60475148 60680208 60885932 61092520 61299436 61506524 
3230.943 61713940 61922832 62134196 62349676 62569932 62794516 63022160 
3234.319 63251004 63479156 63705892 63931256 64156888 64384060 64613960 
3237.694 64847028 65082648 65319732 65557884 65796964 66037452 66279812 
3241.069 66523896 66768536 67011968 67252632 67489784 67724664 67960376 
3244.444 68200912 68450448 68711320 68983952 69266392 69555832 69848880 
3247.820 70143064 70437528 70732272 71028224 71325984 71626056 71927896 
3251.195 72230968 72534520 72838448 73142664 73448032 73755000 74064616 
3254.570 74377432 74694176 75014784 75338576 75664552 75990840 76315832 
3257.945 76637800 76955848 77270008 77580992 77889856 78197864 78505152 
3261.321 78811976 79117816 79422048 79723944 80022992 80318168 80608560 
3264.696 80892928 81169728 81438312 81698456 81951000 82197088 82438056 
3268.071 82674440 82905936 83132016 83351272 83563240 83768248 83967120 
3271.446 84161016 84350888 84537104 84718768 84895272 85065488 85229224 
3274.822 85386536 85538096 85684536 85826024 85962880 86095032 86223128 
3278.197 86347768 86469736 86589192 86705608 86817728 86924088 87023552 
3281.572 87116024 87203256 87287720 87371984 87458168 87546608 87635792 
3284.947 87723416 87806952 87884432 87955512 88020712 88081744 88140072 
3288.323 88197024 88253288 88309032 88364504 88419576 88474008 88527872 
3291.698 88580656 88631848 88681104 88728208 88773408 88817064 88859632 
3295.073 88900856 88940264 88977224 89010904 89041160 89067880 89091720 
3298.448 89113032 89131784 89147696 89160352 89169216 89174840 89178248 
3301.823 89180976 89184312 89189600 89197176 89206976 89218816 89232696 
3305.199 89249056 89268304 89291376 89318240 89349128 89384096 89422968 
3308.574 89466408 89515352 89570320 89631864 89699680 89773048 89851160 
3311.949 89933928 90022184 90117464 90221568 90335216 90458800 90590824 
3315.324 90729232 90872416 91019728 91171872 91330616 91498296 91676224 
3318.700 91864952 92063552 92270480 92483816 92701816 92922752 93144880 
3322.075 93366368 93585264 93800032 94010256 94217088 94422528 94629064 
3325.450 94838736 95051864 95266944 95480848 95690408 95892496 96085592 
3328.825 96268928 96442616 96606320 96759152 96899824 97027360 97141312 
3332.201 97241976 97330064 97405360 97466776 97511728 97537320 97541096 
3335.576 97522968 97485064 97431560 97367632 97296776 97220800 97138776 
3338.951 97047416 96943568 96824288 96688072 96535432 96367248 96184904 
3342.326 95990072 95783512 95566520 95340064 95105352 94863312 94614104 
3345.702 94357552 94092712 93818992 93536144 93245160 92947464 92645136 
3349.077 92339656 92032224 91723120 91412688 91101208 90789752 90479648 
3352.452 90171736 89865704 89560472 89253896 88943760 88628840 88309080 
3355.827 87986176 87663080 87342120 87025896 86715320 86410672 86111160 
3359.203 85816256 85525056 85237168 84952120 84668800 84386376 84103744 
3362.578 83820488 83536536 83252568 82969536 82687984 82409176 82133424 
3365.953 81861176 81593368 81330728 81074352 80825032 80582560 80346112 
3369.328 80114184 79885168 79657592 79430408 79203416 78976152 78749088 
3372.704 78520992 78291144 78058608 77822272 77582296 77338888 77093408 
3376.079 76846800 76600288 76355064 76111592 75870592 75632520 75397304 
3379.454 75164736 74934056 74703976 74473000 74239824 74003432 73763832 
3382.829 73521768 73278000 73034216 72791776 72552064 72316392 72085704 
3386.205 71860760 71641680 71428104 71218608 71011952 70806792 70601968 
3389.580 70397320 70193232 69990520 69790088 69592928 69399600 69210944 
3392.955 69027416 68849088 68675608 68505848 68337392 68167216 67992928 
3396.330 67812272 67624960 67432656 67238656 67046300 66858732 66677392 
3399.706 66501424 66329108 66157752 65985040 65809496 65630408 65447612 
3403.081 65261164 65070980 64876884 64678676 64476380 64270400 64061492 
3406.456 63850344 63636952 63421444 63203284 62982208 62757992 62531128 
3409.831 62302172 62071308 61838888 61604608 61368124 61129212 60887956 
3413.207 60645304 60401768 60157908 59913804 59669116 59423040 59174604 
3416.582 58923880 58670416 58414680 58156548 57896568 57634400 57370608 
3419.957 57105960 56841884 56580272 56322856 56070456 55823212 55580324 
3423.332 55340096 55101396 54862936 54624340 54385808 54147776 53910480 
3426.708 53673912 53437656 53201720 52965760 52729820 52493628 52257156 
3430.083 52020028 51781688 51541948 51301032 51059468 50818416 50578868 
3433.458 50341616 50107320 49875896 49647236 49421368 49198212 48977844 
3436.833 48759996 48544368 48329816 48115108 47899136 47681272 47461344 
3440.208 47240372 47019704 46800992 46585748 46375108 46169616 45968164 
3443.584 45768868 45568228 45362344 45147184 44920192 44681156 44432936 
3446.959 44180928 43931964 43692596 43466364 43253824 43052072 42856520 
3450.334 42662340 42466088 42266384 42063920 41860500 41657168 41454332 
3453.709 41250796 41045092 40835884 40622700 40406676 40189124 39971788 
3457.085 39755508 39540312 39325588 39110496 38894684 38678172 38461628 
3460.460 38245952 38031580 37819008 37608316 37399704 37193400 36989464 
3463.835 36787612 36586928 36386164 36183832 35978964 35771640 35562620 
3467.210 35353552 35145776 34939964 34735792 34532180 34328236 34123456 
3470.586 33918200 33713648 33511232 33311882 33115376 32920960 32726918 
3473.961 32532316 32336876 32141026 31945870 31752828 31562406 31374634 
3477.336 31189042 31004560 30820192 30634446 30446468 30255020 30059038 
3480.711 29859172 29656346 29453542 29254132 29061648 28878034 28703590 
3484.087 28536014 28371898 28207384 28039786 27868014 27692778 27516094 
3487.462 27340012 27166010 26994584 26825338 26657920 26492224 26328912 
3490.837 26168442 26011058 25856402 25703244 25550034 25395646 25239632 
3494.212 25082406 24925168 24769040 24614476 24461824 24310838 24161062 
3497.588 24012980 23867228 23724322 23584716 23447674 23311724 23174662 
3500.963 23034780 22890926 22743138 22593166 22442794 22294880 22151306 
3504.338 22013494 21882452 21757964 21639502 21525424 21413848 21302058 
3507.713 21187582 21068438 20944186 20815968 20685808 20556974 20432136 
3511.089 20312714 20199402 20091288 19987018 19885236 19784726 19684760 
3514.464 19584540 19483648 19381152 19276396 19169170 19059790 18949052 
3517.839 18838344 18728736 18621162 18515204 18410136 18304230 18196070 
3521.214 18084412 17968676 17848930 17726386 17602290 17478436 17356030 
3524.590 17235832 17117426 16999878 16881570 16761020 16637303 16510731 
3527.965 16382439 16254770 16129477 16008072 15890788 15777009 15665319 
3531.340 15554311 15443159 15330457 15215484 15097010 14973457 14843287 
3534.715 14705856 14562198 14414512 14266739 14123191 13987117 13859945 
3538.091 13741703 13629988 13522883 13418504 13316131 13215832 13118084 
3541.466 13022576 12928523 12833809 12735873 12632604 12522674 12405579 
3544.841 12282482 12154923 12025493 11897124 11772878 11655814 11548072 
3548.216 11450290 11361338 11277676 11194506 11107136 11011935 10907171 
3551.592 10794180 10676565 10558405 10443365 10333446 10228542 10127020 
3554.967 10026844 9926725 9825986 9724999 9624577 9525432 9427765 9331949 
3558.824 9238624 9148095 9061779 8980825 8906548 8839048 8777711 8720744 
3562.682 8665779 8609097 8546812 8474604 8387645 8283007 8159013 8018348 
3566.539 7867100 7714792 7572922 7449637 7349504 7272002 7212200 7163051 
3570.396 7117511 7070258 7017791 6958900 6893856 6824042 6751042 6676978 
3574.254 6603196 6531377 6462024 6395071 6329304 6262741 6193431 6119866 
3578.111 6042112 5961652 5881240 5804167 5733119 5669936 5614886 5567091 
3581.969 5525209 5487457 5451555 5414917 5374055 5324677 5262359 5183150 
3585.826 5085281 4970677 4845414 4718513 4600656 4501011 4424015 4369926 
3589.684 4334149 4309619 4288604 4263641 4229177 4181636 4119983 4045129 
3593.541 3960657 3871622 3782806 3699187 3623637 3557186 3498896 3446892 
3597.398 3398568 3350950 3302235 3251056 3196979 3140606 3083706 3028282 
3601.256 2976668 2930698 2891170 2857783 2828933 2802054 2774775 2743997 
3605.113 2707121 2662012 2606642 2539847 2461998 2375635 2285059 2196800 
3608.971 2116915 2049363 1994337 1947738 1903641 1855055 1797492 1730588 
3612.828 1658206 1587633 1526214 1479034 1446520 1424546 1405664 1381199 
3616.686 1344537 1291129 1220515 1135694 1043483 951989 869943 804145 758536 
3621.025 733510 725810 730324 741177 752662 761590 766602 768660 768727 
3625.365 766768 759034 738489 695277 619883 509071 369767 220927 87648 -8217 
3630.187 -58046 -67853 -52746 -30349 -14181 -12789 -27699 -55131 -88790 
3634.526 -122843 -154045 -182463 -210813 -241711 -276680 -315420 -355415 
3638.384 -393950 -429271 -460981 -490040 -517510 -544183 -568903 -589650 
3642.241 -603448 -608345 -603977 -592297 -577175 -564005 -558611 -565958 
3646.098 -590312 -633325 -695158 -773090 -862814 -958833 -1055030 -1144629 
3649.956 -1221291 -1279373 -1314886 -1326944 -1318091 -1294504 -1264275 
3653.331 -1237712 -1224067 -1230080 -1259584 -1310328 -1374707 -1440430 
3656.706 -1496105 -1533714 -1551311 -1552236 -1543156 -1530313 -1518724 
3660.082 -1510700 -1506903 -1506474 -1508455 -1512054 -1516941 -1522785 
3663.457 -1528926 -1534506 -1538567 -1540383 -1540218 -1540119 -1542793 
3666.832 -1552665 -1574851 -1614103 -1673816 -1753817 -1847891 -1944188 
3670.207 -2026381 -2080036 -2096887 -2079706 -2039045 -1992213 -1958240 
3673.583 -1952632 -1985254 -2055699 -2150401 -2244389 -2313046 -2342147 
3676.958 -2333084 -2298478 -2254871 -2215974 -2189139 -2175062 -2169259 
3680.333 -2166259 -2160457 -2149280 -2133025 -2113472 -2091578 -2067703 
3683.708 -2041024 -2011144 -1979383 -1950587 -1931290 -1929443 -1951346 
3687.083 -1999370 -2070539 -2154720 -2238950 -2310640 -2361624 -2390194 
3690.459 -2399651 -2395203 -2381066 -2360437 -2334930 -2305499 -2273725 
3693.834 -2241587 -2211655 -2186139 -2166622 -2153500 -2146082 -2142982 
3697.209 -2143444 -2146840 -2153896 -2165600 -2183304 -2208557 -2240697 
3700.584 -2278208 -2317397 -2353286 -2380506 -2394577 -2393127 -2376387 
3703.960 -2346629 -2308267 -2266046 -2224677 -2187854 -2158083 -2136784 
3707.335 -2123859 -2119177 -2122738 -2134377 -2154885 -2184491 -2222402 
3710.710 -2266078 -2311003 -2350650 -2378463 -2389271 -2381330 -2355988 
3714.085 -2317990 -2273495 -2228501 -2188579 -2156995 -2135399 -2122771 
3717.461 -2116901 -2115484 -2116341 -2119111 -2124749 -2135036 -2151324 
3720.836 -2173413 -2199227 -2225039 -2246729 -2260936 -2267133 -2266507 
3724.211 -2262584 -2259123 -2258365 -2260541 -2263310 -2262486 -2253520 
3727.586 -2234566 -2205721 -2170644 -2134377 -2102987 -2081520 -2072715 
3730.962 -2076673 -2090984 -2111230 -2134080 -2158017 -2185315 -2219831 
3734.337 -2265221 -2321286 -2382351 -2438137 -2476883 -2489566 -2474510 
3737.712 -2436687 -2385350 -2329327 -2275472 -2226424 -2182249 -2142257 
3741.087 -2107834 -2083466 -2078156 -2102294 -2162567 -2256421 -2365281 
3744.463 -2459915 -2508246 -2494805 -2424990 -2320000 -2205623 -2104536 
3747.838 -2034165 -2003823 -2014443 -2058964 -2125112 -2198403 -2266804 
3751.213 -2322835 -2361986 -2381659 -2380407 -2358361 -2318781 -2267067 
3754.588 -2211227 -2159402 -2117330 -2088775 -2073804 -2070176 -2074760 
3757.964 -2084653 -2098997 -2116440 -2135564 -2152808 -2162567 -2158907 
3761.339 -2138564 -2102690 -2056425 -2008077 -1966354 -1937261 -1922680 
3764.714 -1919580 -1921757 -1922318 -1917468 -1908034 -1898665 -1896619 
3768.089 -1907242 -1932445 -1969685 -2012068 -2050291 -2076837 -2087653 
3771.465 -2082971 -2066879 -2044817 -2022325 -2003196 -1989541 -1981098 
3774.840 -1976843 -1974633 -1972522 -1970147 -1968366 -1969191 -1975095 
3778.215 -1987002 -2003856 -2021896 -2035154 -2037726 -2026381 -2001745 
3781.590 -1967640 -1930630 -1897543 -1872899 -1858779 -1853830 -1854556 
3784.966 -1857129 -1858449 -1857987 -1856766 -1856898 -1859735 -1866235 
3788.341 -1875737 -1886591 -1897543 -1907341 -1915357 -1920734 -1922944 
3791.716 -1920173 -1912190 -1899127 -1882896 -1867390 -1856337 -1852939 
3795.091 -1857888 -1868445 -1878475 -1880619 -1869897 -1845120 -1810772 
3798.467 -1775366 -1750022 -1745963 -1769690 -1821297 -1891242 -1962165 
3801.842 -2013288 -2029283 -2006197 -1951808 -1882137 -1814896 -1768073 
3805.217 -1753751 -1777313 -1834331 -1911135 -1988288 -2046631 -2075584 
3808.592 -2074200 -2049401 -2010914 -1967409 -1924330 -1882829 -1842315 
3811.968 -1801962 -1762265 -1726987 -1702399 -1694346 -1707020 -1738900 
3815.343 -1781635 -1820869 -1841589 -1835122 -1801434 -1750253 -1696161 
3818.718 -1655728 -1642558 -1665168 -1722795 -1805294 -1893320 -1964276 
3822.093 -2003229 -2005406 -1978030 -1934292 -1889296 -1854753 -1836970 
3825.469 -1836310 -1847066 -1861055 -1868577 -1863926 -1846076 -1818922 
3828.844 -1788301 -1760813 -1740748 -1729528 -1725270 -1723851 -1720815 
3832.219 -1712333 -1696854 -1674707 -1648499 -1622026 -1599380 -1585217 
3835.594 -1583666 -1597234 -1626317 -1668337 -1717086 -1764740 -1803348 
3838.969 -1828391 -1838521 -1836805 -1827831 -1817272 -1809221 -1806350 
3842.345 -1809056 -1816018 -1825059 -1832780 -1836607 -1833803 -1822947 
3845.720 -1803348 -1775729 -1741309 -1701871 -1658963 -1613542 -1565607 
3849.095 -1515818 -1465660 -1419030 -1383426 -1368959 -1387753 -1449512 
3852.470 -1555603 -1695105 -1841556 -1964243 -2039408 -2060250 -2035022 
3855.846 -1979548 -1910211 -1838521 -1772198 -1714775 -1667380 -1630344 
3859.221 -1603837 -1587826 -1581685 -1584128 -1592381 -1603638 -1615589 
3862.596 -1627605 -1640082 -1653649 -1666918 -1675103 -1672430 -1652526 
3865.971 -1613212 -1558278 -1497657 -1445086 -1414571 -1416454 -1452451 
3869.347 -1514629 -1584788 -1641601 -1671143 -1669591 -1644736 -1610109 
3872.722 -1579209 -1560919 -1556825 -1561579 -1565706 -1560226 -1539954 
3876.097 -1505450 -1462952 -1421507 -1389768 -1375103 -1381345 -1407008 
3879.472 -1446638 -1489766 -1525360 -1543156 -1538270 -1511790 -1471075 
3882.848 -1427484 -1392707 -1377547 -1387390 -1420483 -1466551 -1510106 
3886.223 -1535001 -1531039 -1497822 -1443138 -1380949 -1325193 -1288293 
3889.598 -1277722 -1295528 -1336490 -1390692 -1446077 -1491152 -1519285 
3892.973 -1528266 -1520209 -1499407 -1470679 -1438217 -1405456 -1375070 
3896.349 -1348844 -1328298 -1313829 -1305802 -1302961 -1304051 -1306463 
3899.724 -1308213 -1307850 -1305108 -1301243 -1298733 -1300516 -1308114 
3903.099 -1321526 -1338604 -1355285 -1367044 -1370413 -1363873 -1348414 
3906.474 -1327571 -1304712 -1283701 -1267018 -1255983 -1250829 -1251126 
3909.850 -1256082 -1264242 -1274814 -1285452 -1293777 -1297477 -1294735 
3913.225 -1285056 -1269826 -1251952 -1235234 -1222844 -1216368 -1215047 
3916.600 -1216500 -1217161 -1213494 -1204407 -1190166 -1172487 -1153816 
3919.975 -1136004 -1119844 -1105831 -1094594 -1086529 -1083125 -1085637 
3923.351 -1094825 -1109962 -1128932 -1148066 -1164358 -1175296 -1180550 
3926.726 -1181442 -1180153 -1178865 -1178799 -1179988 -1181739 -1183392 
3930.101 -1184647 -1186299 -1189472 -1194858 -1201830 -1208438 -1211908 
3933.476 -1209066 -1198426 -1179922 -1155303 -1127775 -1100411 -1075457 
3936.852 -1054435 -1037115 -1022537 -1009976 -999232 -991133 -987033 -988653 
3940.709 -997182 -1012521 -1033479 -1056980 -1079126 -1096643 -1106657 
3944.084 -1108210 -1102724 -1092776 -1081968 -1073242 -1069276 -1070400 
3947.459 -1075721 -1082497 -1088182 -1089504 -1085141 -1074961 -1059459 
3950.835 -1040751 -1020223 -999331 -979298 -960553 -943823 -929706 -918696 
3954.692 -911124 -907454 -907222 -909867 -914728 -920878 -927887 -935227 
3958.550 -943030 -951196 -959991 -969016 -977843 -985810 -992323 -996191 
3962.407 -996951 -994273 -988389 -979827 -969843 -959627 -950006 -941443 
3966.264 -933210 -924746 -914563 -901667 -885994 -868138 -849322 -831497 
3970.122 -816516 -805403 -798888 -797135 -798987 -803783 -810100 -816383 
3973.979 -821245 -823858 -823262 -819955 -815061 -810397 -808281 -810265 
3977.837 -816714 -827198 -840128 -853389 -865294 -874850 -881728 -886325 
3981.694 -889466 -891285 -891748 -890458 -887151 -881828 -875049 -867443 
3985.552 -859606 -851835 -843568 -834275 -823626 -811687 -799550 -788536 
3989.409 -780168 -775009 -773619 -774843 -777754 -781524 -785692 -790256 
3993.266 -795515 -801402 -807322 -811853 -813870 -812316 -807189 -799550 
3997.124 -790818 -782913 -777059 -774248 -773653 -774645 -775637 -775538 
##END=
