
##TITLE=Z305_3_c
##JCAMP-DX=5.01  $$ Nicolet v. 1
##DATATYPE=INFRARED SPECTRUM
##ORIGIN=UniL
##OWNER=Nicolet
##LONGDATE=2011/09/08
##TIME=16:41:29
##SPECTROMETER/DATA SYSTEM=Nicolet iS5
##DATA PROCESSING=
Ratio against background
%Transmittance->Absorbance
Truncated
ElementMultiply or ElementDivide
##COMMENTS=
Number of sample scans: 32
Collection length: 51.22 sec
Sample gain: 2.0
Background collected on: Jeu Sep 08 16:10:46 2011 (GMT+02:00);
Number of background scans: 32
Background gain: 2.0
Sample spacing:  1.000
Number of scan points: 12415
Resolution points: 8192
Number of FFT points: 65536
Apodization: N-B fort;
Phase correction: Mertz;
Laser frequency: 15798.0 cm-1
Number of rejected sample scans: 0
Number of rejected background scans: 0
Bench serial number: ASB1000141;
##RESOLUTION=4.000
##XUNITS=1/CM
##YUNITS=ABSORBANCE
##FIRSTX=649.893372
##LASTX=4000.122314
##FIRSTY=0.134981
##MAXX=4000.122314
##MINX=649.893372
##MAXY=0.308166
##MINY=-0.000855
##XFACTOR=1.000000
##YFACTOR=1.000000E-009
##NPOINTS=6950
##DELTAX=0.482117
##ZPD=6100
##XYDATA=(X++(Y..Y))
649.893 134981312 135082784 135327008 135723120 136242608 136841072 
652.786 137481920 138156896 138888544 139709616 140637456 141658688 
655.679 142725856 143781216 144779952 145709984 146589728 147450832 
658.571 148312528 149164848 149970272 150681568 151266512 151720704 
661.464 152067248 152339376 152563936 152747264 152874592 152919200 
664.357 152853424 152650848 152280752 151702096 150865264 149736432 
667.250 148344416 146820544 145380192 144213968 143397696 142870544 
670.142 142497072 142119712 141605520 140877264 139912016 138744032 
673.035 137438528 136068576 134683152 133297536 131905320 130498408 
675.928 129084664 127692264 126356048 125100728 123927872 122816016 
678.820 121735384 120665960 119612912 118605080 117683632 116878400 
681.713 116198424 115625280 115126688 114670048 114237720 113831312 
684.606 113464656 113150760 112890968 112671744 112471952 112274616 
687.498 112076080 111889640 111736824 111637280 111596712 111605496 
690.391 111643320 111691744 111744800 111811400 111910936 112063936 
693.284 112281912 112563400 112898400 113275720 113691632 114151000 
696.177 114662232 115227720 115834912 116452880 117039968 117549752 
699.069 117946136 118209832 118335000 118324552 118182560 117910664 
701.962 117510056 116987440 116360352 115654336 114899336 114120056 
704.855 113328240 112523944 111700480 110853432 109986264 109112768 
707.747 108248856 107407528 106591664 105794208 105003608 104212128 
710.640 103421208 102642888 101893488 101185152 100520768 99891232 99279416 
714.015 98666312 98038160 97387072 96710008 96004328 95265336 94486736 
717.390 93665752 92807576 91929152 91055240 90214560 89430256 88713336 
720.765 88061496 87462064 86897336 86347888 85796392 85227336 84625032 
724.139 83976048 83271552 82511776 81708896 80886664 80075896 79303000 
727.514 78586664 77931800 77332792 76778584 76259872 75773336 75321952 
730.889 74911256 74545216 74223272 73940960 73693352 73478840 73301416 
734.264 73168344 73086824 73058680 73077656 73130112 73200776 73277304 
737.639 73354496 73434576 73524520 73630144 73752952 73888680 74028928 
741.013 74166000 74294424 74413256 74523072 74624496 74715272 74791624 
744.388 74848584 74882280 74891176 74872128 74817688 74713184 74535976 
747.763 74260816 73866376 73342096 72692432 71936144 71101944 70218816 
751.138 69314048 68409992 67522416 66665420 65850944 65087072 64377064 
754.513 63717560 63099280 62509628 61937848 61378656 60833636 60309588 
757.888 59813820 59351016 58921036 58519916 58142420 57786868 57454748 
761.262 57151232 56880972 56644856 56438940 56255756 56086852 55926952 
764.637 55776076 55639376 55524556 55438192 55384132 55362944 55373408 
768.012 55413760 55482952 55580024 55702692 55846344 56006332 56179380 
771.387 56366804 56575628 56815068 57089672 57391444 57692480 57948816 
774.762 58103332 58100148 57903308 57503012 56922336 56207668 55421248 
778.136 54624268 53863328 53169812 52556600 52022568 51558216 51151460 
781.511 50790704 50466460 50172396 49905516 49665880 49456192 49281084 
784.886 49144852 49050064 48996500 48980848 48998392 49044384 49115208 
788.261 49209712 49328148 49471528 49641364 49838504 50064332 50321708 
791.636 50614944 50948688 51327172 51751936 52220720 52727424 53262472 
795.010 53813744 54366840 54903800 55402996 55837564 56176628 56390876 
798.385 56456376 56360804 56107476 55715384 55216668 54647452 54048136 
801.760 53455344 52898016 52400384 51978424 51639972 51386508 51214008 
805.135 51114592 51079300 51101136 51174868 51296668 51462600 51664300 
808.510 51886860 52110916 52311312 52462856 52545380 52544332 52452984 
811.885 52271024 52002364 51653628 51233960 50755584 50234512 49688952 
815.259 49138508 48601104 48089456 47612200 47172704 46772096 46410428 
818.634 46087780 45804396 45559100 45348996 45169352 45014596 44880728 
822.009 44766296 44673484 44606504 44569824 44566556 44595524 44653028 
825.384 44733092 44829256 44935220 45044736 45151376 45246424 45319756 
828.759 45361500 45363116 45320820 45235724 45114208 44965352 44798764 
832.133 44623396 44446184 44272792 44108124 43956348 43820712 43701976 
835.508 43598588 43506136 43419012 43333372 43247384 43163092 43084932 
838.883 43018160 42966432 42930440 42908784 42898508 42897632 42905784 
842.258 42924440 42955748 43001296 43060856 43132864 43214732 43304232 
845.633 43401176 43506428 43620896 43745472 43879396 44020472 44166920 
849.008 44317848 44473972 44637716 44811588 44996700 45192184 45395636 
852.382 45603812 45814740 46028428 46247120 46474068 46712432 46963660 
855.757 47227816 47503736 47790044 48086308 48392888 48710804 49041084 
859.132 49384572 49742192 50115720 50508184 50923652 51365620 51835596 
862.507 52330560 52842928 53361484 53871580 54358844 54810940 55217004 
865.882 55569252 55862772 56095524 56269972 56393968 56481692 56550984 
869.256 56621904 56713568 56839468 57007940 57222368 57481380 57781796 
872.631 58118744 58485944 58873448 59267984 59653908 60013504 60332508 
876.006 60601836 60819724 60990968 61125244 61235220 61333012 61431284 
879.381 61542524 61678460 61851152 62070740 62343136 62669976 63047252 
882.756 63468456 63924924 64409272 64916512 65443180 65985880 66541044 
886.131 67103492 67668480 68233320 68798464 69367536 69945800 70537336 
889.505 71142184 71756192 72371072 72977928 73569304 74140416 74688952 
892.880 75213664 75711600 76178368 76608272 76996072 77338456 77633832 
896.255 77881016 78076608 78213536 78281304 78268448 78165456 77969264 
899.630 77683560 77318936 76889792 76412304 75903184 75377792 74852208 
903.005 74342712 73864136 73429472 73047776 72722520 72452296 72233272 
906.379 72061568 71934704 71852824 71817176 71828192 71884456 71982128 
909.754 72116568 72283592 72481936 72712136 72975224 73269928 73590184 
913.129 73925568 74262424 74587392 74891456 75172144 75433256 75683088 
916.504 75932632 76192896 76473904 76784872 77134400 77529488 77975016 
919.879 78471288 79012960 79588576 80182688 80778656 81361016 81918744 
923.254 82446032 82941504 83408320 83852880 84285552 84719176 85168664 
926.628 85648856 86168936 86729928 87319312 87912744 88471208 88946888 
930.003 89291216 89454928 89398992 89100016 88553264 87777192 86812712 
933.378 85723448 84583040 83466536 82443824 81564384 80858360 80336584 
936.753 79995024 79821176 79799280 79914168 80150328 80489904 80912168 
940.128 81390352 81893776 82392472 82857568 83266408 83604976 83867112 
943.502 84055528 84180888 84262136 84323368 84390848 84491376 84645040 
946.877 84864216 85152912 85507952 85922816 86391096 86909552 87477344 
950.252 88095064 88762224 89476016 90231032 91022216 91845752 92701160 
953.627 93590808 94517336 95481720 96481392 97510896 98563936 99636288 
957.002 100727216 101838904 102974600 104135520 105319520 106521328 
959.894 107734536 108955360 110183680 111422808 112676816 113947944 
962.787 115234072 116530568 117831512 119133616 120438456 121751568 
965.680 123080184 124428904 125799048 127188248 128593208 130014016 
968.573 131454784 132924240 134432976 135989632 137599552 139265696 
971.465 140990816 142781776 144650640 146612432 148682944 150873904 
974.358 153190176 155631664 158195824 160882032 163692848 166632016 
977.251 169700064 172888208 176176032 179533664 182922848 186305680 
980.143 189647440 192912528 196064944 199062848 201855696 204394640 
983.036 206637872 208561248 210163152 211462736 212492448 213286080 
985.929 213876144 214291872 214560208 214715008 214796256 214845104 
988.821 214902752 215000368 215156816 215383616 215689088 216083744 
991.714 216583520 217205792 217962672 218855520 219872960 220993520 
994.607 222192048 223449088 224751856 226092432 227462544 228845728 
997.500 230215264 231539680 232787232 233935216 234974400 235905872 
1000.392 236735248 237466256 238097840 238627456 239056208 239395616 
1003.285 239667200 239898432 240116208 240338208 240572320 240821264 
1006.178 241089856 241392448 241754816 242206512 242775136 243475920 
1009.070 244308112 245257648 246304080 247429376 248619712 249864800 
1011.963 251154096 252470528 253792640 255100720 256383568 257646320 
1014.856 258908752 260200112 261543808 262949072 264406000 265890928 
1017.748 267375552 268837504 270267680 271668896 273050336 274421504 
1020.641 275790528 277167488 278568672 280022400 281565056 283230208 
1023.534 285040096 286993344 289066112 291214720 293391168 295553792 
1026.427 297667456 299703232 301629280 303400320 304962464 306258848 
1029.320 307240032 307878144 308165728 308108896 307714688 306982240 
1032.213 305900512 304457280 302649824 300495392 298029120 295300096 
1035.106 292356896 289236960 285969856 282581408 279101856 275577440 
1037.999 272065984 268629600 265329328 262212576 259314928 256666928 
1040.892 254297200 252238544 250527472 249192048 248246896 247685776 
1043.785 247483968 247603824 248005296 248657584 249537600 250627968 
1046.678 251911200 253360384 254940208 256612864 258341072 260096672 
1049.571 261859744 263610128 265321904 266957008 268464704 269795520 
1052.464 270909696 271785568 272421184 272825184 273004576 272955168 
1055.357 272657728 272082880 271202368 269991744 268434224 266517168 
1058.250 264224496 261537552 258442080 254937680 251050864 246836640 
1061.144 242379104 237772192 233105600 228459312 223892000 219447824 
1064.037 215163024 211066080 207180320 203519792 200084752 196861616 
1066.930 193826176 190952960 188219872 185614064 183130976 180768784 
1069.823 178522400 176380736 174325504 172337072 170399552 168502608 
1072.716 166641680 164814240 163014288 161231440 159452592 157665728 
1075.609 155866912 154062592 152269600 150508256 148800176 147163328 
1078.502 145610224 144151872 142799360 141564624 140459088 139489632 
1081.395 138654928 137944384 137341136 136827904 136391600 136028464 
1084.288 135743216 135546112 135447248 135453872 135568976 135793440 
1087.181 136128144 136575840 137139904 137820544 138610976 139496352 
1090.074 140453216 141454560 142477216 143503232 144523248 145534064 
1092.967 146534848 147524912 148504032 149474448 150443872 151425488 
1095.860 152436752 153492688 154600640 155756272 156944544 158142944 
1098.753 159325744 160470240 161555856 162562032 163467760 164249408 
1101.646 164883392 165354336 165657872 165804480 165815312 165718288 
1104.540 165539824 165299360 165011616 164686848 164335600 163969328 
1107.433 163597984 163223808 162836528 162411840 161913472 161296912 
1110.326 160520672 159548320 158350144 156905264 155198432 153221776 
1113.219 150978624 148489008 145792064 142941088 140002192 137043040 
1116.112 134119752 131279560 128554672 125964672 123521848 121231536 
1119.005 119092680 117097240 115229064 113465520 111778528 110140976 
1121.898 108527992 106918488 105295960 103646072 101955080 100212000 
1124.791 98410304 96551648 94647472 92719904 90798160 88911512 87088416 
1128.166 85351040 83713800 82185472 80769960 79465816 78267336 77163688 
1131.542 76139424 75175016 74251024 73351520 72466712 71595568 70745176 
1134.917 69929760 69166296 68473760 67871616 67376896 67005620 66770664 
1138.292 66680060 66736428 66935108 67265976 67713280 68259568 68888304 
1141.667 69583832 70332792 71123248 71941776 72774776 73608632 74430840 
1145.042 75233408 76013144 76771584 77513088 78243136 78967456 79691904 
1148.418 80423552 81172120 81948800 82765712 83632248 84552400 85524216 
1151.793 86540424 87591968 88670208 89769584 90887280 92021120 93167296 
1155.168 94318848 95464792 96592456 97688408 98738344 99727872 100638688 
1158.543 101447280 102126232 102645200 102973928 103088984 102972128 
1161.437 102611368 101999368 101130232 100000128 98608672 96962032 95074344 
1164.812 92967160 90669208 88210984 85622184 82933120 80172168 77368504 
1168.187 74553992 71758928 69012504 66340648 63761800 61289096 58930980 
1171.562 56691976 54575124 52582516 50714804 48971388 47349920 45846224 
1174.938 44455072 43171140 41989240 40904504 39912072 39007072 38183576 
1178.313 37435568 36757460 36144576 35594088 35105144 34678476 34315256 
1181.688 34016192 33780756 33607524 33494126 33438080 33437650 33491834 
1185.063 33600044 33761884 33976672 34242900 34558408 34920068 35323720 
1188.438 35763292 36230108 36712968 37198708 37672668 38122152 38537916 
1191.814 38915304 39255004 39561544 39842116 40103864 40353188 40594976 
1195.189 40832280 41066508 41298016 41525204 41745468 41954568 42147632 
1198.564 42319412 42465064 42580064 42660368 42701820 42700616 42653128 
1201.939 42557044 42411836 42218728 41980080 41697396 41370064 40994076 
1205.315 40562164 40064908 39493824 38842828 38111516 37304880 36434660 
1208.690 35517812 34574376 33627716 32701514 31817250 30994346 30247842 
1212.065 29587280 29017968 28540650 28152866 27849996 27626670 27478006 
1215.440 27399050 27385852 27434662 27541616 27702842 27914440 28172240 
1218.816 28473424 28815004 29194412 29609484 30057406 30535648 31041964 
1222.191 31574846 32133498 32717772 33327478 33961408 34617324 35291952 
1225.566 35981448 36682244 37390964 38104496 38819168 39529644 40229360 
1228.941 40910220 41563308 42180348 42753224 43273884 43734844 44127928 
1232.317 44445856 44683804 44841088 44922540 44938308 44904356 44839508 
1235.692 44763612 44697832 44662136 44675244 44755352 44917840 45174796 
1239.067 45534336 45998884 46565976 47227740 47974024 48790880 49662240 
1242.442 50570496 51494384 52409360 53291276 54115316 54860868 55514428 
1245.818 56068908 56524340 56885808 57162308 57364976 57506188 57599968 
1249.193 57659104 57693652 57708412 57700920 57661224 57573332 57419956 
1252.568 57185928 56861296 56444112 55939048 55356204 54707764 54007688 
1255.943 53269400 52504436 51723012 50932816 50138184 49341512 48543072 
1259.319 47743292 46943872 46148576 45363448 44596332 43854360 43143548 
1262.694 42468536 41832584 41238808 40690960 40193488 39751476 39369268 
1266.069 39049520 38792356 38595996 38457324 38372728 38339212 38355100 
1269.444 38418768 38528392 38681292 38873048 39097916 39349420 39620672 
1272.820 39904948 40196212 40488252 40776152 41055912 41325968 41587408 
1276.195 41843604 42099076 42356712 42615952 42870712 43110504 43320084 
1279.570 43483392 43586716 43619396 43576792 43459328 43273152 43028548 
1282.945 42739036 42420892 42090244 41761484 41446900 41154580 40889468 
1286.321 40655116 40454064 40290068 40167788 40091580 40064292 40085292 
1289.696 40150308 40251388 40378604 40522984 40676952 40835992 40998628 
1293.071 41165144 41337336 41518020 41711112 41922016 42156944 42423160 
1296.446 42726756 43072048 43461384 43895012 44372636 44894140 45460416 
1299.822 46072748 46731988 47437356 48185664 48972096 49791684 50640412 
1303.197 51516244 52418476 53346236 54297340 55267540 56250700 57240740 
1306.572 58233572 59226892 60219792 61210840 62195712 63166992 64114220 
1309.947 65025872 65892132 66705288 67458896 68147408 68763208 69296744 
1313.323 69737840 70076872 70306616 70423544 70425992 70313200 70084576 
1316.698 69740360 69283696 68722496 68072368 67353600 66589320 65802672 
1320.073 65011904 64230100 63466348 62726752 62017072 61343888 60714044 
1323.448 60134084 59610044 59145672 58745292 58414148 58158784 57988312 
1326.823 57911676 57935148 58060644 58283660 58594384 58977772 59417456 
1330.199 59896612 60397044 60901680 61392240 61849776 62257928 62603192 
1333.574 62877184 63077176 63204124 63260696 63249812 63173048 63031704 
1336.949 62827556 62564232 62248020 61886380 61487968 61061016 60611972 
1340.324 60145764 59665272 59171680 58664160 58140640 57598644 57036920 
1343.700 56456676 55863680 55268180 54683000 54121956 53597468 53118024 
1347.075 52688968 52313592 51994744 51737008 51546872 51431228 51396728 
1350.450 51446520 51579000 51787400 52060520 52385244 52746540 53130304 
1353.825 53523328 53912616 54287124 54637948 54959828 55251848 55517668 
1357.201 55763340 55993664 56209816 56407324 56576724 56705452 56781384 
1360.576 56797396 56753216 56657164 56524716 56378388 56242704 56140128 
1363.951 56089116 56099824 56173992 56305464 56481508 56684912 56895252 
1367.326 57093640 57263156 57389820 57463372 57473848 57409936 57259188 
1370.702 57007900 56644368 56162376 55564056 54862256 54079136 53247000 
1374.077 52402404 51578584 50801616 50084152 49425336 48814164 48235316 
1377.452 47674656 47123324 46580732 46053776 45554796 45096088 44687620 
1380.827 44334324 44035876 43786812 43577268 43393160 43214220 43014096 
1384.203 42763276 42428312 41979388 41397836 40683280 39860020 38973652 
1387.578 38083484 37243468 36489436 35836048 35279192 34804492 34393648 
1390.953 34030636 33700936 33392168 33094458 32800556 32508462 32223522 
1394.328 31958208 31728412 31546372 31415842 31330078 31275808 31237320 
1397.704 31203034 31169676 31142584 31133364 31153228 31208658 31297140 
1401.079 31408970 31530090 31647828 31753294 31843454 31922154 31997866 
1404.454 32081944 32184236 32311604 32466576 32647860 32851730 33073180 
1407.829 33307698 33551000 33800276 34054716 34316188 34589084 34879780 
1411.205 35195500 35541868 35921592 36334172 36776176 37242672 37728176 
1414.580 38228696 38740948 39262040 39789752 40322100 40858452 41402064 
1417.955 41961940 42552692 43187868 43876464 44614288 45384748 46164012 
1421.330 46927964 47658164 48341888 48974432 49557980 50098728 50604632 
1424.706 51081424 51531056 51949484 52328504 52656276 52921480 53113980 
1428.081 53227036 53259664 53216364 53106716 52942440 52736512 52501520 
1431.456 52248748 51988880 51730024 51475056 51220796 50957000 50669492 
1434.831 50345708 49984432 49605520 49254804 48990860 48864216 48897592 
1438.207 49079556 49374884 49736732 50121300 50488160 50805008 51050640 
1441.582 51212260 51284776 51267772 51161712 50966720 50682932 50311704 
1444.957 49856868 49324808 48725076 48071248 47381848 46684944 46014504 
1448.332 45406044 44888776 44476544 44167468 43947436 43798616 43705384 
1451.708 43658268 43654124 43691168 43763100 43854912 43938676 43975596 
1455.083 43923204 43743568 43424028 42991376 42514464 42072608 41717640 
1458.458 41459148 41274260 41130500 41000848 40871304 40737176 40596580 
1461.833 40444352 40268912 40053824 39785320 39459896 39092152 38712296 
1465.208 38357528 38056752 37820384 37641408 37502680 37386088 37276680 
1468.584 37164016 37039404 36890040 36697248 36437256 36086680 35634116 
1471.959 35090668 34492860 33889072 33320218 32804810 32338198 31904108 
1475.334 31488798 31090544 30720890 30399166 30140716 29951320 29824248 
1478.709 29744760 29696648 29669824 29662944 29683556 29743696 29854736 
1482.085 30024348 30255056 30546454 30898314 31311918 31789728 32332092 
1485.460 32934614 33584364 34257384 34922976 35541692 36069864 36465184 
1488.835 36687112 36705000 36506120 36100252 35519572 34808696 34012824 
1492.210 33163798 32274344 31343114 30359402 29313892 28211274 27075510 
1495.586 25953368 24908746 24001882 23275120 22742894 22395310 22207866 
1498.961 22151062 22197508 22320622 22494262 22694294 22896548 23079538 
1502.336 23225134 23314276 23324974 23228280 22983912 22544096 21866460 
1505.711 20939352 19809452 18587096 17408382 16370017 15499195 14764848 
1509.087 14116072 13506408 12908350 12314387 11732673 11179784 10670079 
1512.462 10212225 9806160 9444426 9117099 8814702 8531167 8264094 8015850 
1516.319 7792407 7601919 7451221 7342225 7269239 7219342 7174032 7113166 
1520.177 7023112 6903316 6772513 6660760 6597813 6596501 6648950 6733105 
1524.034 6823672 6902844 6963075 7009642 7056282 7118724 7205934 7317390 
1527.892 7445019 7578519 7710913 7839705 7966307 8092472 8217494 8337721 
1531.749 8448150 8548097 8644180 8753064 8894812 9082079 9313668 9572987 
1535.606 9837476 10082185 10286928 10438444 10529447 10560102 10536984 
1538.982 10474117 10389335 10300330 10223114 10167958 10138755 10132955 
1542.357 10141740 10152084 10149778 10124849 10074657 10006127 9931845 
1545.732 9864794 9810972 9766442 9719375 9655271 9564213 9445238 9308997 
1549.590 9173542 9057651 8971388 8912669 8869517 8827382 8775547 8711752 
1553.447 8642625 8579694 8533093 8504506 8485686 8459231 8404232 8299352 
1557.304 8128291 7888492 7602560 7322680 7110101 7006410 7012303 7098145 
1561.162 7225272 7360086 7479638 7568235 7619521 7635640 7626670 7607854 
1565.019 7594232 7595311 7610585 7631526 7645048 7640395 7612946 7567831 
1568.877 7518371 7483245 7478862 7512775 7582835 7679987 7793183 7911065 
1572.734 8023411 8120627 8191764 8227692 8224010 8186767 8135515 8098988 
1576.592 8106077 8170628 8288072 8441055 8609401 8776494 8932591 9075684 
1580.449 9208772 9336993 9464812 9594496 9725541 9856185 9984530 10109452 
1584.306 10230068 10344915 10451511 10546489 10626785 10691337 10742484 
1587.682 10785722 10828319 10877782 10939824 11017372 11111556 11221876 
1591.057 11347768 11487984 11640023 11798854 11956689 12102656 12226860 
1594.432 12321068 12381339 12408818 12408921 12389589 12358055 12321273 
1597.807 12284425 12252080 12229280 12220862 12231257 12263021 12315614 
1601.183 12385396 12466442 12553300 12641165 12727275 12810363 12888997 
1604.558 12961295 13023737 13072837 13105346 13119928 13116888 13097765 
1607.933 13063822 13015064 12950200 12867664 12767673 12654196 12535020 
1611.308 12420922 12321409 12241958 12181229 12131889 12081771 12016568 
1614.684 11925152 11802361 11653874 11496320 11355658 11257239 11215858 
1618.059 11232485 11295121 11386576 11486419 11576417 11642337 11674636 
1621.434 11671063 11638151 11590947 11548582 11527690 11537761 11577472 
1624.809 11637810 11706088 11772367 11830383 11878837 11920282 11959312 
1628.185 12000525 12047466 12101941 12164567 12234733 12310467 12388055 
1631.560 12462247 12524687 12565954 12576117 12546718 12474591 12365111 
1634.935 12236334 12115398 12030978 12002092 12030365 12103576 12201948 
1638.310 12306888 12402886 12479775 12533928 12567181 12586009 12598356 
1641.686 12610977 12626361 12641131 12646760 12631648 12583860 12494540 
1645.061 12361770 12193633 12010199 11838997 11708198 11637912 11633181 
1648.436 11685426 11775771 11881561 11976375 12029786 12009007 11878871 
1651.811 11615689 11228813 10785620 10396088 10149981 10071571 10121831 
1655.187 10240958 10374777 10488780 10566077 10601251 10597957 10564040 
1658.562 10507992 10435457 10348309 10245436 10124103 9983071 9824528 
1661.937 9655440 9487094 9333032 9203967 9105560 9035829 8987353 8947608 
1665.794 8902727 8839251 8745085 8612781 8441292 8237923 8018517 7803472 
1669.652 7614531 7466491 7365175 7306203 7278606 7267116 7254414 7225238 
1673.509 7166857 7073727 6950988 6816637 6696427 6612178 6573356 6573087 
1677.367 6594449 6616552 6623145 6607064 6570732 6523977 6477798 6438080 
1681.224 6400384 6350485 6267615 6134181 5946771 5727377 5520477 5375699 
1685.082 5319344 5344334 5421660 5517457 5607602 5677254 5721770 5743929 
1688.939 5750107 5748697 5747086 5752357 5769212 5799903 5843055 5892357 
1692.796 5936727 5960644 5948551 5889872 5786908 5659597 5542324 5469036 
1696.654 5453434 5484203 5530041 5555211 5525712 5423371 5255249 5061647 
1700.511 4902043 4821324 4829499 4901741 5000574 5089841 5145361 5155520 
1704.369 5121288 5054977 4976073 4905394 4856236 4832079 4828260 4836066 
1708.226 4846621 4853824 4855097 4850541 4841528 4829097 4813786 4794421 
1712.083 4769765 4738410 4700090 4655612 4606383 4552572 4492875 4423781 
1715.941 4341545 4245104 4140422 4041216 3965974 3931635 3945443 4002690 
1719.798 4089211 4188193 4282748 4360187 4414275 4444468 4455347 4454209 
1723.656 4448753 4444535 4443865 4446142 4449656 4452368 4452368 4448117 
1727.513 4438175 4421538 4398811 4372503 4347201 4327054 4314203 4305101 
1731.371 4290511 4255276 4183643 4065965 3908297 3737920 3594503 3514261 
1735.228 3510152 3569012 3662196 3759142 3835986 3877172 3878141 3845580 
1739.085 3795307 3746074 3712788 3701761 3710182 3729531 3750687 3767932 
1742.943 3778895 3784978 3788154 3789791 3789691 3786449 3777993 3763186 
1746.800 3742599 3717333 3689262 3658787 3625842 3589659 3550639 3512123 
1750.658 3480558 3464526 3471307 3503806 3558890 3627078 3696614 3754931 
1754.515 3791362 3800655 3783641 3748247 3706974 3673724 3658219 3661828 
1758.373 3678670 3698118 3709046 3702696 3676130 3632357 3580839 3533735 
1762.230 3502102 3492650 3505676 3536107 3575126 3613280 3641579 3652372 
1766.087 3641947 3610607 3564536 3513426 3468401 3437440 3421710 3415532 
1769.945 3407450 3386045 3343404 3280267 3207193 3142742 3104163 3100859 
1773.802 3130694 3183227 3245014 3304473 3355057 3395295 3426686 3451501 
1777.660 3471073 3484633 3490746 3489076 3481928 3473945 3471039 3477252 
1781.517 3492149 3511154 3526754 3532600 3525117 3505743 3480625 3457780 
1785.375 3444187 3442984 3452803 3469369 3487305 3502102 3510219 3509451 
1789.232 3497092 3470305 3426720 3366143 3292186 3214303 3145612 3098490 
1793.089 3080870 3092683 3127090 3173748 3222281 3265512 3299097 3321767 
1796.947 3334021 3336525 3329781 3314055 3289682 3258434 3223717 3189903 
1800.804 3161766 3143042 3134966 3137235 3148082 3165204 3186198 3209196 
1804.662 3232429 3254261 3273090 3287779 3297662 3303137 3304339 3301701 
1808.519 3294957 3283973 3268950 3250789 3232262 3217307 3209597 3211833 
1812.376 3223616 3241609 3261071 3276562 3284674 3284908 3280000 3274692 
1816.234 3274025 3281803 3298997 3323904 3352486 3380568 3405280 3424950 
1820.091 3439745 3450332 3457479 3460652 3458347 3448528 3429458 3401506 
1823.949 3367646 3332953 3304306 3287278 3283840 3291719 3304339 3313487 
1827.806 3311350 3293388 3261071 3222214 3189336 3174649 3186565 3225419 
1831.664 3284307 3351250 3414597 3464994 3498128 3514428 3518069 3515230 
1835.521 3511622 3511121 3515230 3524215 3537544 3555048 3577364 3604593 
1839.378 3635933 3668946 3699087 3720308 3726357 3711552 3673056 3612344 
1843.236 3537076 3460118 3396864 3360934 3359364 3390787 3446692 3515296 
1847.093 3584681 3645288 3692738 3726657 3750787 3769503 3786716 3803797 
1850.951 3819707 3832109 3839129 3840633 3838059 3834115 3830906 3828833 
1854.808 3826827 3822716 3815128 3804098 3791362 3779163 3769202 3761181 
1858.666 3752926 3741295 3724151 3701527 3676030 3652105 3633995 3624506 
1862.523 3623771 3629952 3640544 3653241 3666373 3679271 3690131 3695745 
1866.380 3692036 3674793 3641245 3594035 3539916 3489076 3452202 3436271 
1870.238 3441949 3465361 3499263 3536675 3572754 3605194 3633761 3659155 
1874.095 3681744 3701126 3716398 3727125 3733241 3735647 3735848 3734277 
1877.953 3731436 3726791 3719673 3710583 3700992 3692638 3687291 3686021 
1881.810 3688193 3692470 3697683 3703398 3710616 3720909 3735547 3753995 
1885.667 3774049 3791463 3801992 3802694 3793168 3775887 3755065 3736048 
1889.525 3722881 3718202 3721845 3732138 3746476 3761816 3775319 3784678 
1893.382 3787920 3784845 3776088 3764757 3754597 3750085 3754397 3768467 
1897.240 3790995 3818905 3847787 3874197 3895459 3910404 3918863 3921771 
1901.097 3919999 3914850 3907729 3900273 3893754 3889374 3887235 3886733 
1904.955 3887235 3887703 3887803 3888204 3889909 3893654 3899203 3905589 
1908.812 3910771 3913479 3912711 3909167 3904386 3900474 3898802 3900674 
1912.669 3906692 3916589 3931300 3949958 3970923 3990384 4003025 4002490 
1916.527 3984566 3949422 3902045 3852701 3813557 3792733 3793301 3810816 
1920.384 3836922 3861460 3877439 3882721 3880181 3876269 3876871 3885663 
1924.242 3902012 3922172 3941799 3958149 3970822 3981958 3994163 4009111 
1928.099 4026702 4045330 4062788 4077404 4088943 4098008 4105165 4110751 
1931.957 4114030 4114197 4111621 4107440 4104362 4104864 4110484 4120686 
1935.814 4133999 4147915 4161731 4176149 4193278 4214490 4240085 4266786 
1939.671 4289741 4303260 4303930 4290946 4268393 4242829 4220846 4207196 
1943.529 4203382 4208099 4218906 4233728 4251662 4272575 4296735 4322904 
1947.386 4348807 4372469 4392049 4407413 4419664 4429907 4439280 4447882 
1951.244 4454845 4459365 4462478 4465624 4471048 4479150 4487519 4490733 
1955.101 4482430 4456419 4410626 4348339 4277962 4210742 4157181 4124399 
1958.958 4113561 4121656 4142462 4168823 4196457 4222386 4244569 4263005 
1962.816 4278364 4291448 4305436 4323172 4347368 4378193 4412367 4443330 
1966.673 4463850 4468638 4456151 4431614 4404300 4383481 4377055 4388401 
1970.531 4414576 4450560 4489427 4525585 4554581 4574303 4583679 4583243 
1974.388 4575508 4566769 4566668 4586592 4636422 4720053 4832481 4959651 
1978.246 5081728 5181171 5245356 5271415 5264505 5235127 5194986 5153844 
1982.103 5117265 5088399 5067011 5052931 5045021 5042238 5042741 5043512 
1985.960 5042138 5036975 5027590 5016495 5005333 4995915 4986865 4975470 
1989.818 4957539 4931030 4897385 4861296 4830270 4811541 4807822 4817471 
1993.675 4835027 4853087 4865652 4870243 4867964 4862971 4859822 4861665 
1997.533 4868802 4880965 4894704 4907304 4915547 4915883 4904992 4880228 
2001.390 4839886 4784605 4718345 4647909 4580833 4524346 4483100 4458360 
2005.248 4449824 4455247 4473191 4503221 4544770 4594629 4647808 4696741 
2009.105 4732648 4750469 4749096 4732079 4706588 4680731 4660200 4647072 
2012.962 4641010 4638197 4636456 4635015 4633843 4634245 4637058 4641043 
2016.820 4645464 4649047 4651325 4653100 4655511 4658325 4659698 4657956 
2020.677 4650923 4639704 4628418 4623026 4629556 4651258 4686492 4728227 
2024.535 4768324 4798609 4814288 4815830 4807085 4792110 4775627 4759012 
2028.392 4742631 4726652 4712517 4703440 4703406 4715967 4741491 4778441 
2032.250 4823502 4872588 4924227 4978520 5036271 5097820 5162327 5226643 
2036.107 5287882 5343763 5393613 5438603 5480679 5520812 5558298 5591995 
2039.964 5619484 5639255 5651440 5655736 5653017 5642343 5621867 5590216 
2043.822 5548264 5499504 5451353 5412837 5392607 5395995 5424411 5473599 
2047.679 5536149 5603977 5668963 5723382 5761893 5779756 5773443 5743762 
2051.537 5694275 5632474 5569206 5515410 5479740 5465680 5470881 5487793 
2055.394 5508128 5524437 5533565 5536887 5538061 5540981 5548130 5559305 
2059.251 5572562 5585651 5597331 5607266 5615993 5623512 5627641 5626835 
2063.109 5619451 5605487 5587329 5569306 5554842 5546217 5542089 5538666 
2066.966 5531484 5518363 5499236 5477928 5459574 5448099 5445180 5449575 
2070.824 5457560 5465915 5473465 5480881 5490612 5505276 5524940 5547425 
2074.681 5568870 5584611 5591928 5590585 5582329 5570716 5558735 5548499 
2078.539 5540478 5534840 5530679 5527592 5525477 5524135 5522591 5520309 
2082.396 5516584 5511752 5506920 5504369 5505376 5510611 5518967 5528263 
2086.253 5535646 5539203 5538330 5533934 5526920 5518061 5506450 5490511 
2090.111 5468432 5439241 5404684 5368084 5334673 5309852 5296871 5297240 
2093.968 5310254 5333298 5362951 5396029 5429142 5458567 5482122 5497356 
2097.826 5503766 5502457 5496316 5489001 5483632 5482625 5485645 5491417 
2101.683 5498094 5504403 5510846 5519269 5531283 5548264 5570011 5594244 
2105.541 5618612 5640967 5660570 5678328 5695987 5714586 5734797 5756520 
2109.398 5778345 5799567 5819950 5840100 5860350 5880971 5900284 5916272 
2113.255 5926617 5929741 5925374 5914962 5900418 5884296 5868276 5853768 
2117.113 5841174 5831603 5825693 5824383 5828278 5836741 5847891 5859712 
2120.970 5869653 5876101 5879158 5879393 5877646 5874523 5869485 5860988 
2124.828 5848529 5831939 5812227 5791777 5772570 5755345 5739330 5722006 
2128.685 5700687 5673394 5640329 5602668 5563869 5527256 5494974 5468197 
2132.542 5447696 5432766 5423841 5421123 5424076 5431155 5440080 5446756 
2136.400 5447864 5441355 5426995 5405791 5380966 5354464 5328199 5304083 
2140.257 5283690 5269302 5263801 5269402 5286138 5312568 5344267 5374994 
2144.115 5401128 5420184 5432631 5441086 5448535 5455245 5460211 5459339 
2147.972 5448971 5427330 5395123 5354867 5310455 5264405 5216683 5165982 
2151.830 5110526 5048440 4981000 4909716 4836033 4761289 4685520 4610368 
2155.687 4541154 4489661 4472956 4511523 4621653 4807722 5059066 5350070 
2159.544 5647512 5916742 6134383 6286877 6373652 6402435 6385555 6339020 
2163.402 6277969 6215783 6164595 6132568 6121546 6128636 6146313 6163990 
2167.259 6172896 6168561 6151220 6125410 6097519 6072284 6050882 6031797 
2171.117 6011136 5985906 5955975 5925340 5898671 5882315 5879729 5890141 
2174.974 5909755 5932193 5950432 5958528 5953556 5934242 5902232 5861996 
2178.832 5819111 5781972 5758602 5756185 5778681 5826196 5893197 5970285 
2182.689 6046749 6112809 6161100 6188928 6196221 6185903 6162377 6130686 
2186.546 6095268 6060928 6031395 6008683 5994741 5988123 5986309 5986578 
2190.404 5985637 5981606 5974182 5965146 5956210 5950500 5950802 5959032 
2194.261 5977272 6006331 6045338 6091840 6141877 6189130 6228622 6257161 
2198.119 6273632 6281061 6283616 6284793 6286978 6289533 6289331 6283179 
2201.976 6269195 6247950 6223211 6199649 6180794 6168090 6159722 6152060 
2205.833 6141272 6126150 6108138 6091673 6082533 6085019 6100880 6129040 
2209.691 6164225 6199549 6228858 6246370 6249026 6237732 6216018 6190507 
2213.548 6169468 6161671 6172762 6205329 6256354 6317773 6380007 6432599 
2217.406 6468313 6485567 6486912 6478033 6466262 6457114 6452810 6453045 
2221.263 6455197 6456307 6454390 6449514 6442788 6436331 6432397 6431791 
2225.121 6435390 6442283 6450893 6460242 6468885 6476351 6483447 6492024 
2228.978 6504738 6524145 6552164 6587855 6628259 6669138 6705411 6733341 
2232.835 6752254 6763158 6768710 6772278 6775071 6776081 6774196 6766691 
2236.693 6752927 6734283 6714261 6696830 6685895 6683169 6688048 6698513 
2240.550 6711535 6724760 6736841 6747542 6756999 6766153 6775879 6786548 
2244.408 6799135 6814214 6831279 6849758 6867329 6880592 6886618 6883386 
2248.265 6870729 6850734 6827206 6803174 6782038 6765311 6752927 6744547 
2252.123 6741014 6742966 6752321 6770494 6797217 6830067 6865511 6898401 
2255.980 6924492 6941763 6949102 6947452 6938194 6922707 6901733 6876519 
2259.837 6848277 6819128 6792134 6769821 6754172 6745927 6743941 6746331 
2263.695 6751581 6758480 6766590 6776788 6789610 6804891 6822258 6840367 
2267.552 6857635 6872917 6885473 6894496 6899882 6901531 6899444 6894529 
2271.410 6888234 6882410 6878674 6878539 6881535 6886147 6890725 6893048 
2275.267 6892476 6889614 6885675 6882410 6880929 6881064 6882141 6883790 
2279.125 6885743 6889076 6896111 6908500 6927353 6951897 6979742 7007117 
2282.982 7030891 7047998 7057461 7059381 7054666 7044496 7030184 7012673 
2286.839 6992503 6970651 6947991 6924727 6901229 6876990 6851374 6823840 
2290.697 6794390 6763393 6732230 6702719 6675868 6652281 6631758 6613288 
2294.554 6595290 6576990 6557210 6535783 6512642 6487921 6462192 6435961 
2298.412 6410135 6385488 6362892 6342685 6324631 6308191 6292256 6275716 
2302.269 6258438 6240051 6220522 6199985 6178072 6153941 6127057 6096915 
2306.126 6063817 6028572 5992558 5956143 5920067 5883389 5844734 5803529 
2309.984 5759442 5712974 5666177 5621062 5579274 5541921 5509034 5479840 
2313.841 5453501 5429075 5405858 5382777 5358993 5332828 5302909 5268128 
2317.699 5228353 5184625 5139393 5095003 5054474 5019679 4991289 4969269 
2321.556 4952311 4937799 4922250 4901540 4871181 4826953 4766482 4689272 
2325.414 4597810 4496692 4391615 4288370 4191806 4104362 4026735 3958986 
2329.271 3900908 3852801 3816064 3791998 3780767 3781335 3790661 3804732 
2333.128 3819975 3834115 3845413 3854506 3861727 3866808 3869683 3869282 
2336.986 3864569 3856278 3845413 3834282 3825089 3819875 3819206 3823083 
2340.843 3830504 3840433 3851731 3863933 3877005 3892484 3914249 3948119 
2344.701 4002323 4085230 4202177 4353660 4533453 4728294 4920406 5092221 
2348.558 5227414 5314145 5347084 5326690 5259743 5156459 5029869 4892660 
2352.416 4754623 4621787 4497027 4380703 4272341 4172202 4081250 4001052 
2356.273 3932704 3876771 3833245 3801189 3779864 3768568 3766495 3773013 
2360.130 3787184 3807139 3831073 3857047 3883858 3911340 3940261 3972361 
2363.988 4009680 4054025 4106403 4167117 4235668 4310790 4391313 4476940 
2367.845 4566735 4660870 4759480 4862335 4968900 5078777 5191298 5305826 
2371.703 5422365 5540780 5660738 5782475 5905254 6029144 6154647 6282406 
2375.560 6413565 6549271 6689865 6834779 6982536 7130714 7276686 7418526 
2379.417 7555120 7685854 7811197 7931615 8047071 8157629 8262541 8360858 
2383.275 8452103 8535695 8611260 8678691 8737985 8789037 8832319 8868806 
2387.132 8899818 8927450 8953832 8980216 9007379 9035187 9062286 9087526 
2390.990 9109621 9127758 9142105 9153475 9162646 9170564 9177908 9184879 
2394.847 9191817 9198890 9205963 9213612 9221769 9230839 9240925 9252738 
2398.705 9266616 9283304 9303479 9327210 9354292 9383951 9414865 9445645 
2402.562 9475546 9504332 9532375 9560861 9591346 9625119 9663130 9705720 
2406.419 9752582 9803143 9856321 9910861 9966051 10020808 10074589 10127291 
2410.277 10179321 10231086 10283399 10336975 10391982 10448490 10506160 
2413.652 10563768 10620707 10676327 10729917 10781815 10832599 10882947 
2417.027 10933607 10985496 11038852 11093099 11147725 11201510 11253023 
2420.403 11301344 11345829 11386474 11423959 11459135 11492952 11526465 
2423.778 11560322 11594657 11629404 11664902 11700505 11736622 11773116 
2427.153 11809818 11847067 11884626 11922188 11959891 11997766 12036224 
2430.528 12076048 12118227 12163647 12213399 12268201 12327681 12391465 
2433.904 12458565 12527619 12597026 12666239 12734917 12803333 12872375 
2437.279 12942349 13013904 13087042 13161183 13235849 13310972 13386176 
2440.654 13462453 13541000 13622980 13709796 13802068 13900040 14002995 
2444.029 14110184 14220242 14331526 14443456 14554968 14665996 14777394 
2447.405 14890124 15005593 15125073 15249012 15377072 15507951 15639830 
2450.780 15770618 15898729 16023163 16143851 16260892 16374456 16484194 
2454.155 16589452 16688433 16779308 16860592 16930832 16989264 17035474 
2457.530 17069176 17090026 17097230 17090234 17067832 17029616 16975208 
2460.906 16904926 16819844 16721385 16611138 16490700 16362000 16226323 
2464.281 16085051 15940009 15792573 15644262 15496585 15350332 15206083 
2467.656 15063803 14923147 14783805 14645982 14510051 14377658 14250441 
2471.031 14130448 14018907 13917317 13826149 13745396 13675122 13615013 
2474.406 13564210 13522439 13488326 13460163 13435966 13413378 13390448 
2477.782 13365948 13339775 13312441 13285383 13260035 13236942 13216378 
2481.157 13197558 13179251 13160432 13140282 13118971 13097150 13076149 
2484.532 13057369 13041935 13030565 13022815 13017966 13014621 13010900 
2487.907 13004959 12995502 12981948 12964503 12944737 12924973 12907462 
2491.283 12894799 12888382 12888758 12895379 12906848 12921014 12936169 
2494.658 12950507 12962660 12971809 12977920 12980787 12981266 12980275 
2498.033 12978739 12978159 12979354 12983041 12989493 12998438 13009226 
2501.408 13021176 13033707 13045828 13057369 13068159 13078198 13088066 
2504.784 13098755 13110571 13124162 13139360 13155138 13170097 13182496 
2508.159 13191034 13195065 13195543 13193971 13192708 13193596 13197524 
2511.534 13203979 13212041 13219487 13224714 13226626 13225226 13220683 
2514.909 13213783 13204970 13194450 13182086 13167536 13150459 13131505 
2518.285 13111356 13090901 13071539 13054227 13039203 13027014 13017250 
2521.660 13009363 13002671 12996287 12989766 12982597 12975018 12967575 
2525.035 12961192 12956652 12954603 12954945 12957505 12961567 12966620 
2528.410 12972765 12979934 12988639 12999325 13011207 13023600 13035174 
2531.786 13044531 13050779 13053681 13053715 13051666 13048491 13044666 
2535.161 13040842 13037565 13035346 13034834 13037121 13042277 13050232 
2538.536 13060237 13071300 13082056 13092369 13102648 13113610 13126553 
2541.911 13142296 13160910 13181847 13204116 13226831 13249615 13272435 
2545.287 13295120 13317634 13339057 13357713 13372303 13382076 13387270 
2548.662 13389730 13392225 13397248 13406885 13421784 13440444 13461086 
2552.037 13481353 13499196 13514235 13527121 13538504 13549853 13562433 
2555.412 13576552 13592038 13608312 13624552 13640041 13654024 13665958 
2558.788 13675703 13682850 13687637 13690134 13690646 13689244 13685859 
2562.163 13680628 13673891 13666471 13659359 13654264 13652213 13653991 
2565.538 13658880 13665274 13671053 13673925 13672318 13666163 13656829 
2568.913 13646469 13637886 13633236 13633920 13639938 13650435 13663872 
2572.289 13678678 13693724 13708394 13722449 13736197 13749774 13763659 
2575.664 13778092 13793175 13809046 13826081 13844142 13863503 13884132 
2579.039 13905684 13927992 13950299 13972335 13993482 14014116 14034307 
2582.414 14055046 14076984 14100875 14126717 14154580 14183199 14211512 
2585.790 14238525 14263554 14286393 14307383 14327143 14346081 14364677 
2589.165 14382898 14400572 14418143 14435612 14453869 14473430 14495046 
2592.540 14518617 14543936 14570353 14596771 14622678 14647386 14671034 
2595.915 14694100 14717270 14740887 14765465 14791176 14817779 14844967 
2599.291 14872500 14900034 14927502 14955143 14983128 15011905 15041986 
2602.666 15073476 15106238 15140478 15175577 15211333 15247812 15285013 
2606.041 15323249 15362826 15403780 15446008 15489236 15532847 15575946 
2609.416 15618329 15659444 15699087 15737016 15773298 15807590 15840234 
2612.792 15871439 15901616 15931243 15960701 15989989 16018488 16045580 
2616.167 16070301 16092271 16111700 16128961 16145090 16161254 16177760 
2619.542 16194887 16212290 16229488 16246412 16263198 16280362 16298767 
2622.917 16318996 16340807 16363755 16386842 16409140 16430406 16450778 
2626.292 16471047 16492248 16514998 16539643 16565492 16591929 16617887 
2629.668 16642811 16666705 16689980 16713498 16737672 16763052 16789640 
2633.043 16817158 16845678 16875094 16906062 16939100 16974724 17013386 
2636.418 17054530 17097574 17141622 17185432 17228146 17269208 17308618 
2639.793 17346272 17382276 17417108 17450704 17483506 17515658 17547844 
2643.169 17580516 17614056 17648666 17684004 17719620 17754446 17787792 
2646.544 17819514 17849792 17879278 17909386 17941048 17975238 18011844 
2649.919 18050528 18090528 18130946 18170918 18210202 18248764 18287124 
2653.294 18326038 18365960 18406886 18448856 18491450 18534188 18576618 
2656.670 18618672 18660418 18701962 18744338 18788000 18833430 18881080 
2660.045 18930604 18981484 19032684 19083332 19132708 19180528 19227144 
2663.420 19272862 19318586 19365146 19413132 19463238 19515462 19569946 
2666.795 19626830 19685834 19746616 19808828 19871778 19934910 19997428 
2670.171 20059362 20120508 20181108 20241786 20302644 20364034 20426058 
2673.546 20488504 20551448 20614714 20678406 20742524 20807174 20872180 
2676.921 20937266 21002500 21067432 21132164 21196870 21261796 21327358 
2680.296 21393870 21461574 21530752 21601926 21675272 21751206 21830258 
2683.672 21912630 21998506 22087816 22180804 22277128 22377100 22480654 
2687.047 22587758 22698098 22811158 22925924 23041836 23158132 23274386 
2690.422 23390674 23507270 23624494 23742660 23862082 23982796 24104808 
2693.797 24228288 24352996 24479072 24606202 24733998 24861904 24989496 
2697.173 25116598 25243388 25370602 25498904 25629108 25761850 25897126 
2700.548 26034346 26172982 26312190 26451584 26591056 26730646 26870384 
2703.923 27010520 27150526 27289730 27427568 27563012 27695072 27823464 
2707.298 27947584 28067426 28182704 28293560 28399312 28499960 28595110 
2710.674 28684582 28768376 28847332 28921732 28992358 29059558 29123296 
2714.049 29182684 29236906 29284472 29324420 29355934 29378978 29394260 
2717.424 29402698 29405356 29403192 29396846 29386778 29373448 29357104 
2720.799 29338138 29317010 29294396 29270860 29246758 29222728 29198844 
2724.175 29175454 29152810 29130948 29109762 29089636 29070716 29053252 
2727.550 29037806 29025160 29015772 29010316 29009042 29011804 29018216 
2730.925 29027746 29039648 29053536 29069124 29086342 29105048 29125564 
2734.300 29147532 29171096 29195654 29220852 29245872 29270294 29293580 
2737.676 29315982 29337784 29359586 29382134 29405924 29430530 29454818 
2741.051 29477230 29495458 29507726 29513472 29512940 29508046 29501378 
2744.426 29495598 29492938 29494676 29500776 29510494 29522834 29536666 
2747.801 29551208 29566032 29581248 29596608 29612038 29627326 29642226 
2751.177 29656878 29671954 29688274 29706936 29728970 29755050 29785460 
2754.552 29819918 29857858 29898108 29939640 29981352 30022290 30061666 
2757.927 30099520 30135814 30171224 30206104 30241130 30276334 30311044 
2761.302 30344728 30376282 30404888 30430048 30451336 30469072 30483396 
2764.677 30494486 30502624 30507672 30509450 30507852 30502840 30494378 
2768.053 30482436 30467332 30449028 30427880 30404568 30379622 30353932 
2771.428 30328384 30303868 30280848 30259852 30241200 30225286 30212144 
2774.803 30201878 30194880 30190760 30189836 30192108 30197474 30205748 
2778.178 30216654 30229336 30242728 30255410 30265358 30271538 30272676 
2781.554 30268482 30259282 30246174 30230188 30212570 30194134 30175346 
2784.929 30156306 30137164 30117738 30098028 30078178 30058044 30037876 
2788.304 30017780 29998464 29980642 29965270 29953306 29945462 29942126 
2791.679 29943118 29947876 29955970 29966798 29979934 29995662 30013662 
2795.055 30033970 30056126 30079172 30102042 30123670 30142776 30158616 
2798.430 30171084 30179820 30185326 30188026 30188558 30187776 30185716 
2801.805 30182768 30178862 30173462 30166252 30157018 30146044 30134180 
2805.180 30122568 30112412 30104812 30100160 30098314 30098490 30099520 
2808.556 30100622 30101580 30102538 30104030 30107368 30113442 30122852 
2811.931 30136526 30154176 30176020 30201488 30230436 30262268 30296764 
2815.306 30333500 30372836 30414342 30458444 30505042 30554276 30606146 
2818.681 30660438 30717298 30776728 30839152 30905108 30974918 31048938 
2822.057 31127136 31209264 31295218 31385106 31478826 31576876 31679724 
2825.432 31787410 31899794 32016382 32136280 32258532 32382072 32506072 
2828.807 32629286 32750852 32869742 32984980 33095994 33202280 33304188 
2832.182 33402510 33498206 33592524 33686580 33781440 33878184 33978176 
2835.558 34082384 34192136 34308084 34430520 34559160 34692864 34830916 
2838.933 34972964 35118976 35270136 35427572 35592900 35767396 35951932 
2842.308 36147780 36356476 36580008 36821620 37084256 37371032 37683980 
2845.683 38023876 38389592 38777684 39182800 39596824 40009064 40407220 
2849.059 40776188 41101180 41368828 41568228 41693820 41745436 41728216 
2852.434 41651224 41527028 41369552 41191700 41006744 40826128 40659596 
2855.809 40514800 40397728 40311120 40255208 40228160 40226200 40244664 
2859.184 40278908 40324756 40379076 40439588 40504364 40572348 40642420 
2862.560 40714028 40786636 40860164 40934796 41011152 41089780 41171556 
2865.935 41257172 41347212 41441832 41540588 41642656 41746748 41850828 
2869.310 41953512 42053044 42148072 42237604 42320696 42395980 42462800 
2872.685 42520168 42568112 42607512 42640740 42670568 42700288 42733260 
2876.061 42771504 42816480 42868628 42927912 42994488 43068244 43149588 
2879.436 43238668 43335456 43439224 43549464 43665408 43786664 43913084 
2882.811 44045044 44182324 44324492 44470704 44619468 44769268 44918904 
2886.186 45067892 45215976 45363336 45510088 45655708 45799572 45940648 
2889.562 46078196 46211628 46341264 46467948 46592864 46717744 46844468 
2892.937 46974884 47110804 47253784 47405092 47565212 47734120 47910900 
2896.312 48093640 48279712 48464680 48642940 48807488 48950064 49061824 
2899.687 49135392 49165336 49149936 49090944 48993644 48865624 48714624 
2903.063 48547928 48371516 48189444 48005000 47821224 47641044 47467660 
2906.438 47304252 47152944 47014976 46890680 46779444 46681072 46595852 
2909.813 46524596 46469204 46430856 46410132 46405932 46415664 46434540 
2913.188 46456444 46474660 46481776 46470236 46434064 46367472 46266876 
2916.563 46130924 45960208 45757452 45526828 45273600 45002504 44717992 
2919.939 44423064 44118904 43805504 43481524 43144904 42793844 42427764 
2923.314 42047132 41655016 41256260 40856924 40463700 40083548 39720940 
2926.689 39379420 39060068 38762576 38485344 38226488 37984280 37757308 
2930.064 37544872 37346476 37161816 36990980 36833448 36688808 36556472 
2933.440 36435560 36324876 36223444 36129776 36042716 35961436 35884736 
2936.815 35812048 35742716 35675912 35610664 35546184 35481320 35415204 
2940.190 35347228 35276712 35202972 35125512 35043396 34955872 34862152 
2943.565 34761492 34653100 34536452 34410684 34274776 34127828 33968788 
2946.941 33797376 33613860 33419720 33217196 33009578 32800556 32593388 
2950.316 32391242 32196474 32009996 31832260 31662830 31500734 31344470 
2953.691 31192886 31044810 30899702 30757450 30618410 30483538 30353506 
2957.066 30229264 30111488 30000808 29897718 29802706 29716552 29640062 
2960.442 29573446 29516948 29469994 29431522 29400144 29374262 29352496 
2963.817 29333814 29317508 29302832 29288794 29274262 29256930 29234710 
2967.192 29204656 29164398 29111638 29044890 28963418 28867692 28759206 
2970.567 28640022 28513016 28381272 28247340 28113272 27980518 27849466 
2973.943 27720184 27592916 27467592 27344916 27225730 27110882 27000578 
2977.318 26894776 26792174 26690724 26588484 26483208 26373096 26257910 
2980.693 26137720 26013908 25888264 25762834 25639478 25520094 25405658 
2984.068 25297052 25194578 25098484 25008870 24925942 24850220 24782090 
2987.444 24722038 24669884 24625138 24586038 24549748 24513042 24471744 
2990.819 24421794 24360040 24284734 24195742 24095072 23986124 23873950 
2994.194 23763166 23658364 23562888 23478032 23403962 23339484 23282882 
2997.569 23232368 23186720 23145304 23107878 23074680 23045750 23020980 
3000.945 23000088 22982620 22967842 22955092 22943528 22932454 22920998 
3004.320 22908424 22894104 22878178 22861064 22843950 22828270 22815420 
3007.695 22806514 22802114 22802044 22805572 22811576 22819086 22827396 
3011.070 22836268 22845976 22857048 22870424 22887014 22907412 22931932 
3014.446 22960506 22992854 23028386 23066786 23107494 23150512 23196228 
3017.821 23244778 23296516 23351336 23408612 23467468 23526718 23584926 
3021.196 23640798 23693458 23742274 23786896 23827638 23864462 23897648 
3024.571 23927512 23954122 23977476 23997680 24014768 24028950 24040646 
3027.947 24050416 24058892 24067052 24075212 24083794 24092936 24102146 
3031.322 24111078 24119448 24126734 24133180 24138784 24143618 24148100 
3034.697 24152620 24157418 24163198 24170380 24179804 24191502 24205762 
3038.072 24221982 24239534 24257370 24274608 24290900 24306178 24320966 
3041.448 24336034 24352296 24370344 24390742 24413628 24438374 24464524 
3044.823 24491096 24517108 24541720 24564404 24585058 24604236 24623278 
3048.198 24643828 24667500 24695662 24729018 24767358 24809522 24853904 
3051.573 24898746 24942154 24983072 25020874 25055308 25087146 25117160 
3054.948 25146232 25175336 25205006 25235626 25266812 25298314 25329540 
3058.324 25360520 25391256 25422276 25454002 25487134 25521640 25557166 
3061.699 25593224 25628828 25663310 25696354 25727922 25758228 25787550 
3065.074 25816278 25844410 25872440 25900432 25928852 25958574 25989880 
3068.449 26023124 26058412 26094968 26131670 26167740 26202298 26234818 
3071.825 26265478 26294658 26323208 26351548 26380384 26410208 26441512 
3075.200 26474542 26509446 26546286 26584892 26624910 26666164 26708550 
3078.575 26752140 26797248 26844090 26892486 26942368 26992962 27043526 
3081.950 27093706 27143012 27191550 27239490 27287050 27334082 27380206 
3085.326 27425098 27468334 27509988 27550620 27590904 27631720 27673848 
3088.701 27717358 27762178 27808028 27854624 27901966 27950094 27999072 
3092.076 28048976 28099486 28150108 28200630 28250734 28300880 28351914 
3095.451 28404866 28460830 28520198 28582760 28648020 28714282 28780730 
3098.827 28846518 28911250 28975462 29039648 29104552 29170386 29237262 
3102.202 29304532 29371568 29437552 29501982 29564864 29626864 29688664 
3105.577 29751146 29815022 29880432 29947200 30014834 30082616 30150094 
3108.952 30217188 30284150 30351408 30419104 30487484 30556018 30624100 
3112.328 30691198 30756988 30821652 30885648 30949724 31014774 31081218 
3115.703 31149242 31219090 31290908 31364948 31441528 31520828 31602890 
3119.078 31686888 31771760 31855830 31937950 32017202 32093682 32168072 
3122.453 32241832 32316208 32392278 32470326 32549996 32630532 32710698 
3125.829 32789838 32867740 32944728 33021838 33100214 33180676 33263732 
3129.204 33349018 33435538 33522114 33607416 33690588 33771660 33851388 
3132.579 33931132 34012252 34095896 34182420 34271368 34361584 34451828 
3135.954 34540968 34628624 34714720 34800008 34885564 34972424 35061172 
3139.330 35152600 35246780 35343344 35441772 35541296 35640768 35739044 
3142.705 35835508 35929976 36022560 36114620 36207056 36301212 36397584 
3146.080 36495920 36595148 36694324 36792444 36889860 36987300 37086856 
3149.455 37190584 37300296 37416676 37539272 37665944 37794100 37920888 
3152.831 38044236 38163028 38277436 38388508 38498088 38607480 38718056 
3156.206 38830184 38943788 39058328 39173444 39288992 39405000 39521588 
3159.581 39639040 39757140 39876072 39995112 40114328 40233760 40353584 
3162.956 40474208 40596104 40719016 40842872 40966872 41090508 41213560 
3166.332 41336392 41459256 41583032 41708300 41835176 41963404 42092764 
3169.707 42222740 42353712 42486112 42620632 42757796 42897632 43039340 
3173.082 43181684 43322936 43461384 43595952 43726528 43853444 43977904 
3176.457 44101408 44225352 44350912 44478708 44608708 44740400 44872796 
3179.833 45004968 45136264 45266796 45397328 45528888 45663108 45800860 
3183.208 45942492 46087336 46233996 46381484 46528764 46675536 46821956 
3186.583 46968792 47116304 47264536 47413260 47561884 47710596 47859736 
3189.958 48010176 48162932 48318484 48476496 48635788 48794808 48952028 
3193.333 49106640 49258628 49408556 49557048 49704960 49852552 50000384 
3196.709 50149116 50299612 50453512 50612004 50775920 50944888 51117652 
3200.084 51292308 51467152 51640716 51813084 51984884 52156828 52329812 
3203.459 52503984 52678788 52853852 53028688 53203516 53378680 53554924 
3206.834 53732180 53909952 54087916 54265500 54442820 54621112 54801808 
3210.210 54986568 55175616 55368288 55562740 55756824 55948812 56138056 
3213.585 56325384 56511960 56699636 56889284 57080524 57272340 57463448 
3216.960 57652712 57840012 58026068 58212544 58401260 58593696 58791232 
3220.335 58994168 59202516 59415592 59632468 59851732 60071448 60290324 
3223.711 60507068 60721056 60932748 61143172 61353392 61564060 61775396 
3227.086 61986956 62197816 62407396 62615552 62822200 63028292 63234672 
3230.461 63442000 63651108 63862352 64076580 64294180 64515696 64741172 
3233.836 64969956 65200940 65433056 65665596 65897948 66130668 66364700 
3237.212 66600488 66838248 67077384 67316728 67555312 67793064 68030592 
3240.587 68269368 68511120 68756424 69005080 69255592 69506216 69755576 
3243.962 70003840 70252784 70505576 70765728 71035792 71317080 71608552 
3247.337 71908424 72213512 72521248 72829592 73137600 73444824 73751144 
3250.713 74057104 74362808 74668248 74973832 75280056 75587448 75897344 
3254.088 76210112 76526536 76846520 77169624 77494792 77820608 78145504 
3257.463 78468392 78788928 79107080 79423800 79740072 80056536 80373192 
3260.838 80689392 81003512 81314344 81620600 81921832 82217944 82509048 
3264.214 82795536 83077488 83354320 83625776 83891384 84151000 84404648 
3267.589 84652368 84893864 85128840 85356608 85576784 85789648 85995432 
3270.964 86195400 86390328 86581104 86767640 86949832 87127120 87299424 
3274.339 87466608 87629024 87787048 87940904 88090152 88234816 88374256 
3277.715 88508536 88637784 88762024 88881504 88995648 89104088 89206568 
3281.090 89303136 89394968 89483832 89571832 89660696 89751416 89843624 
3284.465 89936208 90027728 90116768 90202528 90284464 90362224 90435576 
3287.840 90503896 90566832 90623976 90676352 90724984 90771616 90817720 
3291.216 90864368 90911952 90960200 91009144 91058952 91110120 91162800 
3294.591 91216840 91270800 91322680 91370112 91411296 91445936 91474608 
3297.966 91499480 91521936 91542960 91562392 91579168 91591688 91599832 
3301.341 91604048 91606576 91609896 91616320 91627568 91643856 91664640 
3304.717 91689152 91716408 91745632 91776328 91808088 91840472 91873384 
3308.092 91907856 91945568 91988888 92040616 92102504 92175176 92257696 
3311.467 92348264 92444584 92545768 92651984 92764624 92885248 93015232 
3314.842 93154400 93301912 93456224 93616008 93780832 93950936 94126912 
3318.218 94309416 94498392 94692920 94892248 95095248 95301728 95511528 
3321.593 95724520 95940224 96157200 96373576 96587368 96798080 97005904 
3324.968 97212672 97420000 97629240 97840504 98052152 98261704 98466496 
3328.343 98664152 98852488 99030456 99196424 99349264 99487360 99609576 
3331.719 99715488 99805416 99879760 99939560 99984480 100013808 100026032 
3335.094 100020528 99997368 99958040 99905280 99841648 99769008 99687640 
3338.469 99595984 99492360 99374792 99242520 99096096 98936992 98766872 
3341.844 98586928 98397712 98198848 97989912 97770864 97541256 97301624 
3345.219 97051640 96791536 96520576 96239064 95947880 95648984 95345104 
3348.595 95038912 94732616 94427392 94122544 93817304 93509808 93198792 
3351.970 92883688 92564344 92241136 91914984 91587064 91259024 90932576 
3355.345 90609928 90292504 89981128 89675120 89372904 89072560 88772552 
3358.720 88472296 88172784 87875624 87582768 87295000 87011848 86731744 
3362.096 86451944 86170632 85886184 85598696 85309224 85019376 84731016 
3365.471 84445584 84164752 83889816 83622328 83363072 83112752 82870800 
3368.846 82635760 82405608 82178344 81952080 81726256 81500504 81274784 
3372.221 81049352 80823392 80595840 80365616 80131880 79894576 79654048 
3375.597 79411152 79166088 78919248 78670368 78419328 78166608 77913320 
3378.972 77661168 77411712 77166304 76924832 76686776 76450512 76215208 
3382.347 75979952 75744576 75509856 75276080 75043144 74810760 74578072 
3385.722 74344680 74110272 73875408 73641096 73408488 73178152 72950768 
3389.098 72725968 72503512 72283368 72065752 71851264 71641216 71436464 
3392.473 71238056 71046208 70860464 70679280 70500472 70320840 70137344 
3395.848 69947432 69749936 69545216 69335616 69124648 68916344 68713496 
3399.223 68517760 68328824 68144968 67963664 67782720 67600488 67415864 
3402.599 67228488 67037984 66843740 66645408 66442108 66234312 66022216 
3405.974 65806872 65588824 65368460 65145196 64918316 64686640 64449660 
3409.349 64207664 63961856 63713760 63465156 63217236 62970796 62725604 
3412.724 62481692 62238804 61996360 61754580 61513052 61271352 61028872 
3416.100 60784312 60536508 60283892 60024844 59758724 59485164 59205288 
3419.475 58921644 58637956 58358660 58087952 57828696 57581468 57344704 
3422.850 57114760 56886904 56657128 56422076 56180440 55932380 55679488 
3426.225 55423208 55165308 54907152 54649708 54393472 54139448 53888044 
3429.601 53639792 53394604 53152360 52912612 52674528 52437772 52202076 
3432.976 51967480 51734132 51502440 51272656 51045088 50819940 50597820 
3436.351 50378116 50160648 49944136 49727104 49508324 49286356 49061192 
3439.726 48833032 48603400 48374148 48147312 47924332 47706088 47492684 
3443.102 47283008 47075092 46866504 46653768 46434356 46206208 45969340 
3446.477 45725904 45479732 45236056 44999420 44772720 44556388 44348672 
3449.852 44146084 43945088 43742800 43537780 43330116 43120168 42908312 
3453.227 42694180 42477088 42256264 42031472 41803364 41573952 41345208 
3456.603 41119248 40897112 40678768 40463628 40250736 40038964 39827628 
3459.978 39616136 39403840 39189908 38973904 38755400 38535600 38315724 
3463.353 38097844 37883432 37673572 37467824 37265168 37063904 36862264 
3466.728 36659676 36455956 36251320 36046280 35840944 35635268 35429436 
3470.104 35223816 35019868 34818352 34620768 34426932 34236196 34046544 
3473.479 33856300 33663588 33468072 33270240 33071250 32872174 32673720 
3476.854 32475684 32277700 32078986 31879182 31678654 31477400 31275808 
3480.229 31074136 30872592 30671994 30473550 30279248 30091388 29911596 
3483.604 29739968 29574972 29413654 29252146 29086944 28915924 28738742 
3486.980 28557104 28373736 28191722 28013632 27841058 27674450 27513270 
3490.355 27356348 27201744 27047650 26892204 26733992 26572316 26407320 
3493.730 26240346 26073084 25907256 25744374 25585386 25430392 25279630 
3497.105 25133310 24991602 24854956 24722808 24593752 24465330 24334178 
3500.481 24196584 24050558 23895724 23734260 23570514 23409800 23257922 
3503.856 23118956 22995056 22885756 22788006 22696912 22606466 22510906 
3507.231 22405254 22286788 22156118 22016352 21873324 21733476 21601996 
3510.606 21481766 21372116 21270426 21171786 21072858 20971412 20867730 
3513.982 20763482 20661032 20562010 20466484 20372888 20279106 20183052 
3517.357 20083896 19981988 19878924 19776472 19675296 19575076 19474256 
3520.732 19370310 19261538 19146420 19025518 18900116 18772846 18645546 
3524.107 18519700 18395548 18271848 18146458 18017750 17884042 17746024 
3527.483 17605016 17463948 17326100 17194154 17069452 16951676 16839476 
3530.858 16730338 16622018 16512899 16401846 16288446 16172223 16052697 
3534.233 15929077 15801061 15668616 15532744 15395541 15259479 15126754 
3537.608 14999111 14876341 14757855 14642075 14527901 14413758 14299474 
3540.984 14184466 14068257 13950060 13828782 13703059 13572313 13436582 
3544.359 13296760 13155206 13015064 12879610 12752489 12636151 12531849 
3547.734 12438823 12354747 12275768 12196939 12113933 12023654 11924947 
3551.109 11819044 11709015 11598843 11492101 11391066 11296175 11206984 
3554.485 11122060 11039837 10959805 10880806 10801924 10721665 10637956 
3557.860 10548628 10452835 10350446 10243366 10134243 10026369 9922386 
3561.235 9823817 9730692 9641922 9555949 9469789 9380464 9284251 9177536 
3565.093 9057144 8922748 8777576 8629443 8489538 8369978 8278920 8218912 
3568.950 8185923 8170898 8162626 8150809 8128898 8093249 8044270 7984361 
3572.807 7917375 7846554 7774056 7701503 7629705 7559267 7491065 7425975 
3576.665 7363827 7304012 7245284 7186092 7124517 7059549 6990382 6917118 
3580.522 6839963 6759792 6677718 6594987 6513146 6433271 6355394 6278439 
3584.380 6199616 6115228 6021484 5916372 5801145 5681249 5565111 5463063 
3588.237 5383381 5329809 5301064 5291002 5291505 5293383 5288721 5272488 
3592.094 5240694 5192438 5128630 5051993 4966856 4878218 4791842 4712517 
3595.952 4643890 4587731 4543699 4509280 4480756 4453573 4424317 4389773 
3599.809 4349410 4303562 4253670 4202010 4149989 4098610 4047671 3996838 
3603.667 3945377 3893152 3839764 3784678 3727192 3666239 3600684 3530562 
3607.524 3457112 3383774 3314722 3253961 3203255 3161265 3123752 3084941 
3611.382 3039126 2983741 2919656 2851746 2786914 2731527 2689050 2658879 
3615.239 2635676 2612508 2581876 2538113 2479293 2407153 2327397 2248454 
3619.096 2179117 2125939 2092477 2077728 2077262 2084786 2094208 2100634 
3622.954 2101600 2096905 2088015 2076995 2064078 2046866 2019170 1973201 
3626.811 1900213 1795462 1661266 1511717 1369233 1257698 1193204 1176658 
3630.669 1196759 1235468 1276407 1308244 1325526 1328883 1322602 1312864 
3634.526 1303791 1297543 1293422 1289235 1282854 1273616 1262550 1251086 
3638.384 1241050 1232511 1224038 1213039 1197290 1175362 1147687 1116327 
3642.241 1084072 1052916 1023423 993632 959859 917522 862174 791630 705499 
3646.581 606610 499650 390627 285576 190032 108825 46986 10106 2783 27071 
3651.402 80887 156520 242741 326658 395104 438120 450127 431520 388736 
3655.742 333887 281100 241746 221391 219170 230176 247813 266744 283686 
3660.082 296982 305570 308322 303812 290682 268667 239161 205413 171403 
3664.421 141439 118039 102031 91426 83174 72702 55337 27435 -13352 -65964 
3669.243 -125692 -183291 -226743 -247175 -241446 -214589 -178423 -149077 
3673.100 -143082 -172627 -242572 -345748 -462437 -563542 -623830 -633292 
3676.958 -599014 -539550 -473856 -417189 -375180 -346874 -325949 -305256 
3680.815 -279958 -248798 -213926 -179416 -148812 -123572 -103432 -87895 
3684.673 -77029 -73418 -81435 -106082 -150932 -216212 -297210 -384350 
3688.530 -466276 -533329 -580815 -608874 -620885 -620058 -608411 -586076 
3692.387 -553052 -509699 -458101 -402392 -346841 -295885 -252507 -217801 
3696.245 -191770 -173455 -161929 -157258 -160571 -173024 -196009 -229458 
3700.102 -271547 -317606 -362202 -398684 -421260 -428046 -419473 -400107 
3703.960 -376074 -354290 -340749 -339193 -350681 -373491 -404576 -439333 
3707.817 -473757 -506390 -537002 -567480 -599841 -635046 -670810 -701973 
3711.675 -720795 -719604 -694530 -645832 -579458 -504272 -430429 -366870 
3715.532 -319990 -293037 -286117 -296713 -320387 -352634 -389150 -427152 
3719.389 -465283 -503180 -540576 -576414 -608841 -635244 -653904 -663565 
3723.247 -665020 -660422 -652614 -644277 -636733 -629157 -618900 -602224 
3727.104 -575024 -536142 -486731 -432117 -379384 -336941 -312937 -312374 
3730.962 -336577 -381503 -439532 -501492 -560233 -613076 -661811 -709681 
3734.819 -758272 -804312 -839864 -855473 -844196 -805139 -743884 -670148 
3738.677 -592297 -516782 -446318 -380477 -318963 -263898 -220583 -199421 
3742.534 -211343 -264064 -355117 -465747 -566024 -624227 -624955 -573866 
3746.391 -492655 -406894 -337471 -300024 -299560 -332869 -388620 -452110 
3750.249 -509203 -550338 -571649 -572212 -552059 -511619 -452342 -378226 
3754.106 -296349 -214953 -142453 -84947 -45258 -22629 -14280 -15638 -23027 
3758.446 -34325 -47478 -59935 -68085 -66461 -50957 -19979 23161 71608 115984 
3763.268 147703 161757 157945 141207 119166 99512 86289 78402 71177 58518 
3768.089 37078 7157 -26340 -55761 -73286 -74081 -58179 -30117 3843 37045 
3772.911 64284 82776 91790 92321 86157 75220 61103 44203 24188 397 -27135 
3778.215 -57417 -86769 -110521 -123042 -120657 -103332 -75174 -43072 -14711 
3782.555 3048 7157 -1921 -19482 -39195 -54767 -61923 -59537 -49598 -35418 
3787.376 -19482 -4307 9244 21173 31743 41121 49405 56828 64085 71409 78402 
3792.680 83240 82942 73530 51460 16070 -29455 -77327 -117411 -139240 -137186 
3797.502 -112475 -73451 -32967 -5268 -2650 -31409 -88823 -161332 -228829 
3801.842 -268600 -266448 -221477 -145367 -56953 23592 78402 96331 74591 
3806.181 21371 -46285 -106479 -139902 -137881 -102802 -45556 21769 88344 
3810.521 147769 198783 242708 280835 312798 334384 339027 320259 274701 
3814.861 206175 126656 54707 8979 -563 23890 69189 116912 147504 147140 
3819.682 109322 38503 -49963 -133045 -187365 -200249 -172097 -114959 -45556 
3824.022 20013 70481 101136 114062 116581 118072 127584 149526 182805 221657 
3828.844 258257 285245 298010 295689 281631 261937 243669 232099 229878 
3833.183 236276 246852 255041 253648 235680 196496 134975 54840 -34955 
3837.523 -122114 -192664 -236380 -249096 -233267 -196539 -147587 -95349 
3841.380 -45623 -1093 37708 72039 103854 135042 166961 200374 235812 272579 
3846.202 310145 347483 383198 416562 446976 474174 497129 513118 516568 
3850.542 498887 449463 357763 219634 42347 -150568 -321479 -434666 -470645 
3854.881 -433375 -342967 -224789 -100782 16037 118602 205015 276160 333058 
3859.221 375836 404622 419281 421172 412781 398520 382170 366584 352788 
3863.561 341116 332063 327951 331864 346289 370298 398553 420939 425085 
3867.900 401040 344167 259981 163746 78833 26640 17760 48212 103191 165337 
3872.722 219734 259052 284714 304708 329908 367844 420110 482069 544136 
3877.062 595362 626751 633255 614640 575787 526023 477558 441835 426744 
3881.401 434306 460110 494376 524530 538762 528212 490262 430027 361609 
3885.741 303083 270358 272082 305570 360084 420475 473013 507910 520914 
3890.080 514545 496499 477790 468337 474606 497991 535776 582887 633487 
3894.420 683065 727470 763980 789705 802651 801024 784095 753193 711340 
3898.760 662921 613910 568853 530966 499915 473810 449132 422498 393611 
3903.099 364561 340453 327753 331533 354048 393810 445715 503166 560492 
3907.439 613180 659569 699957 735900 769390 801323 831897 860348 885747 
3911.778 907096 923831 935320 940666 938308 926886 905237 873661 834486 
3916.118 792062 751799 718476 694912 681173 675399 674702 677257 682301 
3920.458 690631 703010 719471 738821 758437 775166 787082 794153 798734 
3924.797 804377 814568 830868 852513 875819 896504 910416 915397 911114 
3929.137 899426 883257 865826 849359 835615 825490 819481 817821 820676 
3933.476 827780 837574 848762 859551 868549 875886 882460 890362 900887 
3937.816 915264 932896 951557 968161 979552 983337 978954 968061 953716 
3942.156 940267 932232 932232 941429 957900 978389 998448 1013625 1021031 
3946.495 1019437 1010138 995691 980315 967597 960125 959095 964077 973375 
3950.835 985263 998182 1011500 1024618 1037505 1049661 1061120 1071151 
3954.692 1079788 1087162 1094004 1101179 1109351 1118619 1128718 1138651 
3958.550 1147089 1153103 1156159 1156259 1153933 1149847 1144930 1139814 
3962.407 1135063 1130944 1127356 1124400 1121676 1119217 1116925 1114899 
3966.264 1113670 1113238 1113969 1116028 1119516 1123635 1128353 1133103 
3970.122 1137821 1142571 1147455 1152438 1157355 1161541 1164863 1167222 
3973.979 1168883 1170744 1173767 1178618 1185595 1193968 1202773 1210248 
3977.837 1215498 1217824 1217658 1215963 1213937 1213106 1214003 1216827 
3981.694 1221114 1225865 1230318 1233275 1234471 1233308 1230583 1226696 
3985.552 1222875 1219851 1218588 1219153 1221114 1223838 1226696 1228989 
3989.409 1230816 1232245 1234239 1237462 1242479 1249192 1256967 1265375 
3993.266 1273649 1281060 1287474 1292724 1296579 1299072 1300135 1299803 
3997.124 1298540 1296779 1294951 1293921 1293688 1294386 1295881 1297876 
##END=
