
##TITLE=Z305_2_e
##JCAMP-DX=5.01  $$ Nicolet v. 1
##DATATYPE=INFRARED SPECTRUM
##ORIGIN=UniL
##OWNER=Nicolet
##LONGDATE=2011/09/08
##TIME=15:20:49
##SPECTROMETER/DATA SYSTEM=Nicolet iS5
##DATA PROCESSING=
Ratio against background
%Transmittance->Absorbance
Truncated
ElementMultiply or ElementDivide
##COMMENTS=
Number of sample scans: 32
Collection length: 51.19 sec
Sample gain: 2.0
Background collected on: Jeu Sep 08 15:10:49 2011 (GMT+02:00);
Number of background scans: 32
Background gain: 2.0
Sample spacing:  1.000
Number of scan points: 12415
Resolution points: 8192
Number of FFT points: 65536
Apodization: N-B fort;
Phase correction: Mertz;
Laser frequency: 15798.0 cm-1
Number of rejected sample scans: 0
Number of rejected background scans: 0
Bench serial number: ASB1000141;
##RESOLUTION=4.000
##XUNITS=1/CM
##YUNITS=ABSORBANCE
##FIRSTX=649.893372
##LASTX=4000.122314
##FIRSTY=0.128269
##MAXX=4000.122314
##MINX=649.893372
##MAXY=0.299685
##MINY=-0.001954
##XFACTOR=1.000000
##YFACTOR=1.000000E-009
##NPOINTS=6950
##DELTAX=0.482117
##ZPD=6100
##XYDATA=(X++(Y..Y))
649.893 128268584 128373488 128593568 128927336 129341688 129796072 
652.786 130265696 130759464 131316184 131984648 132789896 133718072 
655.679 134713200 135705344 136636240 137484768 138268944 139029472 
658.571 139800864 140590704 141373984 142107584 142752640 143289216 
661.464 143721984 144069024 144349168 144568864 144722672 144797120 
664.357 144777328 144646576 144378384 143930368 143242160 142260240 
667.250 140983504 139516272 138060160 136816048 135885504 135237152 
670.142 134754272 134291376 133720544 132965056 132000192 130858064 
673.035 129601208 128300232 127000720 125713792 124426568 123122912 
675.928 121802576 120488960 119216968 118018480 116906720 115873552 
678.820 114897312 113958928 113054280 112195920 111405200 110697912 
681.713 110074840 109520240 109010672 108526512 108061536 107624360 
684.606 107230664 106891192 106603992 106353336 106118608 105885656 
687.498 105654848 105442000 105269864 105158120 105110848 105117264 
690.391 105156304 105209448 105268136 105337848 105432240 105566368 
693.284 105747328 105973400 106237928 106537888 106878312 107273672 
696.177 107738400 108277208 108875904 109500072 110103872 110636904 
699.069 111060400 111352920 111507048 111524528 111408376 111160024 
701.962 110782536 110285800 109692184 109032264 108339968 107640872 
704.855 106944512 106244400 105524880 104772216 103982008 103163472 
707.747 102333072 101508424 100700768 99912416 99141224 98386152 97652888 
711.122 96954296 96305280 95714736 95180920 94688800 94214200 93729104 
714.497 93210696 92642144 92014248 91322320 90565112 89745056 88871384 
717.872 87963744 87052416 86171240 85354384 84625680 83993696 83451480 
721.247 82980808 82557408 82154160 81743888 81301040 80798376 80213936 
724.621 79534336 78761280 77914040 77028040 76146976 75308424 74537392 
727.996 73841672 73214584 72643472 72117736 71635432 71200688 70820368 
731.371 70496024 70221264 69982072 69763200 69553344 69351320 69164824 
734.746 69007448 68891368 68822608 68799976 68817560 68868736 68949072 
738.121 69057248 69192328 69349496 69519200 69686984 69837640 69960936 
741.496 70054056 70120800 70168224 70202416 70224424 70231240 70218344 
744.870 70183688 70128304 70054872 69962216 69841416 69672088 69428408 
748.245 69084752 68624304 68046128 67365440 66609756 65809688 64994128 
751.620 64186156 63400588 62648356 61936436 61268680 60644808 60060072 
754.995 59505456 58970484 58447088 57933600 57434784 56960152 56518676 
758.370 56115736 55749968 55414816 55102408 54807372 54529100 54271472 
761.744 54039208 53834636 53656252 53499116 53358076 53231496 53123116 
765.119 53040632 52993648 52988744 53028164 53109260 53226776 53374856 
768.494 53548552 53744668 53959584 54190496 54437336 54706228 55012216 
771.869 55378112 55828184 56375028 57005560 57669816 58287036 58751476 
775.244 58956632 58830156 58346188 57539060 56488412 55306752 54107772 
778.619 52979796 51983540 51142324 50451612 49890168 49431836 49054180 
781.993 48739796 48478496 48264604 48094748 47967436 47881488 47835948 
785.368 47828956 47857480 47917484 48005368 48119324 48260492 48433524 
788.743 48645612 48904004 49214020 49578444 49997372 50471036 51001484 
792.118 51594256 52256780 52996980 53818320 54717164 55679376 56680984 
795.493 57687672 58654640 59532892 60268400 60806572 61102704 61125056 
798.867 60863596 60332012 59567588 58625516 57565464 56452112 55343560 
802.242 54286300 53319748 52471268 51757164 51185008 50752940 50453324 
805.617 50273496 50199736 50218964 50318512 50486596 50709520 50968584 
808.992 51241972 51502252 51720136 51869832 51929764 51885588 51731072 
812.367 51466400 51097860 50636800 50100624 49511112 48892660 48270712 
815.742 47666704 47096068 46568188 46086228 45649820 45257452 44908140 
819.116 44601548 44337332 44113620 43927604 43774972 43652988 43560672 
822.491 43500496 43476984 43495512 43559944 43670796 43825332 44018020 
825.866 44241020 44484620 44736872 44983068 45203696 45377424 45483448 
829.241 45504640 45433524 45273228 45037972 44747968 44426256 44094624 
832.616 43768816 43460760 43178096 42925792 42706792 42522360 42371176 
835.990 42248560 42147344 42059104 41976252 41894468 41813360 41736172 
839.365 41668072 41614244 41578840 41562652 41565568 41585072 41618584 
842.740 41662968 41715564 41774288 41837948 41906912 41982748 42068448 
846.115 42167092 42280556 42409128 42550644 42702040 42860036 43023464 
849.490 43192884 43371340 43561992 43767428 43988316 44223188 44469716 
852.865 44725744 44989864 45262308 45543352 45833632 46132764 46440628 
856.239 46757780 47086284 47430040 47793816 48181964 48597396 49040456 
859.614 49510404 50006332 50529360 51082316 51668668 52290192 52944124 
862.989 53620784 54304436 54972880 55602808 56171428 56658408 57048672 
866.364 57332608 57506716 57575452 57552036 57458684 57322588 57175044 
869.739 57045916 56957772 56926304 56958788 57055624 57212880 57423472 
873.113 57679084 57968508 58278396 58594116 58899900 59182692 59434628 
876.488 59653604 59842984 60010312 60164680 60315072 60469816 60637308 
879.863 60825860 61045040 61304356 61611672 61972052 62386664 62853216 
883.238 63366348 63919396 64505168 65115632 65742032 66375204 67006052 
886.613 67627704 68237968 68839376 69438832 70044712 70664272 71299784 
889.987 71948072 72601528 73251136 73888168 74505808 75099776 75665536 
893.362 76197200 76687608 77128352 77512536 77835424 78094576 78287456 
896.737 78410440 78455808 78413576 78274672 78033784 77693472 77264704 
900.112 76765536 76216784 75639584 75053024 74473192 73913936 73388672 
903.487 72908632 72483312 72118288 71814320 71568304 71374520 71228056 
906.862 71125792 71067240 71053936 71086880 71164976 71285256 71442944 
910.236 71634024 71856304 72110032 72396088 72714176 73060880 73430104 
913.611 73812920 74200752 74588176 74973472 75358680 75747896 76147328 
916.986 76564040 77006280 77485760 78015696 78609248 79276424 80018728 
920.361 80826744 81678656 82544672 83392896 84193064 84925288 85581464 
923.736 86165624 86691408 87181272 87664056 88170312 88732064 89377944 
927.110 90126152 90980464 91923872 92918496 93901608 94791504 95500752 
930.485 95935760 96016232 95687760 94927536 93756032 92235080 90468392 
933.860 88579392 86695416 84936288 83388400 82105848 81111488 80402336 
937.235 79961080 79764800 79792064 80020640 80425296 80975848 81629880 
940.610 82335160 83036968 83678568 84212176 84605824 84843592 84929600 
943.985 84884760 84746360 84559968 84373344 84232048 84169016 84203408 
947.359 84339944 84572368 84888344 85275072 85723976 86230560 86793208 
950.734 87410480 88078704 88791536 89542144 90325136 91138568 91983448 
954.109 92862392 93777000 94725320 95702632 96703144 97722680 98760472 
957.484 99818584 100901152 102009968 103144448 104299920 105470936 106653296 
960.859 107845592 109049512 110267512 111500112 112744592 113995624 
963.751 115247640 116497728 117747248 119001200 120265344 121543392 
966.644 122835408 124138688 125451432 126775504 128118056 129490376 
969.537 130905360 132372024 133895008 135474912 137112320 138811488 
972.429 140582768 142440192 144398880 146469616 148656112 150956016 
975.322 153364896 155879904 158503040 161239088 164090512 167052480 
978.215 170107760 173229840 176382624 179528992 182634608 185664368 
981.108 188583216 191351824 193923632 196254768 198308880 200067072 
984.000 201531984 202725664 203682336 204435488 205015936 205449360 
986.893 205758064 205969728 206118048 206238560 206367296 206531680 
989.786 206747920 207025136 207369296 207788720 208297600 208911600 
992.678 209642688 210492832 211452256 212501696 213618432 214785088 
995.571 215990768 217229696 218495600 219774496 221042480 222270832 
998.464 223430000 224499280 225470672 226346112 227132624 227834640 
1001.356 228452496 228984336 229431440 229804176 230122400 230410736 
1004.249 230693296 230985008 231291344 231613072 231953360 232324896 
1007.142 232752384 233264992 233890128 234643200 235523520 236517152 
1010.035 237603008 238762768 239982000 241251088 242560464 243894944 
1012.927 245235136 246563136 247868784 249157552 250449472 251773648 
1015.820 253154240 254601296 256105952 257644832 259189008 260713904 
1018.713 262207888 263670416 265107808 266526816 267933664 269336448 
1021.605 270749696 272199968 273722784 275351904 277111040 279001728 
1024.498 281003296 283076608 285177408 287267296 289313824 291290752 
1027.391 293168096 294902912 296442784 297730752 298716832 299371584 
1030.284 299685344 299663456 299313888 298638624 297631648 296285824 
1033.177 294603584 292605184 290326848 287815936 285116512 282259680 
1036.070 279265184 276146656 272921216 269619936 266286080 262969616 
1038.963 259722416 256586496 253596224 250784720 248185552 245838976 
1041.856 243790112 242075600 240719520 239725104 239076528 238744688 
1044.750 238697664 238910496 239364032 240043056 240929536 241995376 
1047.643 243202880 244511776 245882848 247286768 248703584 250114880 
1050.536 251497744 252817776 254028656 255084480 255947568 256597168 
1053.429 257031536 257259136 257287584 257114016 256721888 256084288 
1056.322 255175024 253972384 252462144 250635472 248481520 245987184 
1059.215 243142144 239947056 236424320 232620688 228607504 224464656 
1062.108 220268560 216087760 211972352 207961104 204086896 200376640 
1065.001 196853888 193533760 190418304 187496272 184744976 182139920 
1067.894 179659360 177290464 175028928 172874352 170824176 168869936 
1070.787 166996944 165187520 163426928 161704944 160016608 158359536 
1073.680 156729168 155117680 153514720 151911328 150304512 148699984 
1076.573 147111200 145554256 144044784 142595072 141212688 139904656 
1079.466 138679632 137548752 136524432 135616112 134825728 134147272 
1082.359 133568064 133075104 132659016 132318768 132061360 131899224 
1085.252 131844640 131906720 132090776 132399024 132833360 133396360 
1088.146 134089384 134909072 135842096 136864960 137942992 139036112 
1091.039 140108368 141131376 142088240 142974112 143792576 144553136 
1093.932 145268752 145958192 146644816 147355456 148118480 148955872 
1096.825 149877952 150880688 151946064 153046304 154147488 155218128 
1099.718 156227312 157144944 157942976 158593168 159071200 159364064 
1102.611 159472384 159413648 159215728 158913024 158537648 158112368 
1105.504 157653968 157173456 156680352 156184624 155694304 155211024 
1108.397 154724624 154212752 153641904 152971328 152163136 151184560 
1111.290 150008464 148616464 146994752 145136096 143043552 140734208 
1114.183 138242576 135615552 132911968 130190968 127502200 124886912 
1117.076 122373232 119978864 117715352 115589216 113601200 111745912 
1119.969 110010552 108375352 106815088 105304656 103820760 102343256 
1122.862 100855968 99344264 97793600 96191472 94528992 92804536 91026424 
1126.238 89213360 87392120 85590912 83838456 82158888 80569192 79082008 
1129.613 77704208 76437352 75278008 74216360 73237408 72320976 71446616 
1132.988 70596664 69759624 68932568 68121440 67339288 66602720 65930844 
1136.363 65343344 64857760 64490484 64254804 64158768 64204440 64387096 
1139.739 64695680 65114320 65625316 66212660 66861944 67561704 68301944 
1143.114 69071624 69858656 70650192 71433768 72200600 72946568 73672264 
1146.489 74381520 75079928 75773296 76466832 77166304 77879784 78615608 
1149.864 79383224 80190024 81038968 81928432 82852400 83803776 84775832 
1153.240 85764376 86767752 87784328 88810600 89839960 90862200 91865736 
1156.615 92838552 93768704 94643560 95448160 96161744 96760192 97215616 
1159.990 97500240 97591664 97472080 97129296 96555416 95744432 94692352 
1163.365 93399152 91870600 90120520 88169256 86043408 83771256 81379360 
1166.740 78894656 76342144 73747064 71137496 68540264 65981448 63484140 
1170.116 61065136 58736568 56506980 54381788 52365804 50463220 48677300 
1173.491 47009772 45460048 44025608 42702112 41484664 40368532 39349240 
1176.866 38422568 37583816 36827604 36147964 35538884 34995196 34513564 
1180.241 34092812 33733664 33437866 33206928 33041466 32940940 32904376 
1183.617 32930504 33019050 33170446 33385620 33665164 34008920 34414916 
1186.992 34879744 35398124 35962908 36565160 37192604 37829924 38459892 
1190.367 39063224 39622668 40125012 40562784 40934976 41246748 41506976 
1193.742 41726064 41914356 42081004 42232276 42372128 42501456 42618624 
1197.118 42719732 42799620 42853232 42876748 42868008 42826976 42754504 
1200.493 42651412 42517792 42352836 42155632 41925888 41664136 41371668 
1203.868 41049096 40694344 40302320 39864196 39369192 38807248 38171204 
1207.243 37459224 36675432 35831044 34942188 34027840 33110228 32211888 
1210.619 31353194 30553314 29827336 29185766 28634960 28177082 27810818 
1213.994 27532508 27337578 27221358 27179380 27207706 27302326 27458804 
1217.369 27672400 27938150 28251512 28609302 29009466 29450776 29932752 
1220.744 30454288 31013848 31609728 32240332 32904624 33602404 34333724 
1224.120 35098320 35895140 36722088 37576048 38453740 39350692 40261604 
1227.495 41178880 42091812 42987428 43849816 44662172 45408948 46075584 
1230.870 46649788 47121808 47484112 47732640 47868280 47898212 47837168 
1234.245 47705460 47529872 47339460 47162436 47027900 46961924 46987880 
1237.621 47127644 47398660 47813824 48380224 49097956 49959896 50951444 
1240.996 52053644 53242096 54487632 55759200 57020180 58230388 59351736 
1244.371 60346860 61186160 61852184 62338164 62649040 62798648 62808760 
1247.746 62705844 62519268 62281408 62021084 61760348 61510532 61268220 
1251.122 61015712 60723380 60358932 59892236 59302852 58584484 57744100 
1254.497 56800568 55778452 54706264 53611752 52517596 51442420 50397952 
1257.872 49389064 48415188 47471872 46553548 45655084 44774596 43913488 
1261.247 43076404 42269304 41498300 40768804 40084676 39448756 38864100 
1264.623 38333024 37858340 37442248 37085628 36787972 36547316 36360904 
1267.998 36226508 36142308 36107380 36121136 36182280 36287884 36432968 
1271.373 36610792 36814624 37037380 37273396 37518248 37767936 38018956 
1274.748 38268208 38513476 38753844 38990360 39225048 39459644 39693712 
1278.124 39922748 40138424 40328352 40478684 40577188 40614004 40584388 
1281.499 40488144 40330244 40119344 39866956 39586844 39292944 38997864 
1284.874 38712440 38444472 38199244 37980624 37791756 37636856 37520488 
1288.249 37447232 37419892 37438492 37499212 37594836 37716288 37855160 
1291.625 38004564 38161004 38323396 38492804 38670968 38860436 39064164 
1295.000 39285760 39530188 39803184 40110552 40456716 40844584 41275136 
1298.375 41748244 42263464 42821380 43423224 44069872 44761188 45495076 
1301.750 46267132 47072396 47905796 48763556 49642776 50541012 51454800 
1305.125 52379860 53310120 54240196 55166548 56087228 57001932 57910200 
1308.501 58809592 59694696 60558064 61390640 62184700 62933600 63631652 
1311.876 64273128 64850300 65353356 65772100 66096596 66319764 66437320 
1315.251 66447748 66349916 66143244 65827696 65405936 64885312 64279816 
1318.626 63608988 62894844 62160152 61423192 60697620 59992808 59314664 
1322.002 58668180 58058676 57491172 56971104 56503052 56090776 55738856 
1325.377 55453552 55242856 55117156 55086572 55157748 55332080 55603036 
1328.752 55957932 56377968 56842716 57332116 57826804 58309544 58764452 
1332.127 59176464 59533008 59825072 60047744 60201216 60288692 60315604 
1335.503 60286900 60206732 60078680 59905852 59692568 59444432 59167504 
1338.878 58868592 58553544 58227128 57892404 57550940 57202520 56845132 
1342.253 56474564 56085800 55673160 55233032 54765044 54273760 53767540 
1345.628 53257716 52756084 52272108 51813232 51384904 50991912 50640376 
1349.004 50338380 50094860 49919532 49819556 49798188 49853784 49980160 
1352.379 50167972 50404984 50678572 50976636 51286864 51598772 51903884 
1355.754 52196284 52473740 52737372 52989644 53232244 53463740 53677808 
1359.129 53864980 54012904 54110812 54152320 54137756 54075832 53982060 
1362.505 53878668 53790040 53738480 53742492 53812584 53951484 54154312 
1365.880 54410068 54702844 55012364 55317852 55598100 55832332 56002108 
1369.255 56089756 56077200 55948320 55688492 55288312 54745576 54069152 
1372.630 53278952 52404424 51485464 50564204 49677952 48854948 48107408 
1376.006 47433804 46821808 46255452 45720824 45210312 44725340 44275360 
1379.381 43875876 43542432 43287684 43118080 43031400 43016148 43050024 
1382.756 43102784 43134512 43099492 42953116 42652180 42163444 41472668 
1386.131 40592176 39566556 38464996 37371932 36359608 35473304 34728540 
1389.507 34115392 33610748 33187330 32821174 32492678 32185696 31888098 
1392.882 31591308 31292654 30996838 30716802 30469500 30269230 30122320 
1396.257 30024278 29963248 29923558 29892322 29863892 29840716 29831524 
1399.632 29846394 29892074 29967508 30065074 30172502 30277756 30371874 
1403.008 30451160 30518266 30580868 30650056 30735650 30844952 30980682 
1406.383 31141766 31324524 31524676 31738642 31963698 32198686 32443974 
1409.758 32701730 32975294 33269134 33587940 33935288 34312564 34718888 
1413.133 35151164 35605380 36077280 36563500 37061848 37570376 38087640 
1416.509 38612004 39142768 39682492 40238484 40823288 41449016 42124192 
1419.884 42845952 43599280 44362324 45112116 45831092 46507040 47136432 
1423.259 47723284 48276488 48807120 49323620 49829328 50321116 50790632 
1426.634 51226352 51616908 51951648 52221916 52422628 52551552 52610192 
1430.010 52602488 52535396 52418744 52264148 52086180 51898100 51709128 
1433.385 51522544 51334184 51135688 50919588 50689188 50466460 50296636 
1436.760 50234252 50324092 50583896 50999064 51532920 52136392 52760980 
1440.135 53357284 53879460 54291632 54565768 54685632 54645496 54446308 
1443.510 54093620 53595632 52964264 52213848 51359696 50420464 49417204 
1446.886 48377332 47339424 46349560 45455084 44694528 44085712 43626428 
1450.261 43298996 43081344 42953812 42903924 42925428 43012960 43155736 
1453.636 43335204 43520892 43673984 43754820 43729644 43588880 43357940 
1457.011 43098356 42876600 42732200 42665668 42649732 42650168 42640152 
1460.387 42606708 42546992 42462252 42351300 42206568 42015304 41765352 
1463.762 41453788 41094372 40715744 40354424 40038892 39779764 39570580 
1467.137 39393936 39231936 39069496 38896384 38703096 38475608 38192408 
1470.512 37825840 37349296 36751436 36048728 35289904 34537528 33844836 
1473.888 33235364 32702622 32223738 31777784 31357608 30973138 30644828 
1477.263 30391348 30222800 30135638 30117278 30152756 30233102 30358408 
1480.638 30537532 30783770 31108270 31517192 32010388 32584100 33235152 
1484.013 33963664 34772476 35663504 36633972 37670172 38743016 39811248 
1487.389 40818740 41699148 42386188 42814836 42935084 42725000 42198060 
1490.764 41403888 40412276 39296680 38112200 36886868 35628180 34328308 
1494.139 32977938 31581652 30164334 28775526 27483440 26352358 25426774 
1497.514 24720144 24220686 23900728 23728732 23677642 23722502 23840378 
1500.890 24010426 24210736 24420534 24620824 24789912 24901622 24922502 
1504.265 24805138 24492392 23927898 23081390 21980242 20722472 19444178 
1507.640 18254502 17196706 16254427 15386066 14551611 13728331 12913128 
1511.015 12119419 11368821 10679452 10062517 9517778 9036811 8607306 8217291 
1514.873 7857957 7524103 7215064 6934356 6688519 6484759 6326413 6209934 
1518.730 6124436 6051822 5971427 5867336 5736140 5593304 5467257 5387373 
1522.588 5366943 5398478 5459574 5523833 5572394 5597030 5603944 5608475 
1526.445 5628748 5676146 5750846 5844432 5946032 6047958 6147724 6246942 
1530.302 6347628 6448270 6543149 6623818 6684919 6729437 6772177 6835587 
1534.160 6937218 7082416 7259940 7449805 7628558 7776282 7879854 7932290 
1538.017 7933573 7889976 7813829 7720829 7627952 7551074 7502089 7486177 
1541.875 7500740 7535464 7575350 7604010 7610754 7593591 7560717 7525822 
1545.732 7501650 7493088 7494436 7492211 7471177 7421391 7342629 7246497 
1549.590 7150891 7073862 7023853 6997318 6981122 6960550 6925703 6875509 
1553.447 6817579 6764503 6726913 6706891 6696561 6679199 6634921 6543149 
1557.304 6388312 6167149 5900787 5638751 5440885 5348560 5363756 5457762 
1561.162 5592465 5734361 5859376 5950735 6001326 6012849 5996824 5970319 
1565.019 5950600 5948853 5965381 5991214 6011741 6014630 5993834 5953052 
1568.877 5905053 5868343 5860048 5888327 5952381 6044095 6153336 6269396 
1572.734 6382293 6482809 6560035 6604979 6613490 6591892 6559329 6543856 
1576.592 6572448 6656689 6790788 6956476 7134824 7311189 7478727 7638371 
1580.449 7795578 7957498 8128931 8311241 8502242 8698163 8894474 9087323 
1584.306 9272878 9446254 9601643 9733166 9836357 9910488 9959745 9993243 
1588.164 10023114 10062144 10122271 10212054 10336873 10499778 10700982 
1591.539 10937616 11201476 11479138 11750681 11992145 12181604 12300616 
1594.914 12340601 12303036 12199972 12049782 11872367 11686957 11508262 
1598.290 11346577 11209500 11102004 11027432 10987025 10979480 11001264 
1601.665 11047212 11112779 11193758 11287572 11392324 11505506 11623244 
1605.040 11740979 11853230 11955394 12044093 12116693 12170802 12203107 
1608.415 12208253 12180241 12114036 12007474 11863956 11692914 11508432 
1611.791 11325491 11155578 11004254 10869629 10743503 10614594 10472589 
1615.166 10311662 10135193 9956491 9798127 9682748 9624273 9624747 9674108 
1619.023 9756139 9851237 9940727 10009043 10044171 10042103 10007924 9956186 
1622.881 9907132 9879369 9884047 9920623 9978935 10044748 10105586 10153170 
1626.738 10184918 10203439 10214735 10226200 10244044 10273018 10315089 
1630.113 10370297 10436339 10508603 10580880 10643592 10686243 10697824 
1633.489 10668415 10593340 10476866 10336840 10201505 10101821 10059024 
1636.864 10076149 10140688 10231628 10329205 10416892 10484368 10528802 
1640.239 10553109 10565229 10573954 10586244 10603458 10621386 10630248 
1643.614 10618126 10573410 10487761 10360084 10198350 10021521 9855101 
1646.990 9725406 9651612 9639145 9681392 9761765 9860015 9951575 10007619 
1650.847 9997650 9888420 9657913 9315124 8922512 8581113 8371262 8311916 
1654.704 8364304 8472543 8587771 8680517 8737884 8757594 8745356 8708945 
1658.562 8655875 8589968 8511264 8417170 8304654 8172518 8023512 7864300 
1662.419 7705517 7558930 7434031 7335890 7263815 7211931 7170900 7129165 
1666.277 7075512 6999170 6892981 6754239 6587653 6405192 6223614 6061331 
1670.134 5932227 5842014 5788419 5762396 5750611 5737282 5707334 5647747 
1673.991 5551788 5423136 5278558 5143450 5040261 4979894 4957070 4956366 
1677.849 4958008 4946982 4917424 4872622 4823100 4779748 4747990 4722532 
1681.706 4688133 4623462 4510452 4344892 4147580 3960791 3831374 3783942 
1685.564 3810916 3884126 3971659 4050915 4108878 4141894 4152866 4148517 
1689.421 4136374 4123462 4116638 4120586 4137813 4167117 4202044 4231118 
1693.279 4238178 4207129 4127577 4003225 3856244 3723917 3641646 3623036 
1697.136 3654845 3704334 3734645 3712688 3621632 3470538 3299965 3167006 
1700.993 3112305 3141841 3229091 3337260 3432397 3492483 3507714 3479389 
1704.851 3418772 3343136 3270987 3214069 3176051 3153556 3140239 3129326 
1708.708 3116811 3100959 3082538 3063017 3043664 3024812 3005727 2985075 
1712.566 2961122 2932933 2899575 2861051 2816460 2764138 2701286 2625609 
1716.423 2538313 2446571 2364441 2308876 2294619 2325831 2396158 2490690 
1720.281 2592709 2686049 2758769 2805622 2826766 2827933 2817161 2803521 
1724.138 2793216 2788914 2789548 2792349 2793883 2790482 2779877 2760370 
1727.995 2732194 2697852 2662012 2631109 2610042 2600775 2598442 2592675 
1731.853 2568010 2508952 2407520 2271103 2126671 2011447 1956991 1971570 
1735.710 2039909 2133797 2224608 2291488 2321467 2312440 2271703 2214750 
1739.568 2158671 2117082 2095174 2090413 2095507 2103331 2109657 2113220 
1743.425 2115750 2118680 2122975 2127737 2131166 2130933 2125772 2115550 
1747.282 2101300 2084486 2066209 2046866 2026560 2005788 1986848 1973334 
1751.140 1970904 1984185 2015608 2063345 2121177 2180715 2232135 2265874 
1754.997 2275899 2260711 2225274 2179583 2136061 2104796 2089347 2085818 
1758.855 2085418 2078161 2055455 2014509 1958422 1896852 1842211 1805643 
1762.712 1793532 1805277 1834824 1873124 1910463 1938586 1951000 1944643 
1766.570 1920381 1883773 1843276 1808438 1785315 1774335 1769478 1760263 
1770.427 1736443 1691834 1628206 1557438 1497919 1466401 1470390 1506198 
1774.284 1562160 1624481 1682022 1729690 1767349 1798091 1824942 1848833 
1778.142 1867800 1878282 1878049 1867867 1852360 1838850 1833759 1839416 
1781.999 1853125 1868565 1879247 1880246 1872026 1858316 1846204 1841213 
1785.857 1846037 1859647 1877717 1895554 1908932 1914989 1911728 1896985 
1789.714 1868332 1823411 1762525 1689373 1613240 1546664 1501144 1483124 
1793.572 1491502 1518434 1553813 1588531 1616932 1636754 1648627 1653816 
1797.429 1653217 1646399 1632164 1610380 1582013 1551186 1523388 1503871 
1801.286 1495359 1497686 1507661 1521027 1533762 1544104 1551718 1557737 
1805.144 1563590 1570141 1577490 1584972 1591757 1597277 1600968 1602265 
1809.001 1600968 1596712 1589728 1581148 1573134 1568046 1567979 1573533 
1812.859 1583276 1594517 1603995 1608917 1608518 1603995 1598175 1594683 
1816.716 1596579 1604893 1619526 1638184 1658705 1679161 1698653 1716683 
1820.573 1733116 1747022 1756171 1757701 1747920 1724600 1687743 1641044 
1824.431 1591391 1547795 1518367 1507029 1512948 1529673 1548692 1560763 
1828.288 1559633 1544602 1521061 1498850 1488510 1497487 1526746 1570972 
1832.146 1620723 1666821 1702412 1724534 1734247 1735478 1733482 1732085 
1836.003 1734214 1740634 1751480 1766750 1787144 1813429 1845838 1882775 
1839.861 1920747 1954095 1976463 1981356 1964580 1924441 1864938 1795861 
1843.718 1731752 1688209 1677199 1702213 1758433 1833560 1913991 1986715 
1847.575 2043671 2082522 2106327 2121910 2136361 2154242 2176253 2198998 
1851.433 2217248 2226207 2223809 2210887 2190639 2166696 2141522 2116349 
1855.290 2090679 2064078 2037046 2011180 1988346 1969772 1955194 1942646 
1859.148 1930132 1916121 1901111 1887367 1877950 1874522 1877217 1883607 
1863.005 1889697 1892692 1890562 1883141 1870595 1852526 1827071 1791137 
1866.863 1742265 1681323 1613639 1549956 1502507 1480996 1489008 1522158 
1870.720 1570706 1622885 1669682 1705905 1730987 1746722 1755904 1760396 
1874.577 1760329 1755505 1745857 1732717 1718745 1706969 1699485 1696724 
1878.435 1697423 1699053 1699784 1698920 1696924 1695194 1694396 1693930 
1882.292 1692333 1687743 1679161 1667253 1653750 1640978 1630135 1620723 
1886.150 1610713 1597210 1578188 1553281 1524386 1494927 1469659 1452570 
1890.007 1446154 1450609 1464539 1485285 1509190 1532698 1552550 1565884 
1893.865 1571870 1571205 1566450 1561329 1558735 1560663 1566516 1574730 
1897.722 1583343 1591524 1599937 1610380 1624182 1641477 1660368 1677032 
1901.579 1687776 1690205 1684117 1671977 1657175 1642641 1629670 1617663 
1905.437 1604826 1589861 1572934 1555276 1539615 1527977 1520961 1517303 
1909.294 1516073 1515973 1517403 1521559 1530437 1544835 1564421 1586402 
1913.152 1608085 1626011 1638417 1643339 1639581 1625246 1598441 1558402 
1917.009 1507162 1450177 1396490 1355539 1333270 1329216 1337026 1346233 
1920.866 1346698 1332074 1302661 1265275 1230683 1208620 1204567 1217625 
1924.724 1241582 1268000 1290365 1305253 1313263 1316786 1318713 1320807 
1928.581 1323167 1325493 1328052 1331309 1337425 1346731 1359129 1372690 
1932.439 1384988 1394528 1400977 1405232 1408756 1411614 1412279 1408357 
1936.296 1397487 1379770 1357965 1336993 1321339 1313429 1311435 1310571 
1940.154 1304855 1290431 1268332 1243044 1222974 1214069 1219120 1235335 
1944.011 1256868 1276740 1290298 1296181 1295616 1290963 1283519 1273915 
1947.868 1261919 1248660 1236830 1231049 1235235 1250554 1273915 1298607 
1951.726 1315456 1318713 1305652 1279265 1245005 1208487 1171574 1133070 
1955.583 1087859 1031062 961121 881298 798900 723952 664879 627017 610260 
1959.923 612085 627713 653696 686582 722259 757176 785722 803580 808029 
1964.262 798767 779016 752031 721396 688573 654227 618953 584015 553459 
1968.602 532226 523999 529539 545098 564540 579901 586736 583451 572403 
1972.942 558037 543804 532326 525625 526852 542411 580531 648984 750504 
1977.281 879239 1020533 1155362 1268100 1349157 1399614 1427571 1444658 
1981.139 1459951 1477339 1495359 1509091 1515308 1513812 1508658 1504968 
1984.996 1507894 1518899 1535325 1553614 1570640 1585471 1600303 1617730 
1988.854 1638650 1660768 1679195 1688076 1684084 1667553 1643605 1620291 
1992.711 1604128 1598773 1603230 1613373 1624714 1633661 1639947 1643905 
1996.568 1647064 1649891 1651322 1650357 1646233 1639248 1630767 1621887 
2000.426 1611211 1596047 1572103 1535458 1485252 1424845 1360890 1302229 
2004.283 1256934 1229819 1222542 1234006 1261321 1301930 1352880 1409487 
2008.141 1465170 1511485 1541011 1549723 1539182 1516439 1490870 1472884 
2011.998 1466101 1469891 1477039 1479367 1469492 1446287 1412977 1377011 
2015.855 1346964 1328152 1322934 1330744 1349457 1377310 1412213 1451074 
2019.713 1489507 1520529 1538218 1538684 1522557 1495858 1467531 1447351 
2023.570 1440004 1446520 1461779 1478702 1490571 1494827 1492167 1485717 
2027.428 1478968 1473382 1468695 1464306 1461048 1462677 1474180 1500945 
2031.285 1545534 1604826 1673008 1742631 1808405 1867867 1923376 1978926 
2035.143 2038877 2105129 2176186 2248621 2317803 2380599 2435175 2481693 
2039.000 2520483 2551645 2574743 2589242 2595175 2593942 2588375 2581776 
2042.857 2577476 2577509 2583342 2593975 2608642 2627309 2649977 2678215 
2046.715 2714723 2762270 2823130 2896440 2979203 3063918 3141340 3200617 
2050.572 3234232 3239439 3220178 3185597 3148182 3120281 3109669 3117612 
2054.430 3138637 3162734 3180424 3185130 3175818 3156392 3133698 3114041 
2058.287 3101893 3098589 3103362 3115175 3133397 3158195 3190003 3227422 
2062.145 3266914 3303271 3331650 3349147 3356226 3356693 3354823 3355391 
2066.002 3360600 3369616 3381069 3393425 3407317 3424082 3446090 3473878 
2069.859 3505342 3536542 3561730 3576195 3577966 3568745 3552543 3534604 
2073.717 3519038 3508282 3502804 3502203 3505777 3513660 3525852 3542053 
2077.574 3560594 3578934 3594436 3605528 3612411 3616955 3621766 3629050 
2081.432 3639007 3649599 3657351 3659021 3652572 3638606 3619427 3598980 
2085.289 3580438 3565839 3555750 3549302 3545026 3541385 3537276 3531698 
2089.146 3523280 3511322 3494921 3473544 3448328 3420375 3391588 3364139 
2093.004 3339631 3319597 3305374 3298296 3299999 3311016 3331250 3358096 
2096.861 3387581 3415365 3437440 3452202 3460485 3464961 3469269 3476450 
2100.719 3488007 3504274 3524416 3547565 3573289 3601118 3630319 3659055 
2104.576 3684617 3704334 3716531 3721678 3722781 3724285 3730935 3745038 
2108.434 3766295 3792064 3818170 3841603 3861025 3877907 3894790 3913714 
2112.291 3935446 3957815 3977209 3990318 3994297 3989616 3978280 3964169 
2116.148 3950793 3940763 3934410 3931000 3928793 3926051 3922005 3915987 
2120.006 3908063 3898802 3888873 3879111 3870319 3863064 3857715 3852968 
2123.863 3847118 3837792 3822683 3800387 3770573 3734611 3694241 3651904 
2127.721 3609304 3567108 3525585 3483731 3440747 3395295 3346776 3294256 
2131.578 3238772 3182360 3129226 3084440 3053674 3040494 3045199 3063284 
2135.436 3087444 3108701 3119480 3116343 3099991 3074796 3046634 3020141 
2139.293 2997720 2979237 2963690 2950246 2939638 2932833 2930931 2932766 
2143.150 2934401 2930297 2915753 2889002 2851345 2808223 2766305 2731327 
2147.008 2705654 2688083 2675014 2661479 2644144 2620109 2589042 2549879 
2150.865 2501054 2440639 2366840 2278864 2178051 2065743 1943511 1811366 
2154.723 1670247 1522524 1377177 1251451 1169382 1159282 1243011 1426939 
2158.580 1696525 2017905 2347318 2641943 2873425 3030785 3120148 3157327 
2162.438 3162400 3152921 3141240 3134332 3135867 3146580 3166071 3191238 
2166.295 3218376 3241709 3256231 3259068 3250088 3232563 3211332 3191672 
2170.152 3176418 3165604 3156626 3146013 3131361 3112806 3093450 3077867 
2174.010 3070592 3074162 3088311 3109803 3133331 3152788 3161766 3156526 
2177.867 3135300 3099858 3055076 3008396 2968494 2943307 2937369 2952114 
2181.725 2983707 3025312 3069491 3109803 3143209 3170010 3193341 3216840 
2185.582 3243212 3273824 3307578 3342736 3376661 3407584 3434435 3457346 
2189.439 3477018 3494754 3512090 3529527 3546363 3560126 3567275 3564235 
2193.297 3548367 3519405 3480057 3436004 3394460 3361969 3343070 3338929 
2197.154 3347210 3363538 3383273 3403276 3421944 3439043 3454039 3466497 
2201.012 3474413 3476450 3471139 3459149 3443251 3427054 3414764 3409421 
2204.869 3412660 3424082 3442383 3465996 3493017 3522578 3553612 3584581 
2208.727 3613580 3639241 3660057 3675662 3686455 3693406 3696480 3695979 
2212.584 3691100 3681978 3669146 3654845 3642582 3635031 3635431 3644787 
2216.441 3663198 3688928 3720141 3754797 3791463 3828499 3864702 3898368 
2220.299 3927823 3952265 3971324 3986004 3997441 4006403 4012857 4016335 
2224.156 4015498 4010415 4002791 3995835 3993728 3999915 4016301 4041617 
2228.014 4072086 4103627 4132126 4155208 4173741 4189264 4204051 4219441 
2231.871 4235468 4251160 4265481 4277929 4289541 4301721 4316312 4333948 
2235.729 4354530 4376988 4399547 4420769 4440049 4456519 4470345 4480924 
2239.586 4487987 4490498 4488858 4483435 4476304 4469909 4466093 4466194 
2243.443 4469742 4476572 4485209 4494951 4505798 4517516 4530741 4544904 
2247.301 4559503 4573432 4586023 4596571 4605579 4613415 4621318 4629858 
2251.158 4639905 4652028 4666329 4683243 4703105 4725714 4750268 4775326 
2255.016 4798944 4819615 4836234 4848664 4857074 4861698 4863105 4861296 
2258.873 4856337 4848865 4839919 4831610 4825512 4823234 4824842 4829600 
2262.730 4835329 4840254 4843203 4844677 4846453 4850909 4860291 4874766 
2266.588 4893297 4913135 4930963 4943865 4949931 4949094 4942424 4931901 
2270.445 4919938 4908510 4899127 4892961 4889644 4889443 4891353 4894771 
2274.303 4899127 4904455 4911359 4920608 4933476 4950233 4970543 4993032 
2278.160 5015825 5037143 5055915 5072274 5087025 5102245 5119746 5140835 
2282.018 5165814 5193545 5222317 5249548 5272655 5290230 5300829 5304888 
2285.875 5302976 5296905 5288151 5278055 5267189 5255685 5242975 5228252 
2289.732 5211754 5194148 5176946 5161790 5150491 5143819 5141539 5142612 
2293.590 5145596 5149217 5152570 5155520 5158471 5161522 5164741 5167792 
2297.447 5169804 5170140 5168496 5165278 5161053 5156526 5152100 5147876 
2301.305 5143349 5138186 5132352 5125914 5119344 5112906 5106671 5100434 
2305.162 5093461 5085147 5074989 5063055 5049580 5035266 5020584 5005735 
2309.020 4990451 4974297 4956701 4937665 4917290 4896379 4876442 4858515 
2312.877 4844040 4833922 4828494 4827422 4829298 4832481 4834492 4833654 
2316.734 4828762 4819381 4806482 4791808 4778106 4767487 4762462 4764237 
2320.592 4773316 4788659 4807822 4826718 4839517 4840355 4823737 4786381 
2324.449 4728160 4652698 4566836 4478614 4396301 4326519 4272441 4234564 
2328.307 4210408 4196423 4189096 4186018 4186152 4189163 4195085 4203047 
2332.164 4212014 4220445 4227638 4233226 4237709 4241892 4246275 4251193 
2336.021 4256313 4261600 4267288 4273813 4282212 4292954 4305804 4319892 
2339.879 4333714 4345896 4356103 4365006 4374377 4385925 4400585 4418827 
2343.736 4440618 4466395 4498500 4540485 4596671 4670549 4762763 4870343 
2347.594 4986496 5102748 5209306 5297039 5359395 5392573 5396096 5372680 
2351.451 5327964 5269302 5203336 5136376 5072106 5012272 4956936 4905461 
2355.309 4857041 4811374 4768760 4730538 4698181 4673362 4657253 4650622 
2359.166 4652966 4663014 4678454 4696842 4715532 4732916 4748828 4763902 
2363.023 4779681 4798676 4822229 4851713 4887265 4928081 4972956 5020919 
2366.881 5070766 5122059 5174733 5228655 5283690 5339571 5396196 5453467 
2370.738 5511685 5571790 5634488 5700519 5770421 5843794 5920470 5999882 
2374.596 6081794 6166074 6253362 6343929 6437811 6534875 6634113 6734822 
2378.453 6835789 6936611 7037188 7137720 7238310 7338889 7439053 7538026 
2382.311 7634696 7727845 7816561 7899795 7976870 8047376 8110770 8166880 
2386.168 8215467 8256834 8291214 8319380 8342246 8360756 8375754 8388388 
2390.025 8399063 8408454 8416697 8423893 8429670 8433926 8436291 8436765 
2393.883 8435480 8432947 8429467 8425616 8421697 8418521 8416663 8417508 
2397.740 8422473 8432508 8448522 8470719 8498120 8529140 8561817 8594496 
2401.598 8626063 8656483 8686804 8718614 8753301 8792419 8836748 8886629 
2405.455 8941723 9001392 9064756 9130904 9198721 9267530 9336892 9406501 
2409.313 9476562 9547380 9619191 9691895 9764951 9837849 9910115 9981410 
2413.170 10051869 10121796 10191736 10261347 10329952 10396156 10458672 
2416.545 10516072 10568047 10614697 10656666 10694699 10729544 10761640 
2419.920 10791360 10819147 10845576 10871430 10897284 10922903 10948048 
2423.296 10971223 10991510 11007890 11020703 11031034 11040823 11051767 
2426.671 11065261 11082017 11102106 11125629 11152893 11184307 11221129 
2430.046 11263972 11313622 11369569 11431341 11497919 11568557 11642915 
2433.421 11721031 11803178 11888985 11977806 12068723 12160580 12252864 
2436.797 12345714 12440084 12537236 12638573 12745188 12857800 12976759 
2440.172 13102204 13233629 13371107 13513449 13659906 13809115 13960359 
2443.547 14113368 14268656 14427322 14590844 14760186 14935183 15114849 
2446.922 15297746 15481820 15666246 15850991 16036881 16224913 16415300 
2450.298 16607868 16800592 16991436 17177780 17357858 17530698 17695806 
2453.673 17853554 18003832 18146248 18279728 18402152 18511470 18605080 
2457.048 18680620 18735896 18769352 18779904 18767172 18730880 18671486 
2460.423 18588894 18483084 18354036 18201772 18027008 17831080 17616402 
2463.799 17385654 17142656 16890354 16632380 16371498 16109981 15850544 
2467.174 15595695 15348135 15110595 14885187 14673124 14474628 14288653 
2470.549 14114018 13949341 13793825 13647391 13510543 13384092 13268643 
2473.924 13164222 13070617 12986864 12912070 12845377 12786237 12734098 
2477.300 12688277 12647578 12610397 12574992 12539555 12502417 12462861 
2480.675 12420683 12376702 12332010 12288618 12248570 12213399 12184126 
2484.050 12160750 12142112 12126472 12111616 12095842 12077922 12058094 
2487.425 12037348 12017353 11999741 11985266 11974026 11965136 11957166 
2490.801 11948958 11940341 11931384 11923347 11918068 11916841 11921030 
2494.176 11930839 11945859 11964727 11986049 12008325 12029922 12050054 
2497.551 12068008 12083645 12097341 12109607 12121020 12132264 12143849 
2500.926 12156013 12168519 12181161 12193156 12203891 12213092 12220657 
2504.302 12227338 12234153 12242674 12254228 12269326 12288004 12309138 
2507.677 12331396 12352498 12370975 12385430 12395454 12400840 12401829 
2511.052 12398862 12392317 12382804 12370839 12357305 12343124 12328977 
2514.427 12315273 12301400 12286675 12269769 12249934 12226962 12201539 
2517.802 12174618 12147564 12121361 12096626 12073220 12050701 12028764 
2521.178 12007575 11987411 11969189 11953930 11942248 11934415 11930328 
2524.553 11929647 11931963 11936663 11943713 11952227 11962070 11972254 
2527.928 11982506 11992589 12002637 12013196 12025084 12038745 12054415 
2531.303 12071755 12090220 12108550 12125961 12141703 12155434 12167088 
2534.679 12176970 12185523 12193429 12201369 12210365 12221066 12233881 
2538.054 12249012 12266191 12285039 12305013 12325943 12347384 12369406 
2541.429 12391635 12413285 12433810 12452495 12468760 12482673 12495256 
2544.804 12507533 12521412 12538192 12558757 12583417 12611454 12642086 
2548.180 12674051 12706155 12737033 12765729 12791424 12813298 12831420 
2551.555 12845822 12857119 12866436 12874661 12883023 12892068 12902513 
2554.930 12914289 12927500 12941666 12956515 12971502 12985908 12998677 
2558.305 13009090 13016259 13019776 13019401 13015441 13008066 12998233 
2561.681 12986796 12974915 12963752 12954398 12947503 12942929 12939856 
2565.056 12937126 12933098 12926714 12917327 12905654 12892785 12880498 
2568.431 12870429 12863535 12860121 12860121 12863194 12869098 12877733 
2571.806 12889508 12904288 12922072 12941802 12963002 12984577 13005983 
2575.182 13027083 13047945 13068671 13089535 13110366 13131198 13151928 
2578.557 13172932 13194826 13218360 13244013 13271957 13301474 13331609 
2581.932 13361300 13389867 13417274 13443998 13470998 13499435 13529651 
2585.307 13562160 13596619 13632381 13668659 13704428 13738830 13771115 
2588.683 13800872 13828099 13853548 13878385 13903871 13931413 13961591 
2592.058 13994235 14028318 14062165 14094611 14124116 14150610 14174709 
2595.433 14197441 14219900 14243421 14268690 14296426 14326629 14359471 
2598.808 14394680 14432049 14471340 14512450 14555517 14600850 14649032 
2602.184 14700647 14755489 14812808 14870991 14928119 14982100 15032278 
2605.559 15078622 15122843 15166965 15213048 15262534 15315492 15371236 
2608.934 15428258 15485322 15541638 15596794 15650891 15703760 15755294 
2612.309 15804498 15850475 15892163 15929421 15962213 15991433 16017593 
2615.685 16041556 16063493 16083675 16102174 16119162 16135015 16150007 
2619.060 16164245 16177347 16188938 16198223 16205069 16209848 16213598 
2622.435 16217828 16223986 16233169 16245551 16260652 16277473 16294811 
2625.810 16311737 16327733 16342733 16356874 16370706 16384881 16400263 
2629.186 16417742 16438356 16463201 16492832 16527526 16566800 16609831 
2632.561 16655549 16702652 16750483 16798594 16847056 16896038 16945542 
2635.936 16995226 17044640 17093162 17140414 17186466 17231592 17276412 
2639.311 17321996 17368858 17417246 17466776 17516864 17566268 17614056 
2642.687 17659434 17702260 17742538 17781094 17818584 17856110 17894470 
2646.062 17934350 17976204 18020064 18065518 18112360 18160000 18207920 
2649.437 18255918 18304024 18352134 18400942 18450722 18501962 18554556 
2652.812 18608712 18664016 18720328 18777516 18835714 18895062 18956148 
2656.188 19019044 19083816 19150194 19217620 19285542 19353368 19420374 
2659.563 19486768 19552582 19617852 19683166 19749010 19816076 19884854 
2662.938 19955724 20029348 20105412 20183608 20262894 20342472 20421334 
2666.313 20498994 20575558 20651614 20728240 20806338 20886780 20970020 
2669.688 21055710 21143434 21232290 21321510 21410368 21498478 21585456 
2673.064 21671300 21756362 21840918 21925176 22009556 22094300 22179410 
2676.439 22264572 22349716 22434350 22518516 22602416 22686298 22770408 
2679.814 22855266 22941224 23028176 23116718 23206816 23298894 23394100 
2683.189 23492686 23595736 23703744 23817066 23935846 24060084 24189786 
2686.565 24324750 24464908 24609708 24758658 24910956 25065908 25222740 
2689.940 25381210 25540966 25702258 25865406 26030616 26198426 26368942 
2693.315 26542200 26718136 26896576 27076920 27258542 27440838 27623280 
2696.690 27805766 27988610 28172310 28357360 28544684 28734212 28926160 
2700.066 29120354 29316408 29514324 29713998 29915466 30118662 30322876 
2703.441 30527010 30729852 30929624 31125356 31315838 31500876 31680260 
2706.816 31853832 32021374 32182310 32335948 32481286 32617390 32743528 
2710.191 32858808 32962494 33054304 33134006 33202138 33259332 33307054 
2713.567 33346120 33377282 33400652 33415750 33421404 33416356 33400186 
2716.942 33372454 33333850 33284516 33225528 33157144 33079404 32992632 
2720.317 32897368 32794516 32686330 32575246 32464042 32355510 32251324 
2723.692 32152872 32060292 31973078 31890844 31812650 31738680 31669066 
2727.068 31604384 31545378 31492788 31447012 31408328 31376484 31351306 
2730.443 31332218 31319182 31311988 31310636 31315338 31325948 31342614 
2733.818 31365090 31393368 31426888 31465072 31507574 31553644 31602390 
2737.193 31653066 31704746 31756788 31808730 31860034 31910348 31959276 
2740.569 32005858 32049052 32087654 32120652 32147840 32169390 32186482 
2743.944 32200434 32212890 32225128 32237976 32251786 32266706 32282908 
2747.319 32300648 32320314 32342232 32366648 32393530 32422516 32452974 
2750.694 32484468 32516856 32550280 32585456 32622856 32662932 32706264 
2754.070 32752998 32803450 32857842 32916348 32979548 33047150 33119310 
2757.445 33195664 33275534 33358500 33443880 33531170 33619948 33709528 
2760.820 33798844 33886316 33970760 34050164 34122956 34187976 34244084 
2764.195 34290516 34326912 34353088 34369444 34376328 34374428 34364420 
2767.571 34346956 34322212 34290732 34252868 34209416 34161952 34112128 
2770.946 34062208 34014152 33969216 33927908 33890044 33854900 33821840 
2774.321 33790676 33761600 33735492 33713576 33696100 33683712 33675836 
2777.696 33671392 33669032 33666884 33663340 33656572 33645008 33627608 
2781.072 33603192 33571296 33531636 33484820 33431352 33372346 33308804 
2784.447 33241984 33172846 33102430 33032134 32962818 32895546 32831072 
2787.822 32769646 32711376 32656002 32603602 32554138 32507892 32465470 
2791.197 32427586 32394886 32367614 32346052 32329808 32318066 32310176 
2794.573 32305182 32302220 32300398 32298826 32296688 32293330 32288120 
2797.948 32280624 32270488 32256998 32240118 32219276 32193906 32164146 
2801.323 32129430 32090080 32045986 31997514 31945262 31889704 31831618 
2804.698 31771794 31711410 31651318 31592376 31535436 31481106 31429912 
2808.073 31382612 31339768 31302162 31270682 31245756 31227600 31215530 
2811.449 31208730 31205776 31205452 31206664 31209050 31213144 31219766 
2814.824 31230128 31245366 31266372 31293366 31326414 31365198 31409468 
2818.199 31459160 31514272 31574846 31641054 31713050 31790760 31874082 
2821.574 31963378 32058616 32160542 32269418 32385602 32508928 32638606 
2824.950 32773222 32911454 33051800 33193122 33334814 33476268 33617260 
2828.325 33756872 33893768 34026228 34152168 34269824 34378084 34476720 
2831.700 34566624 34649120 34725884 34798464 34868256 34936944 35005680 
2835.075 35075724 35148828 35226008 35307836 35394172 35484156 35576464 
2838.451 35670120 35764228 35858972 35955244 36054524 36158476 36268792 
2841.826 36387028 36514516 36652576 36802900 36967420 37147520 37344780 
2845.201 37560476 37795008 38047820 38317388 38600128 38890584 39181056 
2848.576 39461968 39722068 39950720 40138460 40278616 40368460 40409184 
2851.952 40405656 40365004 40295920 40208060 40109968 40010156 39916172 
2855.327 39833944 39768580 39723156 39699192 39696724 39714440 39749628 
2858.702 39799372 39860276 39928848 40001976 40076900 40151468 40224420 
2862.077 40295376 40364604 40433188 40501996 40572020 40643400 40716248 
2865.453 40790496 40865660 40941788 41018944 41097028 41175852 41255352 
2868.828 41335264 41415152 41495344 41575812 41656696 41737480 41816936 
2872.203 41893448 41965120 42030340 42088488 42140696 42189040 42236620 
2875.578 42286800 42342280 42404932 42475772 42555032 42642380 42737284 
2878.954 42839372 42948032 43062684 43182596 43307524 43437064 43571404 
2882.329 43710848 43855496 44005220 44159324 44316420 44474632 44632244 
2885.704 44787784 44940256 45089468 45235392 45378640 45519360 45658064 
2889.079 45794564 45928864 46060884 46190180 46316712 46440848 46563580 
2892.455 46686604 46811916 46941804 47077972 47221460 47372276 47529760 
2895.830 47692220 47857884 48024720 48189924 48349632 48498760 48630192 
2899.205 48736012 48808676 48841892 48832180 48779568 48687568 48561748 
2902.580 48408968 48236424 48050556 47856700 47659604 47463672 47272032 
2905.956 47087908 46913196 46748964 46595300 46451688 46317632 46192832 
2909.331 46077608 45972472 45877968 45794420 45721412 45657808 45601716 
2912.706 45550344 45500228 45447284 45386768 45313316 45222264 45109208 
2916.081 44971344 44807656 44618840 44407172 44175980 43928960 43669808 
2919.457 43401472 43126756 42847236 42563768 42276352 41984536 41687220 
2922.832 41383916 41074228 40759556 40441732 40123920 39809504 39502028 
2926.207 39204376 38918892 38647100 38390028 38148124 37921540 37710108 
2929.582 37513444 37331024 37162392 37007144 36865152 36736472 36621316 
2932.958 36519276 36429652 36351140 36282552 36222544 36170360 36125456 
2936.333 36088008 36057588 36033752 36015180 35999880 35986020 35971624 
2939.708 35955604 35937788 35918496 35898344 35877396 35855012 35829500 
2943.083 35798268 35757932 35705192 35636492 35548808 35439936 35308556 
2946.458 35154400 34978568 34783532 34572904 34350864 34122272 33891760 
2949.834 33663520 33440728 33225242 33017800 32817710 32623998 32435156 
2953.209 32250218 32068674 31891092 31718646 31552680 31394258 31243906 
2956.584 31101364 30965950 30836842 30713814 30596972 30487306 30385734 
2959.959 30293138 30209834 30135176 30068200 30007660 29952810 29903150 
2963.335 29858782 29819598 29785354 29755334 29728082 29701862 29675112 
2966.710 29646446 29614416 29577914 29535356 29484640 29423438 29349588 
2970.085 29261432 29158446 29041596 28913410 28776836 28635880 28494370 
2973.460 28355452 28221528 28094466 27974758 27862466 27756740 27656086 
2976.836 27558564 27461980 27363726 27261504 27152608 27035134 26907078 
2980.211 26767680 26616808 26455986 26287266 26114426 25941196 25771168 
2983.586 25607246 25451648 25305198 25168350 25041372 24924748 24819416 
2986.961 24726738 24647930 24583444 24532956 24494040 24462526 24432662 
2990.337 24397402 24349282 24281862 24190768 24074442 23935110 23778042 
2993.712 23611200 23443022 23281658 23133248 23000366 22883310 22780080 
2997.087 22687732 22603674 22526158 22454902 22390356 22333006 22283056 
3000.462 22239844 22201972 22167590 22134744 22102006 22068606 22034374 
3003.838 21999726 21965220 21931728 21899738 21870082 21843114 21819212 
3007.213 21798796 21781932 21768694 21758976 21752600 21749012 21747828 
3010.588 21748732 21751138 21755108 21760752 21768590 21779110 21792836 
3013.963 21810118 21830988 21855168 21882070 21911378 21943056 21977350 
3017.339 22014854 22056056 22101274 22150504 22202912 22257316 22312426 
3020.714 22366634 22418650 22467462 22512232 22552368 22587758 22618124 
3024.089 22643850 22665214 22682738 22696948 22708400 22717372 22724424 
3027.464 22729906 22734444 22738564 22742858 22747328 22751972 22756336 
3030.840 22759794 22761782 22762166 22760876 22758292 22754764 22750680 
3034.215 22746210 22741846 22737692 22734618 22733116 22733816 22736958 
3037.590 22742300 22749318 22757558 22766252 22775504 22785632 22797330 
3040.965 22811054 22827292 22845522 22865290 22885546 22905980 22926448 
3044.341 22947406 22969414 22992680 23017240 23042886 23069196 23095962 
3047.716 23123254 23151316 23180500 23211292 23243066 23275296 23307144 
3051.091 23337734 23366826 23394416 23421060 23447220 23473206 23499052 
3054.466 23524584 23549876 23574886 23599970 23625614 23651856 23679006 
3057.842 23706790 23734822 23763062 23791586 23820636 23850950 23882420 
3061.217 23914978 23947468 23978630 24006748 24031016 24050698 24066526 
3064.592 24079556 24091324 24103546 24117626 24134370 24153846 24175600 
3067.967 24198614 24221772 24244230 24265566 24286380 24307860 24331444 
3071.343 24358568 24389972 24425510 24463962 24503750 24543264 24581550 
3074.718 24618718 24655260 24692260 24730562 24770338 24811418 24852992 
3078.093 24894186 24934574 24974090 25012942 25051412 25089988 25128956 
3081.468 25168664 25209536 25252168 25297052 25343836 25391888 25439666 
3084.844 25485378 25527930 25566410 25601904 25636350 25671992 25710836 
3088.219 25753940 25800526 25849298 25898112 25945524 25990760 26034064 
3091.594 26076460 26119176 26162916 26207648 26253052 26298426 26343416 
3094.969 26388448 26434222 26482538 26534804 26592078 26655066 26723032 
3098.344 26794818 26868446 26941382 27011472 27077168 27137758 27194018 
3101.720 27247464 27300280 27354162 27410344 27468722 27528486 27588538 
3105.095 27647646 27705456 27762530 27819614 27877906 27938114 28000166 
3108.470 28063432 28127236 28190624 28253138 28315096 28376672 28438152 
3111.845 28499994 28562200 28624980 28688158 28752056 28816952 28883096 
3115.221 28950422 29018890 29088114 29157808 29228152 29299500 29372314 
3118.596 29446840 29522870 29599942 29676850 29752636 29826626 29898748 
3121.971 29969424 30039438 30109250 30179536 30250224 30321030 30391776 
3125.346 30462354 30533230 30604864 30677754 30752400 30828730 30906318 
3128.722 30984598 31063174 31141516 31219908 31298422 31377770 31458232 
3132.097 31540282 31623840 31708452 31793434 31877864 31961024 32042704 
3135.472 32123148 32203220 32284014 32366578 32451440 32538530 32627318 
3138.847 32717056 32806668 32895796 32984410 33073146 33162118 33251568 
3142.223 33341434 33430960 33520072 33608704 33697392 33787528 33880228 
3145.598 33976456 34076292 34179016 34283344 34387480 34490100 34590268 
3148.973 34688056 34783816 34878632 34973576 35069832 35167976 35269060 
3152.348 35373324 35481032 35591500 35704152 35817696 35931020 36043148 
3155.724 36153544 36262560 36370704 36478804 36587832 36698504 36810940 
3159.099 36925104 37040664 37157016 37273756 37390604 37507588 37625116 
3162.474 37743608 37863908 37986992 38112960 38241828 38373236 38505836 
3165.849 38638296 38769348 38897980 39023636 39146684 39267624 39387224 
3169.225 39506524 39626332 39747448 39870264 39994932 40121268 40248700 
3172.600 40376352 40503200 40628084 40750496 40869992 40986684 41101180 
3175.975 41214032 41326076 41438260 41551380 41666648 41784612 41905892 
3179.350 42030668 42158332 42287784 42418008 42547760 42676704 42804928 
3182.726 42932924 43061732 43191820 43323560 43456728 43590640 43724804 
3186.101 43859160 43993744 44129212 44265708 44403612 44542328 44681708 
3189.476 44820808 44959032 45096120 45232008 45366904 45501292 45635980 
3192.851 45771556 45909272 46050016 46194820 46344284 46498116 46655836 
3196.227 46815940 46976912 47137320 47296456 47453804 47609504 47763708 
3199.602 47916892 48069320 48221836 48374704 48528884 48685080 48843860 
3202.977 49005364 49169528 49335648 49503016 49670896 49838728 50005960 
3206.352 50172324 50337300 50500924 50663272 50825008 50987436 51152128 
3209.728 51320124 51491996 51666880 51843212 52018572 52191504 52361208 
3213.103 52528812 52696076 52865756 53039696 53218836 53402844 53590196 
3216.478 53779316 53968588 54156864 54343972 54529892 54714944 54899180 
3219.853 55083036 55267088 55452232 55639376 55829348 56022804 56219204 
3223.229 56417548 56616888 56815788 57013984 57211328 57408044 57604548 
3226.604 57800796 57996304 58190532 58382912 58573488 58762476 58950824 
3229.979 59139484 59329744 59522444 59718688 59919468 60125748 60338028 
3233.354 60556432 60779896 61006564 61234308 61460868 61684688 61905216 
3236.729 62122916 62338356 62552408 62765376 62977112 63187876 63398436 
3240.105 63609868 63824244 64043672 64269328 64501128 64738096 64978152 
3243.480 65219388 65460944 65703020 65947004 66194528 66446432 66703512 
3246.855 66964724 67228912 67495160 67762736 68032184 68304584 68580728 
3250.230 68861392 69145744 69432536 69720248 70007376 70293296 70578424 
3253.606 70863824 71151432 71442752 71738560 72038920 72342384 72646720 
3256.981 72949672 73248824 73542968 73832200 74117504 74400752 74683832 
3260.356 74968040 75253936 75540448 75826088 76108832 76386624 76658112 
3263.731 76922928 77180704 77431904 77676784 77915744 78149120 78377016 
3267.107 78599640 78817176 79029768 79237776 79441344 79641032 79837224 
3270.482 80030200 80220112 80406720 80588864 80765648 80935600 81097912 
3273.857 81252056 81398384 81537480 81670544 81798368 81921952 82041680 
3277.232 82158048 82271640 82382856 82492296 82599968 82705784 82808968 
3280.608 82908816 83004720 83096344 83183656 83267296 83347856 83425936 
3283.983 83502080 83576696 83650568 83724048 83797216 83869760 83940864 
3287.358 84008968 84072504 84130088 84181160 84226616 84267808 84306912 
3290.733 84345864 84385776 84427352 84470688 84515368 84561224 84608040 
3294.109 84655352 84701976 84746640 84787600 84823488 84853656 84879000 
3297.484 84900912 84921664 84942816 84964856 84986976 85008096 85026432 
3300.859 85041264 85052584 85061088 85068096 85074552 85080960 85087888 
3304.234 85095752 85105832 85119528 85138928 85165368 85199880 85242328 
3307.610 85291800 85347176 85407064 85470720 85537368 85606368 85677152 
3310.985 85748800 85821064 85894544 85970824 86052464 86142392 86242680 
3314.360 86354400 86476976 86608976 86748256 86893280 87043592 87199376 
3317.735 87361368 87530112 87705456 87886664 88072376 88261000 88451384 
3321.111 88642856 88834504 89025824 89216416 89406072 89595248 89784704 
3324.486 89975304 90167576 90361160 90553928 90743600 90927440 91102968 
3327.861 91269776 91428064 91579208 91723568 91861432 91991800 92112904 
3331.236 92223320 92322400 92410112 92486688 92551472 92602808 92637752 
3334.612 92653216 92647184 92619624 92573120 92511368 92439096 92359408 
3337.987 92273344 92180296 92078088 91964976 91840104 91703560 91556704 
3341.362 91400216 91234784 91060096 90875720 90681208 90476832 90263216 
3344.737 90041304 89811192 89572648 89324424 89065968 88797264 88519824 
3348.113 88236360 87949824 87662960 87377336 87093104 86809400 86525096 
3351.488 86239448 85951768 85662216 85370848 85077936 84783328 84487392 
3354.863 84190448 83893920 83598832 83306704 83017832 82732360 82449672 
3358.238 82169016 81890296 81614120 81341392 81073112 80809624 80550648 
3361.614 80294408 80039440 79784064 79527528 79269272 79010056 78750560 
3364.989 78491688 78234128 77979136 77728064 77482512 77244000 77013840 
3368.364 76791832 76577008 76367824 76161856 75957136 75751640 75544112 
3371.739 75333144 75117896 74897600 74671912 74441728 74208768 73975304 
3375.115 73743768 73515920 73292168 73071536 72852392 72633136 72413192 
3378.490 72192896 71973296 71755448 71539624 71324888 71109200 70890264 
3381.865 70666840 70438576 70206944 69974096 69742968 69515856 69293872 
3385.240 69077640 68866640 68660440 68458440 68259568 68062872 67867120 
3388.615 67670608 67472096 67270616 67066096 66859700 66653252 66449100 
3391.991 66249596 66056900 65872156 65695696 65526476 65362640 65201132 
3395.366 65038724 64872384 64700180 64521348 64336604 64147860 63957400 
3398.741 63766560 63576608 63387012 63197492 63007296 62816568 62626080 
3402.116 62436664 62248828 62062404 61876104 61688236 61496980 61301456 
3405.492 61101256 60897216 60690416 60481204 60270112 60056496 59840208 
3408.867 59621028 59398956 59175060 58950068 58724848 58499856 58275212 
3412.242 58050796 57826612 57602504 57378320 57153692 56927848 56699940 
3415.617 56469316 56235536 55998680 55759160 55517140 55272392 55024852 
3418.993 54773616 54518844 54261936 54004876 53750964 53503236 53263968 
3422.368 53033480 52810372 52591564 52374068 52155112 51933236 51708416 
3425.743 51481584 51253980 51026488 50799752 50573808 50347944 50121596 
3429.118 49893920 49664284 49432320 49197840 48961712 48725188 48490464 
3432.494 48259792 48035048 47817044 47605324 47398404 47193828 46989540 
3435.869 46783796 46576196 46366812 46156608 45946504 45736912 45528156 
3439.244 45320084 45112628 44905528 44699116 44493832 44290112 44088608 
3442.619 43889368 43692268 43496248 43299728 43100040 42894596 42681384 
3445.995 42459880 42231728 42000848 41772392 41551492 41341492 41142668 
3449.370 40952456 40766764 40580352 40389804 40193192 39991444 39786336 
3452.745 39580200 39374380 39169128 38963648 38756924 38548524 38339176 
3456.120 38129924 37922624 37718204 37516656 37317696 37119948 36922400 
3459.496 36724720 36526340 36327724 36128988 35930300 35731384 35532016 
3462.871 35332096 35131260 34929368 34726352 34522028 34316584 34111200 
3466.246 33907092 33706200 33510230 33319968 33135150 32954130 32774650 
3469.621 32594602 32413092 32229342 32044272 31858146 31670778 31481210 
3472.997 31287846 31089618 30886610 30681134 30476466 30276866 30085564 
3476.372 29903824 29730780 29563656 29398726 29232652 29063384 28889684 
3479.747 28711838 28530602 28346996 28162588 27979070 27798420 27622574 
3483.122 27453086 27290012 27132114 26976918 26820614 26660140 26493666 
3486.498 26320534 26142438 25961562 25780660 25601940 25426878 25256418 
3489.873 25090972 24930608 24775424 24624892 24478124 24333302 24188702 
3493.248 24043062 23895724 23747278 23598464 23451208 23306236 23164178 
3496.623 23024438 22886664 22749912 22614074 22479432 22345982 22213688 
3499.999 22082098 21949746 21815482 21678616 21539074 21398672 21259292 
3503.374 21124058 20995162 20873812 20760216 20652934 20549192 20445678 
3506.749 20339692 20228178 20109750 19984590 19854436 19722206 19591716 
3510.124 19466286 19348414 19239092 19137900 19043796 18955008 18870388 
3513.500 18788416 18708394 18628908 18548606 18465416 18377886 18284842 
3516.875 18186154 18082824 17976758 17869920 17764076 17659502 17556020 
3520.250 17452220 17346650 17238178 17126630 17012284 16896624 16780892 
3523.625 16666258 16553272 16441556 16329970 16217038 16101178 15981464 
3527.000 15857933 15731243 15603560 15477219 15354416 15236693 15124558 
3530.376 15017324 14913374 14810545 14707158 14600815 14490250 14374233 
3533.751 14252152 14123534 13989341 13850744 13710343 13570774 13434907 
3537.126 13304652 13181300 13064574 12953579 12846709 12742390 12639221 
3540.501 12535941 12431628 12325226 12216057 12103916 11988092 11868962 
3543.877 11746630 11621406 11493360 11363481 11233198 11104655 10981384 
3547.252 10866707 10763100 10671234 10588994 10511897 10434507 10351634 
3550.627 10259684 10158665 10050852 9941269 9835205 9736418 9646361 9563909 
3554.485 9486383 9410294 9332863 9252400 9167721 9078763 8985898 8889198 
3558.342 8789275 8686939 8583885 8482105 8383658 8290301 8203278 8123024 
3562.199 8048725 7978523 7909277 7837174 7757224 7664102 7554007 7425537 
3566.057 7281875 7130512 6983075 6852653 6748047 6673445 6625938 6598284 
3569.914 6580858 6564106 6541804 6510018 6468011 6416625 6357983 6294004 
3573.772 6225732 6154143 6079710 6003073 5925240 5847186 5770287 5695584 
3577.629 5623780 5555378 5490779 5429846 5372143 5316828 5262963 5209440 
3581.487 5155286 5100501 5045154 4989144 4932303 4872923 4808157 4734658 
3585.344 4648646 4548119 4434124 4311292 4187490 4072822 3976474 3903684 
3589.201 3855409 3827529 3813089 3803529 3790627 3768033 3731670 3680608 
3593.059 3617088 3545661 3472475 3402842 3340966 3288180 3243412 3203855 
3596.916 3165871 3126489 3083439 3036423 2985742 2933333 2880897 2830734 
3600.774 2784212 2742497 2705687 2672947 2643043 2614442 2584809 2552178 
3604.631 2514451 2469396 2415016 2349783 2272968 2186343 2093609 2000994 
3608.489 1915588 1843409 1787045 1745192 1712292 1681323 1645667 1601833 
3612.346 1550222 1495292 1444392 1403503 1376114 1360857 1352880 1344404 
3616.203 1327886 1297643 1250986 1188619 1115331 1038833 967630 909453 
3620.061 869279 848098 843051 847633 855634 860282 857725 847002 829440 
3624.400 808394 786219 761988 730722 683761 610459 503365 362604 202098 
3628.740 46887 -74346 -140863 -149011 -111183 -48107 19748 76977 115321 
3633.080 133683 136633 131296 123806 117840 113233 106936 95436 76049 48577 
3637.901 14811 -22000 -58510 -92666 -123473 -151197 -176502 -199686 -220484 
3642.241 -238334 -252639 -264064 -274461 -286879 -305355 -334226 -376934 
3646.098 -435428 -509137 -595474 -689402 -784964 -875809 -955693 -1018868 
3649.956 -1060021 -1074697 -1060749 -1020091 -958271 -885068 -811588 -750301 
3653.813 -711864 -702998 -726022 -776563 -844361 -914926 -975430 -1017777 
3657.671 -1040420 -1047130 -1044221 -1037412 -1030735 -1025744 -1022339 
3661.046 -1020058 -1018075 -1015860 -1013116 -1009480 -1004389 -997844 
3664.421 -989777 -981711 -975529 -974339 -981612 -1000786 -1035462 -1088016 
3668.279 -1160095 -1248648 -1346466 -1440661 -1515158 -1557155 -1561414 
3671.654 -1533945 -1488874 -1446440 -1426626 -1444360 -1506275 -1604761 
3675.029 -1717977 -1813774 -1864585 -1860065 -1808957 -1732399 -1652097 
3678.404 -1584491 -1536289 -1506110 -1486992 -1471208 -1452616 -1429796 
3681.780 -1404630 -1380487 -1360603 -1345442 -1333517 -1323442 -1315151 
3685.155 -1310856 -1315646 -1335367 -1374244 -1432537 -1505978 -1584128 
3688.530 -1655662 -1711013 -1745435 -1759460 -1757348 -1743223 -1720584 
3691.905 -1690748 -1654903 -1614697 -1572111 -1530379 -1491945 -1458197 
3695.281 -1429433 -1404366 -1381444 -1360339 -1341907 -1329289 -1326547 
3698.656 -1337084 -1362915 -1403540 -1454927 -1510469 -1562008 -1601757 
3702.031 -1624039 -1627406 -1613839 -1588090 -1556264 -1524073 -1496105 
3705.406 -1474972 -1461235 -1454696 -1453970 -1457833 -1465164 -1475897 
3708.781 -1490789 -1510964 -1537015 -1568545 -1603308 -1636583 -1662462 
3712.157 -1674608 -1668964 -1643911 -1602120 -1549033 -1492242 -1438746 
3715.532 -1395283 -1366086 -1352874 -1354096 -1366020 -1383690 -1402450 
3718.907 -1419030 -1432537 -1443534 -1453243 -1462357 -1470382 -1475632 
3722.282 -1475996 -1470481 -1460871 -1450205 -1443369 -1445251 -1457503 
3725.658 -1478505 -1503139 -1522950 -1530016 -1519747 -1492176 -1453045 
3729.033 -1411070 -1376754 -1359149 -1363179 -1388579 -1429301 -1476293 
3732.408 -1520110 -1555273 -1582576 -1607237 -1635593 -1671242 -1711112 
3735.783 -1746524 -1766654 -1762727 -1733422 -1683652 -1622818 -1559532 
3739.159 -1499275 -1444459 -1394722 -1350165 -1314523 -1295792 -1306364 
3742.534 -1359381 -1460971 -1603671 -1760054 -1889593 -1954183 -1938877 
3745.909 -1856568 -1738108 -1617140 -1520044 -1464603 -1456744 -1491780 
3749.284 -1555405 -1630377 -1699759 -1751936 -1781899 -1787575 -1768304 
3752.660 -1723851 -1656091 -1570130 -1474345 -1379397 -1295528 -1230377 
3756.035 -1187720 -1167596 -1167035 -1181343 -1206059 -1237977 -1273229 
3759.410 -1306826 -1332889 -1343724 -1334145 -1303456 -1257338 -1205398 
3762.785 -1159798 -1130882 -1123347 -1135641 -1159401 -1183590 -1197898 
3766.161 -1197997 -1185870 -1169546 -1158079 -1157584 -1169711 -1190826 
3769.536 -1213031 -1227536 -1228461 -1214121 -1187258 -1152990 -1116836 
3772.911 -1083488 -1055129 -1032553 -1015265 -1001976 -991860 -984554 
3776.286 -981050 -983232 -993282 -1012620 -1040552 -1073308 -1104872 
3779.662 -1127478 -1135079 -1125759 -1102030 -1070168 -1038073 -1012521 
3783.037 -997282 -992323 -994075 -997480 -998306 -994075 -985381 -974537 
3786.894 -964156 -955990 -950271 -946204 -943096 -940517 -938963 -938137 
3790.752 -937608 -935690 -930367 -920084 -905800 -890656 -880207 -880307 
3794.609 -894327 -921539 -956255 -988753 -1007926 -1007827 -987992 -956155 
3798.467 -924217 -905900 -913240 -951758 -1019033 -1101336 -1178964 -1229717 
3802.324 -1239364 -1206819 -1142614 -1064153 -989877 -936517 -914529 -927061 
3806.181 -967330 -1020157 -1066698 -1089570 -1081605 -1045610 -992422 
3809.557 -933640 -879480 -835532 -801865 -775571 -753443 -734126 -720465 
3813.414 -718612 -735482 -775670 -837417 -910396 -976455 -1017843 -1023165 
3817.271 -993910 -942203 -886159 -846279 -837284 -867046 -932252 -1017777 
3821.129 -1099683 -1153255 -1164226 -1132369 -1070400 -996025 -927127 
3824.504 -876239 -848594 -841980 -847767 -855671 -854778 -840393 -813936 
3828.362 -781657 -753145 -735615 -733762 -747059 -770874 -797797 -820484 
3832.219 -833878 -836358 -829843 -818731 -808909 -805503 -813242 -834804 
3836.076 -870717 -918332 -971925 -1023264 -1063327 -1085042 -1084877 
3839.452 -1064682 -1029545 -986207 -941807 -901700 -869262 -845916 -831133 
3843.309 -822899 -817905 -812679 -803584 -787709 -763995 -733101 -697474 
3847.167 -660720 -625980 -595904 -571748 -554111 -543985 -544316 -561457 
3851.024 -604209 -682323 -801369 -956056 -1126685 -1278448 -1377184 -1402979 
3854.881 -1358291 -1261401 -1137425 -1008521 -889003 -786783 -704652 -641431 
3858.739 -594646 -561623 -540113 -528265 -524691 -528530 -539021 -557188 
3862.596 -583859 -620091 -664723 -712360 -753774 -777754 -775306 -744579 
3866.454 -691850 -631142 -580451 -555567 -566752 -612713 -680999 -749309 
3870.311 -795151 -806131 -783079 -739022 -690295 -651621 -630182 -624525 
3874.168 -625881 -622572 -605532 -571252 -523401 -470612 -424272 -393652 
3878.026 -385641 -402392 -441386 -494972 -551331 -598021 -624525 -625583 
3881.883 -602885 -564667 -523368 -491596 -480277 -494177 -530086 -575521 
3885.741 -613076 -627039 -608113 -559240 -491298 -420300 -361673 -326446 
3889.598 -320751 -342801 -384482 -432945 -475014 -500929 -506390 -493251 
3893.456 -466674 -433640 -400074 -370677 -348297 -334359 -329194 -331942 
3897.313 -341874 -356938 -374816 -393023 -408946 -420532 -427318 -430893 
3901.170 -433309 -438407 -448999 -466045 -487459 -508376 -522176 -522540 
3905.028 -505463 -470910 -422717 -367433 -311513 -261017 -219656 -188624 
3908.885 -167095 -153516 -145566 -141061 -138743 -137285 -135629 -133277 
3912.743 -130097 -127182 -126189 -129667 -139869 -157656 -181470 -207700 
3916.600 -231810 -248964 -256149 -253467 -242738 -227173 -209588 -191306 
3920.458 -172892 -153880 -134635 -116218 -100881 -90910 -87630 -90744 -97833 
3924.797 -105386 -110156 -110521 -106645 -100881 -96243 -94587 -96806 
3928.655 -101974 -108500 -114827 -120259 -125228 -130660 -137285 -144837 
3932.512 -151396 -154774 -152654 -143811 -128474 -108566 -86139 -63579 
3936.369 -41813 -21238 -1590 17230 34957 50366 61534 66206 62826 50830 31080 
3941.673 6328 -19581 -42144 -57351 -62883 -58643 -46385 -29985 -13651 -1259 
3946.495 5102 5467 1590 -3147 -5997 -4671 894 9377 18886 27303 34162 39762 
3952.281 44898 51128 58220 65742 72470 76944 78402 77673 75883 74988 76380 
3957.585 80125 85394 90597 93613 93182 88907 81848 73066 65046 59512 57524 
3962.889 60208 67399 78534 92387 107102 121320 133517 143262 150819 157580 
3967.711 165171 175148 188076 203424 219701 234685 246123 252720 254311 
3972.051 251825 246520 240155 234254 229480 226066 223977 223016 222717 
3976.390 223049 223778 224773 225767 226530 226861 226795 226596 226231 
3980.730 226430 227193 229116 232663 238100 245725 255472 266645 278183 
3985.069 289025 298109 304542 308421 310510 311538 312334 313561 315185 
3989.409 316512 316943 316048 313760 310775 307625 305172 304177 304277 
3993.749 305238 306465 307725 308952 310543 313262 317705 324304 332760 
3998.088 341580 349638 355176 356569 353518 345891 
##END=
