
##TITLE=Z305_2_b
##JCAMP-DX=5.01  $$ Nicolet v. 1
##DATATYPE=INFRARED SPECTRUM
##ORIGIN=UniL
##OWNER=Nicolet
##LONGDATE=2011/09/08
##TIME=14:55:26
##SPECTROMETER/DATA SYSTEM=Nicolet iS5
##DATA PROCESSING=
Ratio against background
%Transmittance->Absorbance
Truncated
ElementMultiply or ElementDivide
##COMMENTS=
Number of sample scans: 32
Collection length: 51.17 sec
Sample gain: 2.0
Background collected on: Jeu Sep 08 14:50:09 2011 (GMT+02:00);
Number of background scans: 32
Background gain: 2.0
Sample spacing:  1.000
Number of scan points: 12415
Resolution points: 8192
Number of FFT points: 65536
Apodization: N-B fort;
Phase correction: Mertz;
Laser frequency: 15798.0 cm-1
Number of rejected sample scans: 0
Number of rejected background scans: 0
Bench serial number: ASB1000141;
##RESOLUTION=4.000
##XUNITS=1/CM
##YUNITS=ABSORBANCE
##FIRSTX=649.893372
##LASTX=4000.122314
##FIRSTY=0.114140
##MAXX=4000.122314
##MINX=649.893372
##MAXY=0.252578
##MINY=-0.002315
##XFACTOR=1.000000
##YFACTOR=1.000000E-009
##NPOINTS=6950
##DELTAX=0.482117
##ZPD=6100
##XYDATA=(X++(Y..Y))
649.893 114139624 114207760 114414776 114746024 115158000 115602792 
652.786 116051416 116510640 117014720 117609568 118319776 119135968 
655.679 120011136 120883920 121698416 122427168 123074080 123661904 
658.571 124213176 124736096 125220552 125649184 126010152 126305472 
661.464 126550720 126765608 126962856 127144248 127302048 127423736 
664.357 127497048 127507496 127426696 127204776 126768496 126039344 
667.250 124986056 123684064 122323560 121117312 120196032 119558320 
670.142 119108336 118710584 118239632 117614608 116803600 115829592 
673.035 114746672 113619792 112493384 111379808 110269480 109148768 
675.928 108017008 106893440 105807816 104784368 103830856 102935624 
678.820 102076984 101238064 100419504 99639624 98924840 98295320 97753600 
682.195 97282392 96856216 96451432 96059008 95687432 95354840 95076768 
685.570 94856216 94681680 94532208 94391608 94255200 94134200 94049056 
688.945 94019600 94053128 94142384 94268952 94413800 94567552 94735120 
692.320 94931992 95178904 95492952 95880968 96343536 96878208 97483488 
695.694 98161552 98912232 99725496 100573896 101410992 102177624 102807512 
699.069 103245296 103453792 103416288 103136424 102632568 101936224 
701.962 101087952 100137136 99141808 98153744 97214744 96346024 95546376 
705.337 94796240 94069544 93346528 92619952 91895944 91187488 90505688 
708.712 89852712 89221136 88598280 87974456 87348120 86726736 86121336 
712.086 85540840 84986336 84450448 83920848 83385112 82835920 82270080 
715.461 81686456 81081624 80448792 79779648 79070160 78326384 77567328 
718.836 76818840 76110768 75465416 74892248 74387264 73937864 73528136 
722.211 73141840 72765256 72384184 71981040 71536768 71034072 70463016 
725.586 69827992 69148032 68453792 67776792 67142280 66563480 66040812 
728.961 65567360 65134996 64740368 64384596 64070860 63800408 63568896 
732.335 63367420 63186728 63020816 62870904 62744440 62651372 62598748 
735.710 62587464 62611988 62663740 62736168 62827060 62939772 63079820 
739.085 63251152 63451468 63674396 63910528 64153084 64400888 64658956 
742.460 64934560 65234556 65560772 65908788 66269664 66632160 66983552 
745.835 67307600 67581752 67775672 67848064 67757624 67468336 66961088 
749.209 66240260 65334676 64292416 63166492 62010156 60868476 59772716 
752.584 58745140 57798524 56936916 56157512 55452008 54808424 54213920 
755.959 53658612 53138356 52653992 52208804 51805316 51441296 51109376 
759.334 50799420 50500924 50209296 49924884 49653364 49401204 49172236 
762.709 48965564 48777272 48602952 48442488 48300488 48187144 48113588 
766.083 48087604 48111180 48180148 48285820 48417928 48567124 48725856 
769.458 48888020 49049284 49207640 49367164 49538852 49741260 49996032 
772.833 50317544 50703036 51122644 51523184 51830408 51967032 51877860 
776.208 51538924 50968956 50220044 49368944 48495096 47661416 46912052 
779.583 46264884 45718024 45257196 44863864 44522500 44221064 43953264 
782.958 43717296 43513568 43344280 43210852 43114420 43053500 43024852 
786.332 43023752 43045996 43089356 43154600 43245148 43366576 43523644 
789.707 43718432 43950992 44219376 44521768 44859308 45235796 45658100 
793.082 46133796 46668488 47263204 47912380 48603288 49315640 50020608 
796.457 50684684 51268032 51728120 52028096 52138784 52046364 51755484 
799.832 51287832 50679616 49972500 49212532 48443120 47701056 47018448 
803.206 46418684 45916120 45516488 45217520 45011032 44885944 44832012 
806.581 44841492 44909536 45031836 45201932 45406964 45627992 45839672 
809.956 46013656 46125508 46155868 46094040 45937408 45689716 45359404 
813.331 44957340 44498384 44000016 43480608 42960396 42456916 41983184 
816.706 41547808 41153816 40800904 40487196 40210824 39970264 39764040 
820.081 39590072 39445640 39326820 39230596 39154988 39099768 39066596 
823.455 39057676 39074496 39117748 39187044 39281336 39399448 39539260 
826.830 39696508 39863760 40028104 40172948 40280288 40333188 40321372 
830.205 40242884 40104988 39921440 39709760 39488564 39272812 39074532 
833.580 38901460 38756924 38641052 38550152 38478032 38416308 38356876 
836.955 38293212 38222400 38144976 38064712 37986992 37916948 37857220 
840.329 37809212 37772272 37745924 37730056 37725936 37734756 37757852 
843.704 37795584 37847024 37911016 37986192 38071472 38165960 38269260 
847.079 38380148 38497328 38619792 38747396 38881524 39024036 39177468 
850.454 39342640 39518828 39703440 39893216 40085984 40281744 40482832 
853.829 40693180 40916516 41154364 41405820 41668108 41938004 42213760 
857.204 42495908 42787192 43091260 43411616 43749908 44107208 44484364 
860.578 44883004 45305924 45756384 46235548 46741176 47266196 47798920 
863.953 48323520 48824172 49285684 49694636 50041468 50319516 50525788 
867.328 50662640 50738528 50768396 50770888 50767648 50778600 50818528 
870.703 50897312 51019000 51184264 51391540 51637696 51918788 52227412 
874.078 52552372 52879824 53193220 53477980 53724452 53929236 54095272 
877.452 54230960 54347312 54455176 54565540 54688936 54834364 55011424 
880.827 55228220 55489692 55798004 56151368 56545136 56973520 57430584 
884.202 57911560 58411568 58925816 59448764 59974092 60496284 61012552 
887.577 61524008 62034424 62548928 63071540 63602232 64137072 64669064 
890.952 65191508 65699244 66190316 66665032 67123752 67564608 67982856 
894.327 68370784 68720440 69024768 69278720 69477792 69617752 69692240 
897.701 69693832 69615224 69452168 69205616 68882320 68494368 68055584 
901.076 67580744 67084848 66581288 66084556 65609792 65170528 64778520 
904.451 64440936 64159228 63930064 63747256 63605264 63500672 63433752 
907.826 63406684 63422516 63482412 63585588 63729188 63910836 64128964 
911.201 64383216 64672680 64994164 65339336 65696232 66049880 66385584 
914.575 66693888 66971452 67222064 67455216 67683856 67922368 68184232 
917.950 68482416 68828824 69232400 69698464 70225944 70807416 71427008 
921.325 72064232 72697360 73305224 73872104 74389424 74855280 75274344 
924.700 75657728 76022656 76389472 76781944 77222984 77729208 78307616 
928.075 78950440 79633824 80316296 80941992 81449504 81772408 81852448 
931.450 81648032 81139568 80337864 79283512 78047936 76718248 75385240 
934.824 74135816 73033320 72118520 71409744 70907272 70600560 70474392 
938.199 70513680 70701536 71017768 71438696 71932352 72461728 72989920 
941.574 73480208 73903136 74239504 74479960 74626464 74691232 74696112 
944.949 74668800 74639600 74638152 74686984 74799856 74982064 75231312 
948.324 75541824 75908120 76326896 76796768 77317192 77885768 78497208 
951.698 79143824 79818032 80514272 81231200 81970360 82735408 83528424 
955.073 84349040 85194064 86059688 86943112 87844512 88765928 89709416 
958.448 90675088 91660176 92659000 93666080 94678344 95696600 96725040 
961.823 97767992 98827232 99900608 100982712 102067136 103149984 104232016 
965.198 105318208 106414344 107525072 108651128 109790048 110938856 
968.090 112097088 113268496 114460488 115682232 116940808 118240112 
970.983 119582280 120969096 122406256 123904464 125476944 127137232 
973.876 128894744 130752120 132707048 134754816 136893056 139122256 
976.768 141446032 143865440 146375104 148960064 151597376 154257088 
979.661 156909360 159527024 162082736 164548832 166893520 169078864 
982.554 171068672 172832848 174355568 175638432 176697952 177559392 
985.447 178246384 178778816 179172416 179441344 179606048 179695104 
988.339 179741120 179779312 179838848 179939232 180093456 180310208 
991.232 180598656 180970848 181439200 182011888 182688848 183460336 
994.125 184308864 185214688 186162368 187142320 188148688 189175424 
997.017 190210416 191233712 192222384 193154336 194015920 194803568 
999.910 195521968 196177552 196773040 197304896 197766464 198153424 
1002.803 198469536 198728560 198950656 199157712 199365680 199583072 
1005.695 199813776 200062256 200339776 200665616 201062608 201551888 
1008.588 202145840 202844672 203638608 204513184 205455888 206457360 
1011.481 207510944 208609216 209739024 210883184 212025712 213156960 
1014.374 214280640 215412416 216575376 217787568 219054512 220363984 
1017.266 221690176 223001024 224267120 225470560 226604688 227672256 
1020.159 228680848 229642416 230574096 231499664 232452544 233470960 
1023.052 234587856 235825264 237184880 238649872 240188896 241766944 
1025.945 243353664 244922000 246447152 247899008 249234192 250402624 
1028.838 251352784 252042480 252451120 252578464 252438480 252047248 
1031.731 251413824 250537776 249413520 248040224 246429152 244604304 
1034.624 242599408 240447200 238171952 235790832 233316992 230767360 
1037.517 228170176 225563280 222988896 220489792 218099712 215845488 
1040.410 213752208 211846688 210161264 208732960 207591936 206755952 
1043.303 206222080 205967776 205955568 206142768 206493712 206980976 
1046.196 207586112 208296656 209099248 209978704 210919856 211909584 
1049.089 212939408 214004016 215094688 216194592 217275232 218297152 
1051.982 219220912 220014576 220660176 221155152 221505280 221715488 
1054.875 221781680 221688496 221411504 220925904 220207856 219236592 
1057.768 217992704 216451488 214584656 212368000 209789120 206860224 
1060.661 203620992 200139584 196497088 192775072 189050160 185381296 
1063.554 181813968 178384848 175120304 172040016 169154336 166461216 
1066.448 163946896 161589376 159365200 157254480 155244368 153329472 
1069.341 151507248 149773248 148118848 146530528 144993760 143497152 
1072.234 142033504 140599760 139194160 137812384 136446400 135086224 
1075.127 133724200 132359344 130999744 129661712 128364264 127125112 
1078.020 125956656 124864440 123849336 122909888 122044576 121251552 
1080.913 120527352 119865752 119257256 118692168 118164464 117675296 
1083.806 117233976 116855808 116559344 116359920 116267536 116286848 
1086.699 116419000 116664312 117024176 117499680 118088360 118780624 
1089.592 119558760 120396656 121264520 122136352 122991336 123816944 
1092.485 124608720 125365976 126090992 126787928 127465368 128136696 
1095.378 128819760 129535568 130301384 131126184 132007464 132931752 
1098.271 133877408 134817760 135727552 136581712 137354336 138020416 
1101.164 138554400 138934480 139149152 139200192 139104880 138890080 
1104.057 138589136 138231952 137840528 137430160 137011328 136592352 
1106.950 136182368 135788432 135412672 135046736 134670672 134254640 
1109.844 133760992 133152992 132397192 131464064 130331440 128981872 
1112.737 127404672 125600728 123585800 121393320 119069144 116670072 
1115.630 114253488 111866872 109548808 107325344 105211944 103218776 
1118.523 101350312 99607152 97983184 96465832 95036152 93669944 92343344 
1121.898 91034848 89726520 88405200 87060024 85681184 84260808 82794016 
1125.273 81281904 79733384 78165576 76601392 75064440 73577824 72160112 
1128.648 70823528 69576528 68422792 67362312 66390568 65498428 64672024 
1132.024 63893408 63144572 62410800 61682964 60960580 60250964 59568312 
1135.399 58929004 58350928 57851484 57445068 57144768 56960416 56897708 
1138.774 56957732 57135960 57422796 57804316 58264564 58788728 59362448 
1142.149 59974016 60613116 61268984 61931392 62590600 63238316 63870260 
1145.525 64485832 65088496 65682820 66273952 66865808 67461528 68064656 
1148.900 68680616 69316264 69979624 70677288 71412792 72185504 72991096 
1152.275 73823992 74678792 75552120 76442016 77346656 78262264 79182784 
1155.650 80099568 81002832 81883176 82730520 83533680 84277872 84942248 
1159.026 85502704 85931856 86203808 86299344 86205584 85916112 85428448 
1162.401 84741208 83852280 82760664 81467408 79978376 78304920 76463752 
1165.776 74474656 72358936 70140656 67844928 65499084 63134192 60780160 
1169.151 58465092 56213096 54040672 51958068 49970976 48081536 46291352 
1172.527 44601844 43014424 41530092 40148452 38867832 37685132 36596480 
1175.902 35598008 34685796 33855616 33103396 32423660 31810902 31259504 
1179.277 30764386 30322378 29932362 29594764 29311410 29084286 28914898 
1182.652 28803920 28751452 28757364 28821554 28944116 29125314 29365046 
1186.028 29662766 30016750 30424968 30883336 31385962 31924364 32485608 
1189.403 33053052 33607880 34129300 34599420 35005828 35342484 35611024 
1192.778 35819424 35979684 36104896 36208028 36300384 36389872 36482012 
1196.153 36578820 36678860 36778052 36870128 36948552 37007072 37041060 
1199.529 37047844 37025760 36973480 36889356 36771452 36617964 36428208 
1202.904 36202988 35943868 35652604 35328684 34969120 34567664 34116432 
1206.279 33607952 33037248 32404062 31712588 30972570 30197332 29402130 
1209.654 28604488 27822440 27072160 26369786 25728802 25159010 24667570 
1213.030 24257720 23929192 23679566 23504682 23399764 23359798 23380114 
1216.405 23455892 23582372 23754872 23969316 24222158 24510904 24834186 
1219.780 25190786 25579660 25998852 26446724 26921462 27422062 27948608 
1223.155 28501764 29082372 29690118 30323694 30980256 31656306 32348514 
1226.531 33053766 33768724 34489348 35209228 35919684 36609964 37267548 
1229.906 37880972 38438860 38931248 39349856 39687248 39938184 40100920 
1233.281 40178436 40180184 40120436 40019380 39899284 39782448 39691136 
1236.656 39645792 39664304 39763640 39958024 40258624 40672620 41202120 
1240.031 41843568 42587668 43421504 44327760 45285700 46273180 47263356 
1243.407 48226872 49134800 49958000 50672468 51262220 51719316 52044572 
1246.782 52246056 52337848 52338560 52269488 52154624 52015924 51870728 
1250.157 51728384 51587168 51434548 51248684 51005548 50682524 50264048 
1253.532 49745092 49130900 48435156 47675692 46873368 46048320 45217008 
1256.908 44392968 43584736 42796112 42026912 41274480 40534956 39805692 
1260.283 39086316 38378916 37688132 37019088 36377008 35766212 35190040 
1263.658 34651668 34154248 33701224 33296176 32942190 32640752 32391638 
1267.033 32192904 32041918 31935598 31871908 31849444 31867344 31924184 
1270.409 32017592 32143488 32296900 32472540 32664790 32868956 33080618 
1273.784 33295638 33510014 33720592 33925328 34124816 34321388 34519228 
1277.159 34721288 34928148 35135392 35334324 35511880 35653824 35747716 
1280.534 35784596 35760488 35676344 35537628 35352940 35132552 34888504 
1283.910 34632396 34374568 34124136 33888000 33670964 33477194 33310342 
1287.285 33174992 33076186 33018872 33006250 33038534 33112586 33221666 
1290.660 33356782 33509444 33672256 33840536 34012288 34187580 34367756 
1294.035 34554892 34752084 34963160 35192768 35446264 35728648 36043292 
1297.411 36392356 36776108 37194444 37647736 38137088 38664664 39232156 
1300.786 39839864 40485668 41165692 41875096 42609412 43365772 44142412 
1304.161 44938272 45751416 46578332 47414368 48254828 49096472 49937708 
1307.536 50777820 51615604 52446968 53264532 54057484 54813724 55522448 
1310.912 56175272 56766580 57292756 57750800 58137040 58447732 58679180 
1314.287 58829016 58895912 58879292 58778144 58590548 58314696 57950636 
1317.662 57502484 56980552 56400192 55779808 55139316 54494956 53859352 
1321.037 53241124 52645800 52077516 51540792 51040096 50580212 50165812 
1324.413 49800676 49489348 49237324 49051432 48940200 48911680 48971244 
1327.788 49119512 49350976 49654776 50015180 50415032 50837972 51267960 
1331.163 51691212 52094888 52466372 52795216 53073016 53294612 53458976 
1334.538 53567668 53624160 53631772 53593456 53511448 53387596 53224568 
1337.914 53026068 52796564 52541120 52264480 51970428 51661464 51338172 
1341.289 50999584 50642792 50263864 49858872 49425412 48963972 48479460 
1344.664 47981536 47481928 46993712 46528540 46094560 45697264 45340496 
1348.039 45027868 44764936 44559068 44418548 44351500 44363500 44455692 
1351.415 44624644 44862212 45156892 45493784 45856980 46229576 46594008 
1354.790 46934640 47238784 47498600 47713112 47887408 48031276 48154384 
1358.165 48264048 48361960 48443820 48500836 48521768 48498244 48426780 
1361.540 48312076 48166712 48011696 47872164 47771660 47729832 47757016 
1364.916 47854072 48012660 48218208 48451896 48692384 48920212 49118692 
1368.291 49274292 49377296 49418432 49387508 49273364 49063680 48747724 
1371.666 48319892 47781908 47145776 46432400 45673484 44905128 44161160 
1375.041 43468488 42840908 42278580 41771516 41305052 40865736 40445404 
1378.417 40044088 39669640 39336216 39058548 38849928 38718708 38667164 
1381.792 38690164 38773588 38895732 39024068 39117168 39130116 39013196 
1385.167 38721240 38223664 37513080 36615404 35588296 34513416 33470862 
1388.542 32520532 31695906 31002318 30428200 29953200 29555960 29215996 
1391.917 28914296 28634536 28362914 28091250 27819826 27558210 27322404 
1395.293 27127248 26981326 26882156 26818642 26774448 26734910 26691850 
1398.668 26646400 26607966 26589224 26601378 26648304 26725818 26824106 
1402.043 26931228 27036650 27133562 27220686 27301338 27382392 27471156 
1405.418 27573956 27694474 27833886 27991190 28164850 28352552 28552292 
1408.794 28762144 28981376 29210432 29451628 29708674 29986394 30289230 
1412.169 30620082 30979828 31367690 31781420 32218348 32676150 33151780 
1415.544 33641108 34139156 34639212 35134888 35622716 36106336 36597344 
1418.919 37112116 37667212 38269804 38912656 39578096 40243464 40888596 
1422.295 41497316 42062064 42583392 43068572 43528040 43971416 44403500 
1425.670 44822020 45219100 45582652 45900692 46162320 46359952 46490852 
1429.045 46557012 46564760 46522932 46442652 46336248 46216348 46095516 
1432.420 45983228 45883084 45790328 45691596 45567528 45397916 45172772 
1435.796 44902884 44629084 44410808 44306620 44351644 44545520 44860300 
1439.171 45252272 45676724 46089844 46453976 46742504 46936600 47026684 
1442.546 47009180 46883408 46650264 46311808 45872924 45341084 44726148 
1445.921 44041304 43302988 42532996 41764224 41036024 40389984 39860784 
1449.297 39465596 39202964 39056808 39004972 39025416 39100636 39219860 
1452.672 39374528 39553744 39741056 39908908 40019312 40029740 39899464 
1456.047 39611124 39186932 38694544 38216212 37810624 37493828 37247584 
1459.422 37042400 36853900 36670600 36490696 36315656 36142740 35961504 
1462.798 35755056 35506812 35209336 34872240 34521708 34192496 33913540 
1466.173 33696496 33537004 33420186 33329628 33251856 33177242 33097212 
1469.548 32998708 32861952 32661326 32371074 31977716 31491436 30950436 
1472.923 30405882 29901728 29456840 29063846 28700264 28344556 27988646 
1476.299 27640830 27322120 27054492 26853994 26724090 26658132 26645060 
1479.674 26676522 26751260 26875354 27059712 27314254 27646058 28056114 
1483.049 28542526 29102356 29734400 30438294 31211506 32047376 32929394 
1486.424 33828896 34707688 35516448 36198700 36698904 36964392 36957104 
1489.800 36664256 36105364 35330300 34404160 33392492 32341446 31271324 
1493.175 30182946 29063666 27899670 26690052 25452630 24229166 23079120 
1496.550 22061182 21217294 20563156 20090906 19778694 19600450 19533276 
1499.925 19555978 19648564 19792668 19968978 20159518 20348234 20516884 
1503.301 20643970 20701028 20646334 20427794 19991286 19302548 18377748 
1506.676 17298100 16184673 15140237 14211580 13390516 12643008 11933631 
1510.051 11240408 10557692 9894894 9269053 8695289 8183998 7736007 7344955 
1513.908 7001123 6693802 6414137 6155286 5913719 5690044 5488800 5317029 
1517.766 5180568 5079884 5007981 4950836 4889376 4807286 4698014 4572093 
1521.623 4454276 4372972 4344155 4365006 4417555 4477911 4526992 4553811 
1525.481 4560306 4557695 4561512 4582775 4624332 4681234 4746048 4813752 
1529.338 4884182 4960354 5045724 5139494 5236033 5325415 5398142 5451521 
1533.196 5493866 5543834 5619988 5733420 5881475 6051990 6227379 6390800 
1537.053 6530199 6636637 6706252 6738120 6734956 6702080 6647874 6584457 
1540.910 6525188 6480522 6454626 6443830 6437542 6422544 6389018 6334011 
1544.768 6265295 6195818 6139793 6104643 6087472 6077022 6058441 6020442 
1548.625 5958931 5880065 5797519 5726571 5676516 5646941 5629218 5612335 
1552.483 5588303 5556218 5522558 5498531 5494571 5513967 5551888 5595016 
1556.340 5626298 5624519 5568233 5440885 5241533 4997155 4757940 4576613 
1560.198 4479417 4461741 4500910 4569548 4644292 4705583 4742027 4750101 
1564.055 4735261 4710072 4689171 4684281 4698483 4726552 4756968 4778475 
1567.912 4782227 4766448 4736969 4705718 4687162 4692052 4725916 4788559 
1571.770 4876107 4982474 5099395 5217253 5323201 5403745 5448300 5454038 
1575.627 5431289 5402168 5394284 5426022 5501282 5611395 5742351 5881576 
1579.485 6021114 6159117 6298105 6442250 6595054 6757605 6928093 7103062 
1583.342 7278033 7448693 7610518 7758809 7888559 7995668 8078126 8137439 
1587.199 8178933 8211821 8247176 8295874 8367039 8466495 8597099 8759352 
1591.057 8951769 9170497 9407686 9652086 9887539 10095513 10259074 10364834 
1594.914 10407118 10388487 10320010 10217618 10098226 9978731 9872387 
1598.290 9788943 9736418 9720256 9743975 9807448 9906793 10034135 10177727 
1602.147 10325404 10464918 10586312 10682882 10751382 10791123 10803827 
1605.522 10792618 10761878 10715993 10660062 10597449 10529311 10454125 
1608.897 10367549 10265282 10143808 10004329 9852728 9699180 9554933 9428612 
1612.755 9323926 9237880 9162408 9085123 8994626 8881927 8745220 8593550 
1616.612 8445514 8323704 8245893 8219891 8242178 8301818 8383388 8470516 
1620.470 8548671 8605142 8632553 8630491 8606629 8574557 8549786 8544177 
1624.327 8561851 8599701 8649588 8702388 8750190 8787956 8813687 8829005 
1628.185 8838202 8847198 8863260 8892952 8940506 9007717 9092432 9188906 
1632.042 9287705 9376638 9442462 9471584 9454076 9386694 9278734 9152087 
1635.899 9035999 8956944 8926638 8941994 8988943 9050546 9110941 9158584 
1639.757 9188873 9203459 9209754 9217200 9234021 9263637 9303275 9343967 
1643.614 9372812 9376062 9341462 9261945 9139601 8988064 8830391 8694680 
1647.472 8605886 8577396 8609469 8691401 8806350 8931508 9038976 9096933 
1651.329 9067496 8917777 8638874 8272943 7909918 7637630 7495178 7463659 
1655.187 7498515 7554884 7602358 7625254 7619049 7587724 7538970 7480952 
1659.044 7418425 7351897 7277528 7190000 7083595 6955971 6809064 6651037 
1662.901 6494445 6352604 6236891 6152597 6098259 6066573 6046111 6024070 
1666.759 5987149 5924333 5829790 5703809 5554338 5395425 5243679 5112973 
1670.616 5011635 4940715 4895407 4866222 4840187 4803634 4742965 4649014 
1674.474 4521668 4373574 4228375 4109413 4031986 3995902 3989616 3995768 
1678.331 3999012 3991287 3972829 3951395 3936516 3934276 3941565 3945276 
1682.188 3924246 3856813 3730534 3554347 3361401 3197280 3095653 3062483 
1686.046 3081237 3126155 3175751 3214937 3236368 3239439 3227789 3207527 
1689.903 3185597 3169576 3166172 3179990 3211967 3257766 3307911 3346910 
1693.761 3358496 3328846 3255229 3151553 3047334 2976101 2955717 2981906 
1697.618 3030884 3071092 3069858 3003859 2871224 2699019 2537080 2430410 
1701.476 2397924 2427278 2491057 2559011 2607908 2623675 2600408 2542446 
1705.333 2461465 2373403 2291854 2224941 2174621 2138092 2111222 2089747 
1709.190 2071169 2054323 2039676 2028124 2020668 2017605 2018470 2021833 
1713.048 2025894 2028690 2027525 2019769 2002060 1969972 1919815 1850130 
1716.905 1765120 1675469 1597011 1545534 1529739 1548859 1593752 1651488 
1720.763 1708200 1753043 1779692 1787178 1778893 1761726 1742997 1728392 
1724.620 1720242 1718246 1720442 1724733 1729058 1732052 1732883 1731752 
1728.478 1729324 1728126 1731652 1743063 1763523 1789407 1812131 1818187 
1732.335 1791436 1720675 1605924 1466002 1333237 1241815 1209152 1230617 
1736.192 1286776 1353478 1410318 1441799 1440968 1410085 1359328 1303725 
1740.050 1256801 1227161 1215266 1216595 1224669 1234239 1242446 1248893 
1743.907 1254575 1260889 1268465 1277238 1286510 1295582 1304290 1312232 
1747.765 1319112 1323698 1324496 1319378 1306649 1286311 1261088 1236332 
1751.622 1219020 1215000 1226729 1252780 1287474 1322901 1349789 1361090 
1755.479 1353046 1327720 1292625 1258862 1236531 1230816 1240087 1256834 
1759.337 1271356 1273417 1256336 1219552 1168252 1112640 1064143 1032423 
1763.194 1021430 1030132 1053215 1083242 1112673 1134598 1144299 1140379 
1767.052 1125828 1106362 1090151 1083574 1088258 1100349 1111112 1110149 
1770.909 1088989 1044912 984002 920145 869146 841558 839864 857991 886710 
1775.249 917024 943920 966036 985363 1004094 1022858 1040195 1052750 1057533 
1779.588 1053879 1044513 1034947 1030929 1035412 1047270 1061386 1071550 
1783.446 1072281 1061751 1042321 1019670 1000673 990477 991673 1003396 
1787.303 1023124 1047270 1072015 1093805 1107956 1109451 1093539 1057002 
1791.161 1000407 929874 856464 792792 748878 729096 730822 747517 771581 
1795.500 796609 818419 835250 846770 853111 854239 849724 839300 823531 
1799.840 804410 784958 768527 757640 753491 755350 762022 771681 783464 
1804.179 796974 812145 828909 847035 865793 884518 902481 918684 932630 
1808.519 943488 950428 952819 950727 944684 936615 928745 922768 919680 
1812.859 918717 917953 915032 907860 895873 880302 863701 849193 840097 
1817.198 837972 842919 853177 866988 881630 895840 909121 921506 932896 
1821.538 942725 949200 950030 942924 927018 903776 877978 856032 845077 
1825.877 848894 867420 895375 924594 944949 948270 931069 895907 851152 
1830.217 808692 779182 768527 776527 797904 825656 853443 876982 894778 
1834.557 907494 916725 923432 928081 930704 931202 931103 933327 941263 
1838.896 958298 985728 1022360 1064309 1105764 1140046 1160478 1162239 
1842.754 1143900 1108388 1063645 1020467 989880 979153 989581 1016913 
1846.611 1054411 1094204 1130280 1160013 1183734 1203769 1223140 1243177 
1850.469 1262716 1279166 1288869 1289866 1282389 1269063 1253013 1236997 
1854.326 1222177 1206494 1187888 1164066 1135063 1103305 1072978 1047834 
1858.183 1030065 1019404 1013360 1008710 1002931 995027 985662 976496 968427 
1862.523 962350 958631 957501 960058 967431 979651 994961 1008876 1014987 
1866.863 1006618 980382 937345 885514 836312 801555 788676 798468 824394 
1871.202 856796 886577 907195 916127 915065 907328 897268 888237 882260 
1875.542 879870 881397 886411 894412 904008 913803 921706 926819 928712 
1879.881 928944 929542 932796 939271 948170 956538 961553 960623 953351 
1884.221 941131 926886 913637 902779 894545 887340 878542 866059 848728 
1888.561 827282 803580 781074 762851 752130 750471 757839 772577 791630 
1892.900 810950 826685 836047 838337 834885 828743 823033 819614 818518 
1897.240 818087 815796 810253 801721 791763 783398 779282 779913 785091 
1901.579 792593 800095 806734 812576 818186 824925 833059 841026 847334 
1905.919 850123 848463 843317 836777 830569 826818 826021 827648 830503 
1910.259 833258 834055 832395 827382 819050 808062 795846 784029 774768 
1914.598 768793 765175 760727 751666 734440 708254 676228 644869 621873 
1918.938 612550 617029 630202 644537 651340 645168 626121 597950 568056 
1923.277 542710 525392 515208 509071 502669 494077 484291 476530 473345 
1927.617 476861 485851 497228 507678 515175 519156 521046 521909 521644 
1931.957 518558 510398 495338 474241 450226 427971 411918 404987 406778 
1936.296 415401 428402 443924 461570 481903 504228 526487 544103 552264 
1940.636 546657 526852 495636 459414 425782 401339 389400 391356 406015 
1944.975 431254 465617 507180 552032 595860 632691 656948 666107 661195 
1949.315 646130 627183 610426 598780 592476 588760 584479 577313 567260 
1953.655 554222 539160 521511 498190 465517 420807 362670 294097 220032 
1957.994 146311 77275 16269 -37738 -85576 -128176 -165108 -195546 -217867 
1962.334 -233068 -243268 -251116 -260024 -270687 -281150 -289826 -293435 
1966.191 -290554 -281448 -268104 -251116 -233068 -214059 -195612 -179052 
1970.049 -168188 -164644 -170242 -183126 -199520 -214390 -224954 -229922 
1973.906 -234062 -241248 -254792 -272276 -285985 -283965 -256083 -197831 
1977.763 -113469 -15373 81484 164276 226795 269927 300298 326426 354082 
1982.103 386249 421669 456827 487476 510929 524795 528842 522772 507777 
1986.443 486381 463096 443626 433974 439248 459348 490959 528079 563246 
1990.782 590949 610028 623300 635246 650742 671383 695078 717214 732681 
1995.122 736962 730457 715522 696671 680011 670089 669857 680542 701284 
1999.461 728565 757607 782269 795779 792228 768760 723885 661826 588793 
2003.801 512886 442498 385951 346488 327056 327089 344233 374310 412947 
2008.141 453974 492253 524397 548748 565900 577910 585342 587366 582489 
2012.480 567890 542112 507711 468569 433145 407806 398155 404755 425019 
2016.820 453145 483628 512720 539525 563279 585143 603657 617029 624063 
2021.159 625523 623599 623333 629107 641982 661229 682766 701185 712834 
2025.499 717314 716517 713199 709681 705134 696505 680808 656417 625391 
2029.839 594234 569417 557539 561421 580365 610559 649448 694713 746222 
2034.178 804609 868482 934025 997086 1052053 1095898 1129981 1159116 1189084 
2038.518 1225134 1269263 1319644 1373155 1425643 1474612 1519797 1561960 
2042.375 1600935 1635091 1660801 1674006 1672775 1658606 1636055 1614038 
2046.233 1602465 1608784 1637984 1690171 1760562 1841379 1922278 1993372 
2050.090 2045701 2074565 2078760 2062713 2034283 2002792 1977461 1964480 
2053.948 1964613 1974432 1988379 2000329 2007552 2011613 2016207 2026893 
2057.805 2047266 2077595 2113985 2152277 2186010 2212452 2230370 2241660 
2061.662 2248121 2252085 2254017 2253683 2250852 2246056 2239495 2233100 
2065.520 2227172 2222143 2217414 2212652 2207923 2204493 2203860 2206824 
2069.377 2213451 2221677 2228571 2231435 2228704 2220778 2209555 2198431 
2073.235 2189440 2184345 2183779 2187675 2195934 2209155 2227072 2248821 
2077.092 2271669 2291888 2304878 2308276 2301514 2287624 2271336 2257913 
2080.949 2251085 2252384 2260145 2271536 2283793 2294985 2304412 2312673 
2084.807 2320068 2325931 2329096 2328063 2321334 2309609 2293953 2275899 
2088.664 2257314 2238729 2220445 2202561 2186143 2171857 2161568 2156273 
2092.522 2155607 2158204 2161501 2163066 2162400 2160202 2158271 2158770 
2096.379 2162500 2168061 2173256 2175620 2174455 2170725 2167761 2168827 
2100.237 2176120 2190306 2209122 2230137 2250919 2269804 2286991 2303579 
2104.094 2320135 2336591 2352615 2366707 2379034 2390395 2402322 2416049 
2107.951 2432376 2449669 2465897 2479260 2489757 2498755 2510585 2528782 
2111.809 2555778 2591109 2631343 2670714 2704553 2728593 2741763 2745365 
2115.666 2742364 2735828 2728693 2722991 2719757 2719724 2723491 2730560 
2119.524 2740130 2750366 2758936 2763471 2763438 2758769 2751300 2742831 
2123.381 2734761 2726926 2718390 2707154 2691517 2671380 2647277 2620742 
2127.239 2593842 2567177 2540480 2512885 2483692 2451802 2418482 2384298 
2131.096 2349750 2315838 2282594 2249520 2218047 2189507 2165930 2149480 
2134.953 2139824 2134729 2130900 2123941 2110589 2090046 2064244 2035781 
2138.811 2008318 1984118 1962916 1943711 1924474 1902908 1878449 1851228 
2142.668 1821248 1789307 1756204 1722471 1689340 1658872 1631865 1609150 
2146.526 1589794 1571537 1551885 1530271 1506065 1480963 1457557 1436181 
2150.383 1414174 1387747 1349157 1293323 1216960 1120978 1008843 886809 
2154.240 759134 629937 502702 382933 278713 203954 172961 197656 281664 
2158.580 416197 581460 754288 909885 1034051 1121642 1175262 1202274 1211478 
2162.920 1210714 1205896 1202706 1207158 1223406 1255505 1303193 1361522 
2166.777 1422651 1477172 1516672 1537021 1537952 1523322 1498650 1470224 
2170.635 1441633 1415038 1391470 1370795 1353611 1341779 1336162 1337059 
2174.492 1344072 1355340 1368003 1380169 1389376 1394495 1395692 1394163 
2178.349 1391902 1392966 1400412 1416601 1442963 1476242 1511651 1542341 
2182.207 1563058 1569442 1562293 1546032 1525882 1508392 1497487 1493663 
2186.064 1496356 1503405 1513147 1524519 1538650 1554911 1572535 1590194 
2189.922 1605691 1617730 1627009 1634858 1644270 1657841 1675403 1695061 
2193.779 1714587 1730189 1740335 1745758 1748552 1751313 1757501 1766683 
2197.636 1779226 1793932 1809736 1826239 1843742 1861411 1878582 1892925 
2201.494 1902642 1905904 1904340 1900413 1898649 1902642 1915389 1936189 
2205.351 1963348 1992240 2018936 2041174 2058019 2069405 2076696 2080058 
2209.209 2079759 2075664 2068173 2057986 2047998 2040641 2038211 2042073 
2213.066 2052559 2068106 2087916 2110123 2134030 2158804 2184212 2208955 
2216.924 2231868 2250852 2263909 2269271 2267473 2259012 2246223 2233300 
2220.781 2224575 2223942 2234899 2258646 2293786 2337424 2384797 2429977 
2224.638 2469629 2500387 2521383 2533514 2538480 2537947 2533781 2527682 
2228.496 2520683 2514318 2510319 2509752 2513518 2521916 2533681 2548079 
2232.353 2564510 2582209 2601442 2622709 2645110 2667780 2689050 2707354 
2236.211 2722258 2734962 2746932 2760470 2777610 2797818 2819095 2839572 
2240.068 2855715 2866187 2871624 2873492 2874526 2877494 2882965 2891637 
2243.926 2902277 2913952 2925694 2937336 2948111 2957819 2965959 2972097 
2247.783 2975767 2977969 2979737 2983240 2989780 3000356 3014335 3031318 
2251.640 3049837 3068790 3088512 3109536 3132196 3156626 3181725 3205758 
2255.498 3226854 3243412 3254628 3260938 3262841 3261205 3257065 3250956 
2259.355 3243045 3234299 3225152 3216406 3208462 3201786 3195945 3190838 
2263.213 3186398 3183161 3181959 3184195 3190237 3199917 3212300 3226220 
2267.070 3240307 3254595 3269251 3285542 3304005 3324739 3346308 3367312 
2270.927 3385644 3399402 3408285 3412193 3412126 3409120 3404645 3399770 
2274.785 3395896 3394493 3396597 3402909 3413462 3426286 3439711 3451133 
2278.642 3459316 3464159 3467365 3471139 3478187 3490378 3507747 3529393 
2282.500 3553946 3579269 3604359 3628549 3651002 3670951 3687491 3698653 
2286.357 3703030 3699956 3689931 3675094 3658654 3643350 3632023 3625675 
2290.215 3624172 3625441 3627847 3628849 3627078 3622467 3615886 3608802 
2294.072 3603490 3601252 3602555 3606965 3612678 3617122 3618826 3616387 
2297.929 3610039 3601352 3592632 3585984 3582643 3582375 3583846 3584981 
2301.787 3584046 3579669 3572253 3562598 3551775 3540984 3530696 3520474 
2305.644 3509618 3497526 3483598 3467900 3450933 3433099 3415065 3397332 
2309.502 3380001 3363472 3348245 3334555 3322502 3312218 3303137 3294824 
2313.359 3287078 3279600 3272489 3265745 3259469 3252725 3244947 3234966 
2317.217 3221881 3205624 3186498 3165838 3145612 3127957 3114742 3107433 
2321.074 3106565 3111338 3119681 3128324 3133097 3129826 3115342 3088311 
2324.931 3049370 3001957 2950113 2898875 2852146 2812392 2780144 2754768 
2328.789 2734928 2719624 2708688 2702586 2702320 2708588 2720591 2736795 
2332.646 2755301 2773708 2790415 2804721 2816093 2825098 2832368 2838371 
2336.504 2843841 2849744 2856515 2864686 2874559 2885433 2896740 2907948 
2340.361 2918389 2928496 2938804 2949879 2961789 2974399 2986844 2999355 
2344.219 3014068 3034989 3067856 3118646 3191438 3286410 3399469 3522679 
2348.076 3646023 3759209 3852367 3918260 3952666 3954338 3925650 3872090 
2351.933 3801758 3722948 3644119 3571919 3510219 3460719 3422412 3393358 
2355.791 3370450 3351551 3334589 3319130 3305908 3296393 3292053 3294590 
2359.648 3303638 3318161 3335958 3353721 3368848 3380034 3387280 3392557 
2363.506 3398901 3409554 3427188 3453037 3486604 3526186 3569580 3614582 
2367.363 3660091 3706138 3753561 3803228 3856278 3913145 3974100 4038273 
2371.220 4105634 4174979 4246041 4318353 4391480 4465390 4540518 4616898 
2375.078 4695435 4776934 4861531 4949495 5040428 5133257 5226944 5320753 
2378.935 5414111 5506752 5598909 5690146 5780495 5869452 5956210 6040197 
2382.793 6121075 6198372 6271615 6340802 6405495 6465219 6520075 6570026 
2386.650 6615610 6657328 6695787 6730918 6762922 6791024 6814820 6834173 
2390.508 6849522 6861472 6871369 6879953 6887797 6895169 6902205 6908668 
2394.365 6914930 6921293 6928229 6936073 6945197 6955567 6967284 6980583 
2398.222 6995635 7012707 7032137 7053756 7076994 7101412 7126167 7151194 
2402.080 7177098 7204519 7234536 7267791 7304349 7344078 7386575 7431941 
2405.937 7480716 7533846 7592411 7656615 7726091 7799086 7873409 7947340 
2409.795 8019428 8089469 8158101 8226442 8294726 8362986 8430176 8494978 
2413.652 8556646 8615316 8671931 8728147 8785995 8846758 8910675 8977138 
2417.510 9044220 9110297 9173610 9233310 9289295 9342240 9392992 9442800 
2421.367 9492682 9542773 9593073 9642905 9690947 9735842 9776201 9811210 
2425.224 9840560 9865337 9886183 9905233 9924183 9944557 9967849 9994972 
2429.082 10026369 10062246 10103008 10148658 10199266 10254969 10315089 
2432.457 10379155 10446250 10515155 10584988 10654832 10724382 10793602 
2435.832 10863072 10933640 11006157 11081609 11160542 11243366 11330286 
2439.208 11421476 11516938 11616710 11720316 11827352 11937004 12048794 
2442.583 12162215 12277506 12395317 12516911 12644167 12778729 12921765 
2445.958 13074442 13237352 13410336 13593542 13786267 13987665 14196037 
2449.333 14409477 14625625 14842122 15057491 15270565 15480996 15688712 
2452.708 15893435 16094301 16290167 16479066 16659372 16829558 16988162 
2456.084 17133626 17264138 17376964 17468638 17535978 17576032 17586968 
2459.459 17568442 17520970 17445840 17344514 17218458 17068798 16897140 
2462.834 16705785 16496859 16273586 16039047 15795322 15544282 15287004 
2466.209 15023978 14756209 14485146 14212676 13942293 13677789 13422810 
2469.585 13180788 12954501 12745324 12553675 12379055 12219669 12074004 
2472.960 11940102 11816627 11702820 11598741 11504588 11420524 11346339 
2476.335 11280838 11222046 11167818 11116213 11065940 11016862 10969523 
2479.710 10924602 10883253 10845271 10809908 10776347 10743639 10711103 
2483.086 10679044 10647939 10618431 10590964 10565806 10542619 10521571 
2486.461 10502562 10486064 10472453 10462338 10455415 10450901 10447608 
2489.836 10443671 10437800 10429077 10417300 10403216 10387876 10372775 
2493.211 10359677 10349767 10343897 10342404 10344847 10350310 10357165 
2496.587 10364325 10370603 10375863 10380376 10385060 10390931 10399042 
2499.962 10409562 10422288 10437222 10453955 10472080 10491631 10512372 
2503.337 10533656 10554602 10574531 10592458 10608483 10623321 10638092 
2506.712 10654119 10672456 10693511 10716095 10739155 10760383 10778419 
2510.088 10791938 10800464 10804302 10804133 10801007 10795845 10789084 
2513.463 10781238 10771728 10760248 10745676 10727269 10705058 10679349 
2516.838 10651742 10624034 10597720 10574089 10552973 10533554 10514443 
2520.213 10494551 10473404 10451647 10430299 10410920 10394494 10381361 
2523.589 10370943 10362764 10356215 10351159 10348138 10347867 10350548 
2526.964 10355774 10362798 10370332 10377186 10382684 10386926 10389946 
2530.339 10392220 10393578 10394053 10393815 10392865 10392254 10393204 
2533.714 10397480 10405863 10418352 10433828 10450629 10466853 10481041 
2537.090 10493023 10503241 10512813 10522793 10534268 10547575 10562648 
2540.465 10578876 10595988 10612965 10629365 10645087 10659348 10672660 
2543.840 10685157 10697789 10711238 10726759 10744385 10764018 10784873 
2547.215 10805763 10826212 10845474 10863955 10882404 10901430 10921952 
2550.591 10944344 10968946 10995554 11023931 11053364 11082799 11110706 
2553.966 11134944 11154321 11167171 11173665 11174889 11173121 11170708 
2557.341 11170333 11172985 11179036 11187434 11196478 11204570 11210384 
2560.716 11213308 11213274 11210690 11206270 11201102 11196206 11192126 
2564.092 11189474 11188013 11187230 11186176 11183525 11178357 11170572 
2567.467 11160202 11148440 11136133 11124337 11113358 11103228 11093948 
2570.842 11086063 11080352 11078007 11080012 11086877 11098571 11113834 
2574.217 11130966 11148780 11166322 11183592 11201340 11220449 11241496 
2577.593 11264924 11289952 11316240 11343074 11370386 11398175 11426953 
2580.968 11456788 11488120 11520715 11554231 11588532 11623005 11657380 
2584.343 11690736 11722291 11751702 11778018 11801578 11822823 11842981 
2587.718 11863309 11885171 11909009 11935096 11963058 11992180 12021882 
2591.094 12051724 12081192 12109845 12137341 12163169 12187091 12209241 
2594.469 12230370 12251092 12272325 12294481 12317557 12341385 12365520 
2597.844 12389657 12414443 12440766 12469886 12502417 12538703 12578062 
2601.219 12619197 12660781 12701822 12741810 12781084 12820124 12859610 
2604.594 12899953 12941290 12984064 13028551 13075022 13123889 13175425 
2607.970 13229256 13284666 13340526 13395437 13448612 13499298 13547563 
2611.345 13593542 13637373 13678781 13717593 13753467 13786438 13816640 
2614.720 13845031 13872124 13898911 13925528 13952045 13977844 14002618 
2618.095 14025786 14047277 14067436 14086739 14105564 14124629 14144071 
2621.471 14164235 14185151 14206788 14228630 14250474 14271600 14291563 
2624.846 14310158 14327520 14344266 14361390 14379815 14400400 14423623 
2628.221 14449758 14478397 14509504 14542703 14577823 14614900 14653590 
2631.596 14693586 14734614 14775852 14817265 14858614 14900103 14942145 
2634.972 14985221 15029638 15075431 15122362 15170294 15219019 15268265 
2638.347 15318341 15368868 15419950 15471279 15522236 15572444 15621214 
2641.722 15668480 15714031 15758317 15801508 15843878 15885392 15925916 
2645.097 15965203 16003087 16039321 16074186 16107950 16141342 16174838 
2648.473 16209092 16244726 16282015 16321300 16362516 16405767 16450640 
2651.848 16496962 16544495 16593101 16642777 16693803 16746763 16802142 
2655.223 16860214 16921152 16984614 17050120 17117012 17184502 17252106 
2658.598 17319514 17386792 17454290 17522212 17590870 17660468 17731114 
2661.974 17802944 17875788 17949612 18024624 18100338 18176618 18253292 
2665.349 18330082 18406886 18483982 18561402 18639422 18718220 18797652 
2668.724 18877446 18957428 19037080 19116122 19194244 19271234 19346924 
2672.099 19421068 19493560 19564608 19634560 19704140 19774220 19845696 
2675.475 19918710 19993228 20068280 20143344 20217312 20290146 20362088 
2678.850 20433732 20506080 20579832 20655436 20733072 20813012 20895266 
2682.225 20980558 21069796 21163924 21263328 21368494 21478842 21593846 
2685.600 21712924 21835970 21963164 22094892 22231544 22373052 22518620 
2688.976 22667028 22816710 22966864 23116894 23267290 23418928 23572856 
2692.351 23729466 23889176 24051292 24214904 24379492 24544490 24709832 
2695.726 24875938 25043126 25211784 25381840 25553300 25725882 25899414 
2699.101 26074172 26250378 26428518 26609232 26792598 26978716 27167352 
2702.477 27357902 27549948 27743034 27936346 28129816 28322878 28515386 
2705.852 28706494 28895598 29081700 29263628 29440244 29610584 29773396 
2709.227 29928138 30074130 30211184 30339434 30459228 30571196 30675870 
2712.602 30773812 30865086 30949370 31026090 31094034 31152482 31200292 
2715.978 31237320 31263630 31279658 31286422 31284892 31276058 31260498 
2719.353 31238886 31211222 31177400 31137138 31090082 31036020 30975522 
2722.728 30909484 30839686 30768156 30697242 30628900 30564478 30504652 
2726.103 30449382 30398348 30351338 30308060 30268732 30233526 30202766 
2729.479 30176234 30153822 30135070 30120012 30108506 30101154 30097852 
2732.854 30098916 30103924 30111986 30122354 30134146 30146824 30160144 
2736.229 30174208 30188912 30204186 30219638 30234238 30247452 30258286 
2739.604 30266176 30270508 30270898 30266672 30257080 30241768 30220634 
2742.979 30194206 30163766 30131340 30098490 30067206 30038906 30014548 
2746.355 29994878 29980074 29970560 29966762 29968820 29976418 29988880 
2749.730 30005318 30024562 30045582 30067988 30091814 30117524 30145440 
2753.105 30176234 30210048 30246672 30285288 30325436 30366580 30407874 
2756.480 30449666 30491998 30535684 30581080 30628970 30679498 30732270 
2759.856 30786260 30839828 30891412 30938980 30981322 31017584 31047408 
2763.231 31070542 31087056 31096488 31098376 31092358 31078584 31057586 
2766.606 31030432 30998368 30962678 30924072 30883122 30839402 30792626 
2769.981 30742584 30689418 30633522 30575570 30516310 30456490 30397070 
2773.357 30339576 30285536 30237080 30196230 30164832 30143664 30133008 
2776.732 30131838 30139048 30152648 30171048 30192216 30214524 30235516 
2780.107 30253102 30264540 30267914 30261450 30245074 30219176 30185148 
2783.482 30144658 30099130 30049984 29997862 29943722 29888028 29831914 
2786.858 29775844 29720844 29667628 29616436 29567630 29521276 29478046 
2790.233 29438438 29403690 29374796 29352992 29339202 29333494 29336082 
2793.608 29346184 29362918 29384970 29410746 29438438 29465988 29491662 
2796.983 29513544 29530176 29540640 29544080 29540604 29530284 29514076 
2800.359 29492444 29466486 29436842 29403938 29367810 29328566 29286136 
2803.734 29240592 29192322 29142322 29091444 29040958 28991542 28944046 
2807.109 28898714 28855828 28815498 28778076 28743558 28712654 28685078 
2810.484 28661010 28640022 28621972 28607036 28595252 28587006 28582724 
2813.860 28582334 28585802 28592350 28601232 28612098 28624484 28638606 
2817.235 28654816 28673646 28695840 28721574 28751664 28786430 28826546 
2820.610 28872614 28925346 28985096 29052048 29126200 29207384 29295672 
2823.985 29391494 29494960 29606788 29726876 29854984 29989768 30129316 
2827.361 30271788 30414662 30555982 30693650 30825636 30950010 31065096 
2830.736 31169532 31262740 31344682 31416308 31479572 31536576 31589772 
2834.111 31641946 31695406 31752616 31815574 31885460 31962880 32047272 
2837.486 32137744 32232552 32329916 32429126 32530032 32633464 32740708 
2840.862 32853194 32971826 33096958 33228460 33366442 33511378 33664452 
2844.237 33827500 34002612 34191564 34395480 34614060 34846032 35087756 
2847.612 35334288 35578624 35812804 36026736 36211344 36358096 36460892 
2850.987 36517220 36527784 36497252 36432536 36341844 36234824 36120236 
2854.363 36006644 35901976 35812516 35743292 35697316 35675912 35678072 
2857.738 35701416 35743076 35799596 35867356 35943584 36025008 36108928 
2861.113 36192688 36273832 36350816 36423236 36491812 36557696 36622580 
2864.488 36687800 36754108 36821944 36891304 36962728 37036660 37114280 
2867.864 37196360 37282784 37372476 37463704 37553724 37640072 37720732 
2871.239 37794936 37861992 37922440 37976536 38024816 38067600 38105872 
2874.614 38140708 38173916 38207640 38244040 38284784 38330960 38383044 
2877.989 38441140 38505004 38574272 38648912 38728708 38813296 38902580 
2881.365 38996412 39094400 39196616 39302952 39413272 39527104 39643688 
2884.740 39761828 39880396 39998308 40115092 40230960 40346136 40461336 
2888.115 40577080 40693688 40810548 40927224 41042652 41156184 41266976 
2891.490 41375532 41482260 41588684 41696704 41808616 41926800 42053228 
2894.865 42189480 42336144 42492908 42657772 42827996 42998692 43163644 
2898.241 43315508 43446036 43546792 43610936 43633756 43613352 43551188 
2901.616 43451240 43319936 43163712 42989660 42804156 42612336 42419068 
2904.991 42227820 42041948 41864036 41695244 41536216 41386720 41246092 
2908.366 41114112 40990612 40876364 40772588 40680296 40600396 40532588 
2911.742 40475592 40426968 40383296 40340568 40294360 40239648 40171712 
2915.117 40086424 39980432 39851448 39699300 39525360 39332592 39124528 
2918.492 38905480 38678900 38447548 38213064 37975852 37735476 37491084 
2921.867 37241556 36986688 36726740 36463164 36198452 35935376 35677064 
2925.243 35426164 35185080 34955152 34737372 34532252 34340144 34161308 
2928.618 33995484 33842328 33700864 33569432 33446454 33330522 33220772 
2931.993 33117272 33020660 32931790 32851766 32780618 32718520 32664650 
2935.368 32617926 32577318 32541782 32510318 32481932 32455366 32429696 
2938.744 32403596 32376644 32348550 32319636 32290548 32261352 32231908 
2942.119 32201078 32167036 32127504 32079660 32021054 31948794 31860712 
2945.494 31754684 31629256 31483598 31318362 31134896 30936454 30726900 
2948.869 30510872 30293138 30077610 29867726 29665816 29473046 29290106 
2952.245 29116634 28952014 28795282 28645472 28501552 28363160 28230048 
2955.620 28102526 27981260 27866990 27760800 27663608 27576392 27500350 
2958.995 27436178 27384194 27344174 27314712 27294034 27279498 27268208 
2962.370 27258294 27248274 27237690 27226756 27215536 27203824 27190702 
2965.746 27174618 27153666 27126048 27090216 27045218 26990388 26925270 
2969.121 26849446 26762924 26666024 26559988 26446548 26328172 26207154 
2972.496 26085504 25964552 25844588 25725882 25608760 25494162 25383810 
2975.871 25279490 25182744 25093606 25010976 24931942 24852362 24768128 
2979.247 24675810 24573066 24459546 24335824 24203940 24065616 23923206 
2982.622 23778322 23632680 23487790 23345568 23207832 23076604 22954358 
2985.997 22843218 22745268 22661688 22592608 22536768 22491296 22451656 
2989.372 22411776 22365482 22306286 22228892 22129862 22008198 21865240 
2992.748 21704668 21531866 21354052 21177804 21009734 20855042 20716912 
2996.123 20596508 20493194 20404976 20329414 20264004 20206864 20156812 
2999.498 20113116 20075534 20043574 20016232 19992188 19969846 19947640 
3002.873 19924016 19898174 19869418 19837614 19803072 19766106 19727476 
3006.249 19687880 19648288 19609704 19573030 19539412 19509538 19484376 
3009.624 19464312 19449758 19440750 19437178 19438496 19443902 19452878 
3012.999 19464658 19479108 19496610 19517784 19543710 19575632 19614350 
3016.374 19660422 19713884 19774220 19840632 19911668 19985456 20059918 
3019.750 20132586 20201136 20263412 20317818 20363340 20399870 20427862 
3023.125 20448006 20461274 20468290 20469506 20465304 20456064 20442552 
3026.500 20425536 20406192 20385736 20365284 20345180 20326082 20307854 
3029.875 20290876 20275426 20262094 20251680 20244562 20240918 20240188 
3033.250 20241264 20242758 20243764 20243696 20243208 20243522 20245778 
3036.626 20251644 20261608 20275356 20291882 20309764 20327436 20344032 
3040.001 20358756 20372020 20383968 20395148 20405706 20415534 20424876 
3043.376 20433732 20442484 20451582 20461552 20472806 20485344 20499204 
3046.751 20514522 20531334 20550024 20570904 20594042 20619162 20645394 
3050.127 20671594 20696720 20720316 20742316 20763760 20785866 20809850 
3053.502 20836234 20865088 20895646 20927008 20958406 20989528 21020376 
3056.877 21051642 21083536 21116334 21149800 21183128 21216076 21247704 
3060.252 21278010 21306720 21333866 21359550 21383914 21407026 21429060 
3063.628 21450434 21471634 21492942 21514492 21536218 21557494 21577864 
3067.003 21597154 21615194 21632606 21650196 21668898 21689482 21712576 
3070.378 21737936 21765384 21794266 21824194 21854612 21885380 21916396 
3073.753 21947864 21980034 22013494 22048212 22084818 22122924 22162394 
3077.129 22202740 22243576 22284592 22325820 22367540 22410626 22455670 
3080.504 22502848 22552262 22603324 22654880 22705606 22754452 22800334 
3083.879 22842762 22881738 22917436 22950726 22982374 23013538 23045470 
3087.254 23079048 23114832 23153238 23193990 23236598 23280470 23324694 
3090.630 23368610 23411760 23454214 23496182 23537912 23579888 23622604 
3094.005 23666338 23711060 23756692 23803032 23850110 23898208 23947924 
3097.380 23999990 24055250 24114300 24176756 24241426 24306600 24370238 
3100.755 24430804 24487310 24540248 24590632 24640250 24690892 24743748 
3104.131 24798998 24856150 24914502 24973072 25031438 25089358 25147318 
3107.506 25205638 25264704 25324516 25385038 25446096 25507620 25569466 
3110.881 25631640 25694104 25756716 25819198 25881336 25942956 26004162 
3114.256 26064990 26125968 26187410 26249602 26312612 26376794 26442110 
3117.632 26508986 26577740 26648198 26720214 26793056 26865414 26936410 
3121.007 27004634 27069834 27131762 27191760 27250638 27310018 27370854 
3124.382 27433920 27499008 27565906 27634122 27703548 27774364 27846710 
3127.757 27921188 27998154 28077216 28157710 28238288 28318314 28396552 
3131.133 28473070 28548258 28623140 28698600 28775350 28853352 28932216 
3134.508 29011026 29089210 29166454 29243250 29320236 29398408 29478116 
3137.883 29559578 29642226 29725208 29807994 29890334 29972476 30055060 
3141.258 30138692 30224114 30311116 30399452 30488124 30576388 30663746 
3144.634 30749662 30834030 30917240 30999684 31082074 31165154 31249852 
3148.009 31336952 31427280 31520970 31618244 31718288 31820528 31923864 
3151.384 32027438 32130714 32232944 32334126 32434088 32532710 32630284 
3154.759 32727200 32824036 32921568 33020586 33121380 33224310 33329126 
3158.135 33435002 33541440 33647516 33752648 33856548 33959292 34061132 
3161.510 34163028 34265488 34369800 34476540 34586536 34699684 34815656 
3164.885 34933356 35052156 35170960 35289648 35407904 35526516 35645448 
3168.260 35764844 35884344 36003224 36120632 36236160 36349628 36461940 
3171.635 36574204 36687868 36804016 36923300 37045356 37169216 37293580 
3175.011 37416608 37536384 37651852 37762224 37867776 37969560 38069412 
3178.386 38169356 38271356 38376816 38486068 38598856 38714432 38831596 
3181.761 38949656 39068044 39186464 39304660 39422452 39539732 39656028 
3185.136 39771412 39886388 40001540 40117780 40235868 40356280 40478760 
3188.512 40603020 40728368 40854520 40981072 41108172 41235568 41363252 
3191.887 41490828 41618404 41745944 41874000 42003292 42134564 42267588 
3195.262 42402116 42536648 42669800 42800576 42928608 43054964 43181244 
3198.637 43309392 43440944 43576496 43715828 43857736 44000968 44144396 
3202.013 44286808 44427688 44566812 44704332 44840832 44977152 45114576 
3205.388 45254584 45397916 45544932 45694616 45845304 45995092 46142900 
3208.763 46288696 46434100 46581208 46732208 46888392 47049136 47212300 
3212.138 47375420 47536008 47693144 47847156 47999780 48153308 48309224 
3215.514 48467936 48628860 48790580 48951772 49111944 49271064 49430052 
3218.889 49589920 49751292 49914400 50078800 50244072 50409932 50576340 
3222.264 50743480 50912100 51082356 51254576 51428428 51603696 51779376 
3225.639 51954860 52129556 52302900 52474860 52645576 52815312 52984816 
3229.015 53154044 53323268 53492444 53661612 53831032 54001948 54175180 
3232.390 54352420 54534472 54721220 54911396 55102900 55293316 55481068 
3235.765 55665968 55849096 56032528 56218492 56408532 56602732 56800152 
3239.140 56999060 57197836 57395868 57592968 57790048 57987556 58185908 
3242.516 58384696 58583500 58782012 58981036 59182084 59387520 59599476 
3245.891 59819104 60046644 60281040 60520700 60763772 61008816 61255480 
3249.266 61503624 61753164 62004192 62256012 62507868 62758832 63008332 
3252.641 63256368 63503356 63749828 63996672 64244508 64493940 64744980 
3256.017 64997860 65252692 65509520 65768204 66028468 66289580 66550776 
3259.392 66810852 67068644 67323264 67573936 67820720 68064344 68305320 
3262.767 68544688 68783016 69019920 69254464 69485376 69710680 69929600 
3266.142 70141400 70346512 70545680 70739832 70929392 71114776 71295488 
3269.518 71471344 71642112 71808216 71969744 72127088 72280080 72428576 
3272.893 72572000 72709944 72842208 72969384 73092160 73211368 73327352 
3276.268 73440224 73549840 73656256 73759704 73860912 73960336 74058440 
3279.643 74154840 74248672 74338656 74423952 74504512 74581016 74654904 
3283.019 74727552 74799896 74871736 74942408 75010568 75075280 75136216 
3286.394 75194008 75249680 75304056 75357616 75410352 75461600 75510600 
3289.769 75556968 75600696 75641832 75680840 75718152 75754128 75789392 
3293.144 75824664 75860768 75898256 75937008 75976312 76014600 76049896 
3296.520 76080208 76104768 76123520 76138048 76149968 76161144 76172600 
3299.895 76184920 76197240 76208688 76218400 76225904 76231120 76235112 
3303.270 76239016 76245096 76254816 76270216 76291976 76320104 76353128 
3306.645 76388640 76424400 76458808 76491216 76523296 76557840 76597792 
3310.021 76645512 76701880 76765936 76835720 76909288 76985864 77065632 
3313.396 77150392 77241584 77340872 77448184 77562648 77682536 77806648 
3316.771 77934416 78066256 78203384 78346816 78496848 78652848 78813640 
3320.146 78977584 79143536 79310712 79479024 79648280 79818272 79988736 
3323.521 80159216 80329288 80498800 80667648 80835568 81001880 81165696 
3326.897 81325768 81481632 81632592 81778968 81920704 82057776 82188912 
3330.272 82312608 82426768 82529400 82619688 82697088 82762024 82814304 
3333.647 82853440 82878144 82887200 82879704 82856808 82820960 82775856 
3337.022 82725184 82671152 82613960 82551848 82481968 82400928 82306440 
3340.398 82197800 82075344 81940520 81794688 81639112 81474600 81301840 
3343.773 81121672 80934560 80741424 80541992 80335952 80122512 79901264 
3347.148 79672160 79436496 79195864 78952552 78708296 78464184 78220200 
3350.523 77975928 77730712 77484336 77236640 76988120 76738488 76487416 
3353.899 76234008 75977424 75717480 75454616 75190616 74927720 74667544 
3357.274 74411840 74160848 73914488 73671720 73431872 73194152 72958096 
3360.649 72723928 72491608 72260976 72032312 71805288 71579864 71355856 
3364.024 71133008 70910392 70687816 70464696 70241176 70018360 69797752 
3367.400 69581768 69372240 69170296 68976224 68789144 68607152 68427872 
3370.775 68249176 68068960 67885720 67698568 67507160 67311392 67112304 
3374.150 66910760 66708496 66506484 66305792 66106392 65907820 65709108 
3377.525 65509408 65308332 65106244 64903580 64701372 64500436 64301288 
3380.901 64103924 63907996 63712992 63518500 63323908 63128328 62931420 
3384.276 62732488 62531592 62329252 62126664 61925772 61728528 61536376 
3387.651 61350032 61168920 60991848 60816788 60641876 60465780 60287888 
3391.026 60108588 59929128 59751080 59576748 59407728 59245008 59087964 
3394.402 58935416 58784024 58630712 58472788 58309088 58139996 57968320 
3397.777 57797576 57630876 57470144 57315516 57164724 57014852 56862504 
3401.152 56705376 56542532 56374424 56201744 56025816 55847360 55666760 
3404.527 55484420 55300428 55115012 54928692 54741780 54554308 54365904 
3407.903 54176452 53985552 53793268 53599904 53405956 53211308 53015848 
3411.278 52818604 52618868 52416348 52211116 52004456 51797144 51590152 
3414.653 51383676 51177176 50969588 50759868 50547344 50331792 50113712 
3418.028 49893288 49671120 49447204 49221964 48996016 48770120 48546040 
3421.404 48325296 48108848 47897136 47689596 47485068 47282452 47080852 
3424.779 46879972 46679928 46481264 46283868 46087372 45891152 45694320 
3428.154 45496584 45297868 45098108 44897740 44696880 44495080 44291944 
3431.529 44086704 43879396 43670576 43461232 43253384 43049144 42849976 
3434.905 42656896 42469964 42288408 42110356 41933440 41755392 41573880 
3438.280 41387556 41196252 41000740 40802688 40604616 40408748 40217328 
3441.655 40031628 39852428 39679044 39510012 39342240 39172100 38995180 
3445.030 38807972 38607984 38395820 38175076 37951552 37732480 37524424 
3448.406 37331092 37152832 36986580 36827712 36670528 36511132 36347108 
3451.781 36178248 36005424 35829572 35651128 35470136 35285912 35098320 
3455.156 34908076 34716516 34525580 34336844 34150984 33967820 33787028 
3458.531 33607848 33429704 33252570 33076544 32901302 32726738 32551922 
3461.906 32376252 32199542 32021802 31843598 31665254 31486840 31307966 
3465.282 31127918 30946522 30763780 30581008 30399698 30221166 30045972 
3468.657 29873510 29702714 29532198 29361180 29189736 29018640 28848676 
3472.032 28680548 28513618 28346928 28178956 28009110 27837208 27664490 
3475.407 27492760 27323746 27158322 26996594 26837674 26680012 26522440 
3478.783 26362990 26200610 26034206 25863050 25687706 25509446 25331226 
3482.158 25156798 24989776 24832712 24685842 24547154 24412718 24278216 
3485.533 24139974 23996490 23847974 23696678 23544804 23394380 23245932 
3488.908 23099176 22952996 22806794 22661094 22516700 22375006 22236740 
3492.284 22102180 21970554 21840360 21710798 21580614 21449808 21318798 
3495.659 21187754 21057450 20928434 20800708 20675312 20552284 20432240 
3499.034 20314694 20198844 20082820 19964364 19841984 19715064 19584158 
3502.409 19451838 19320700 19194486 19075578 18965530 18864538 18771358 
3505.785 18683904 18599408 18515238 18428252 18336512 18238780 18135230 
3509.160 18027146 17916948 17807398 17701226 17600184 17505100 17415902 
3512.535 17332100 17252588 17176126 17101570 17027098 16950882 16871132 
3515.910 16786402 16696006 16600467 16501781 16402362 16305132 16212532 
3519.286 16125385 16043378 15964311 15885221 15802883 15714444 15618707 
3522.661 15515746 15407316 15296168 15185357 15076975 14971468 14867802 
3526.036 14763613 14656194 14543764 14426158 14304953 14183097 14063568 
3529.411 13948658 13838908 13733495 13630399 13527635 13424074 13318933 
3532.787 13212279 13104082 12994170 12881043 12764056 12642462 12516774 
3536.162 12388771 12261180 12136592 12016875 11902879 11793850 11688796 
3539.537 11586524 11486249 11387869 11291279 11196138 11101664 11006735 
3542.912 10909584 10809024 10704446 10595920 10483994 10370128 10255919 
3546.288 10143707 10035695 9934590 9841679 9757495 9680511 9606691 9531562 
3550.145 9450284 9359269 9257477 9146606 9030959 8915308 8803780 8698838 
3554.002 8600445 8506703 8415346 8324548 8233263 8141760 8050818 7961076 
3557.860 7873140 7787212 7703696 7622893 7545579 7472929 7405820 7345022 
3561.717 7290298 7240668 7194413 7148600 7099694 7043418 6975129 6891196 
3565.575 6789509 6671628 6542274 6409664 6283381 6170980 6076720 6000452 
3569.432 5938340 5884632 5833820 5781569 5725161 5663692 5597298 5527592 
3573.290 5455782 5384320 5315084 5250453 5191231 5137650 5087795 5038920 
3577.147 4987368 4930259 4866289 4796230 4722633 4649215 4579594 4516545 
3581.004 4461072 4413371 4372771 4338399 4308782 4282480 4256581 4226936 
3584.862 4188896 4137043 4067571 3979617 3876236 3764323 3653174 3552610 
3588.719 3468601 3403911 3356693 3322235 3294256 3266580 3233631 3191672 
3592.577 3138904 3075497 3004092 2929197 2855214 2786547 2725826 2673381 
3596.434 2628242 2587809 2549079 2509585 2467363 2421580 2371837 2318802 
3600.292 2263642 2208389 2155207 2106993 2065743 2032951 2008351 1989943 
3604.149 1975297 1960419 1941115 1914157 1876818 1828036 1768347 1700350 
3608.006 1627375 1554146 1484853 1421820 1365078 1312399 1260390 1205730 
3611.864 1146691 1083740 1020533 962117 913471 877446 853874 839466 828278 
3616.203 813473 789240 750736 696439 627183 547852 465285 387542 321917 
3620.543 273176 242443 227823 224706 227955 232663 236442 238531 240420 
3624.883 243238 247217 248742 241282 215391 161525 75552 -38102 -164181 
3629.222 -281018 -368625 -417950 -432482 -424008 -407357 -394314 -393089 
3633.080 -405536 -429171 -458564 -488187 -514531 -536704 -556494 -576547 
3636.937 -598948 -624657 -652647 -681760 -710309 -737798 -764061 -789231 
3640.794 -813142 -834473 -851074 -860168 -859507 -848131 -827297 -800079 
3644.652 -771701 -748184 -735251 -738360 -760687 -803287 -864236 -939889 
3648.509 -1025281 -1115448 -1204969 -1288095 -1358918 -1411698 -1442147 
3651.885 -1449512 -1436401 -1409056 -1376919 -1350033 -1337217 -1345210 
3655.260 -1375631 -1423785 -1480123 -1533879 -1576073 -1603143 -1616579 
3658.635 -1620837 -1621167 -1621299 -1623115 -1626944 -1631929 -1637342 
3662.010 -1643284 -1649688 -1656784 -1663848 -1669426 -1671308 -1667776 
3665.385 -1658435 -1644769 -1629717 -1618131 -1615325 -1626878 -1656190 
3668.761 -1703950 -1765862 -1833110 -1892430 -1932181 -1945112 -1932313 
3672.136 -1901238 -1865476 -1840104 -1838521 -1870062 -1935677 -2024732 
3675.511 -2116506 -2188579 -2226951 -2230347 -2208491 -2174699 -2141235 
3678.886 -2114758 -2096755 -2084092 -2072715 -2058832 -2041321 -2021698 
3682.262 -2002273 -1984990 -1970114 -1955832 -1940164 -1921955 -1902689 
3685.637 -1886557 -1879332 -1886953 -1912784 -1956360 -2011474 -2068692 
3689.012 -2118517 -2154060 -2173314 -2178952 -2175161 -2166226 -2155050 
3692.387 -2143345 -2131838 -2120990 -2111032 -2102492 -2095897 -2091248 
3695.763 -2087752 -2084719 -2081157 -2077035 -2072847 -2070374 -2071199 
3699.138 -2077332 -2090225 -2110076 -2135663 -2164479 -2192337 -2214787 
3702.513 -2228171 -2230083 -2220259 -2200315 -2173051 -2142191 -2110999 
3705.888 -2081784 -2056161 -2034923 -2017609 -2004581 -1996435 -1994324 
3709.264 -2000162 -2016092 -2042310 -2077431 -2117594 -2156237 -2186304 
3712.639 -2202128 -2200579 -2181985 -2149972 -2110208 -2068231 -2029679 
3716.014 -1998447 -1976744 -1964540 -1960516 -1962594 -1969191 -1979218 
3719.389 -1992774 -2010551 -2032878 -2058436 -2084554 -2107372 -2123034 
3722.765 -2128871 -2125672 -2115813 -2104503 -2096656 -2095271 -2100514 
3726.140 -2109647 -2117231 -2117165 -2105723 -2082081 -2048807 -2010881 
3729.515 -1974369 -1945112 -1926441 -1919712 -1923604 -1934754 -1950356 
3732.890 -1968960 -1992147 -2023446 -2065790 -2119803 -2180963 -2240401 
3736.266 -2287734 -2313607 -2314958 -2294457 -2258431 -2213501 -2164940 
3739.641 -2115121 -2064504 -2013288 -1963880 -1921229 -1894739 -1895564 
3743.016 -1931653 -2003658 -2097546 -2187854 -2244158 -2248542 -2201700 
3746.391 -2118979 -2022193 -1931257 -1863200 -1827831 -1828293 -1860329 
3749.767 -1914433 -1978393 -2041321 -2095897 -2137311 -2162600 -2170446 
3753.142 -2160226 -2134575 -2097942 -2056985 -2018862 -1988651 -1969685 
3756.517 -1962132 -1963781 -1971763 -1983341 -1997721 -2014179 -2032054 
3759.892 -2048444 -2058733 -2057447 -2041288 -2010353 -1968762 -1923769 
3763.268 -1883555 -1854127 -1838191 -1833704 -1835056 -1835419 -1830404 
3766.643 -1819549 -1806086 -1796583 -1796946 -1810508 -1836805 -1871283 
3770.018 -1906516 -1935513 -1953622 -1959229 -1954908 -1944320 -1931554 
3773.393 -1920173 -1911695 -1906054 -1902228 -1898566 -1893782 -1887844 
3776.769 -1882434 -1879794 -1882994 -1893320 -1909683 -1928981 -1945573 
3780.144 -1953754 -1950455 -1935612 -1912520 -1886195 -1861913 -1842909 
3783.519 -1830305 -1822419 -1816381 -1809551 -1800312 -1789621 -1779622 
3786.894 -1772990 -1771076 -1774673 -1782658 -1793745 -1806548 -1820209 
3790.270 -1834066 -1847363 -1858680 -1865740 -1866466 -1859801 -1846670 
3793.645 -1829843 -1813544 -1801698 -1796352 -1797012 -1799388 -1797276 
3797.020 -1785562 -1761539 -1727151 -1688306 -1653616 -1632820 -1633216 
3800.395 -1657478 -1700782 -1751639 -1793251 -1811762 -1801038 -1764740 
3803.771 -1713983 -1662891 -1626779 -1617437 -1640907 -1694808 -1768040 
3807.146 -1843602 -1903613 -1937525 -1943099 -1926078 -1894739 -1856667 
3810.521 -1816711 -1776191 -1734115 -1690220 -1645397 -1604134 -1573663 
3813.896 -1560391 -1569767 -1600667 -1645232 -1688273 -1713950 -1711706 
3817.271 -1680483 -1628595 -1570394 -1522521 -1499110 -1509775 -1555637 
3820.647 -1628991 -1712696 -1785463 -1831922 -1845317 -1829843 -1796385 
3824.022 -1757678 -1724676 -1703983 -1697382 -1701970 -1711937 -1720551 
3827.397 -1723125 -1718670 -1709099 -1697811 -1688471 -1682266 -1678602 
3830.772 -1674278 -1665102 -1648202 -1621927 -1587429 -1547250 -1505516 
3834.148 -1466287 -1433627 -1411401 -1403012 -1410806 -1435377 -1474807 
3837.523 -1523247 -1573200 -1615952 -1645595 -1660052 -1661339 -1654078 
3840.898 -1644637 -1638498 -1639356 -1648763 -1665994 -1688372 -1712069 
3844.273 -1733224 -1747712 -1752761 -1746425 -1728274 -1698735 -1659227 
3847.649 -1611264 -1556429 -1495346 -1429763 -1361627 -1295363 -1238274 
3851.024 -1200574 -1194131 -1230113 -1312078 -1432702 -1568479 -1689923 
3854.399 -1772000 -1804833 -1793548 -1752266 -1696524 -1638135 -1585151 
3857.774 -1541241 -1506837 -1481048 -1462424 -1450139 -1442973 -1440793 
3861.150 -1442643 -1447761 -1455852 -1467113 -1481807 -1499771 -1518757 
3864.525 -1533317 -1536916 -1523313 -1489732 -1439142 -1380222 -1325094 
3867.900 -1286741 -1274682 -1291762 -1332361 -1381709 -1421903 -1440859 
3871.275 -1435245 -1411995 -1383360 -1362056 -1356672 -1369125 -1393962 
3874.651 -1420846 -1439208 -1441586 -1426626 -1398553 -1366086 -1337811 
3878.026 -1322055 -1323971 -1343625 -1376953 -1414472 -1445384 -1460013 
3881.401 -1452319 -1423257 -1379562 -1332130 -1292522 -1271610 -1275244 
3884.776 -1302168 -1343162 -1383195 -1406546 -1402681 -1370611 -1317133 
3888.152 -1255355 -1198559 -1159170 -1145092 -1158971 -1196510 -1248714 
3891.527 -1304183 -1351718 -1384384 -1399874 -1399709 -1387456 -1367110 
3894.902 -1342237 -1315349 -1288194 -1262029 -1237977 -1216798 -1199616 
3898.277 -1186332 -1177080 -1170240 -1164490 -1158046 -1150347 -1141523 
3901.653 -1133889 -1129956 -1132005 -1140598 -1154841 -1171727 -1187324 
3905.028 -1197964 -1202226 -1200442 -1195254 -1189240 -1184879 -1183656 
3908.403 -1185308 -1188712 -1192776 -1196411 -1199054 -1201103 -1202358 
3911.778 -1202127 -1199517 -1193040 -1182268 -1167762 -1151701 -1136863 
3915.154 -1126354 -1121793 -1122454 -1125991 -1128403 -1125660 -1115712 
3918.529 -1098461 -1075589 -1050171 -1025049 -1002637 -984554 -971694 
3921.904 -965148 -965313 -972686 -986901 -1006009 -1027330 -1046767 -1061410 
3925.761 -1069474 -1070863 -1068152 -1064120 -1061542 -1061542 -1064318 
3929.137 -1068648 -1072945 -1076415 -1079192 -1082332 -1087025 -1093404 
3932.512 -1100113 -1105070 -1105203 -1098494 -1084315 -1063756 -1039792 
3935.887 -1015628 -993976 -976653 -963793 -954238 -946402 -938996 -931723 
3939.745 -925408 -922167 -923986 -932648 -948254 -969181 -992125 -1012918 
3943.602 -1027595 -1033578 -1031198 -1022174 -1010174 -998868 -991629 
3946.977 -989645 -992488 -997645 -1002240 -1003166 -998835 -988819 -974306 
3950.835 -957247 -939228 -921969 -906296 -892508 -881100 -871941 -865492 
3954.692 -861458 -859904 -859904 -860797 -861888 -862913 -863674 -864699 
3958.550 -866716 -870023 -875214 -881828 -889036 -896377 -903320 -908875 
3962.407 -913174 -915654 -916216 -914827 -911322 -905668 -898030 -888441 
3966.264 -876702 -863111 -847767 -830802 -813076 -795581 -779308 -765251 
3970.122 -754138 -745769 -740080 -736210 -733564 -731943 -731381 -731943 
3973.979 -733762 -736971 -741172 -745869 -751029 -756288 -762308 -769320 
3977.837 -777026 -785394 -793497 -800443 -805337 -808115 -808645 -807619 
3981.694 -805899 -803882 -801765 -799186 -795746 -791116 -785493 -778779 
3985.552 -770973 -762308 -752153 -740543 -727510 -713749 -700947 -690825 
3989.409 -685168 -684705 -689568 -698400 -709515 -721424 -732406 -742032 
3993.266 -750102 -756619 -761315 -763631 -763068 -759199 -752219 -743388 
3997.124 -734060 -726121 -720795 -718414 -718579 -719671 -720365 -719042 
##END=
