
##TITLE=Z305_1_b
##JCAMP-DX=5.01  $$ Nicolet v. 1
##DATATYPE=INFRARED SPECTRUM
##ORIGIN=UniL
##OWNER=Nicolet
##LONGDATE=2011/09/08
##TIME=14:33:10
##SPECTROMETER/DATA SYSTEM=Nicolet iS5
##DATA PROCESSING=
Ratio against background
%Transmittance->Absorbance
Truncated
ElementMultiply or ElementDivide
##COMMENTS=
Number of sample scans: 32
Collection length: 51.20 sec
Sample gain: 2.0
Background collected on: Jeu Sep 08 14:27:12 2011 (GMT+02:00);
Number of background scans: 32
Background gain: 2.0
Sample spacing:  1.000
Number of scan points: 12415
Resolution points: 8192
Number of FFT points: 65536
Apodization: N-B fort;
Phase correction: Mertz;
Laser frequency: 15798.0 cm-1
Number of rejected sample scans: 0
Number of rejected background scans: 0
Bench serial number: ASB1000141;
##RESOLUTION=4.000
##XUNITS=1/CM
##YUNITS=ABSORBANCE
##FIRSTX=649.893372
##LASTX=4000.122314
##FIRSTY=0.133672
##MAXX=4000.122314
##MINX=649.893372
##MAXY=0.279840
##MINY=-0.000432
##XFACTOR=1.000000
##YFACTOR=1.000000E-009
##NPOINTS=6950
##DELTAX=0.482117
##ZPD=6100
##XYDATA=(X++(Y..Y))
649.893 133671640 133801344 134040160 134372496 134758384 135154384 
652.786 135537680 135921792 136345872 136855776 137473184 138184080 
655.679 138941600 139691520 140394992 141045232 141662448 142275408 
658.571 142896784 143513120 144086016 144572384 144947392 145211168 
661.464 145386368 145502336 145581776 145632704 145653280 145642144 
664.357 145603744 145545312 145462912 145325552 145064128 144573712 
667.250 143763360 142619280 141251584 139847680 138574368 137498368 
670.142 136586272 135747840 134881632 133915264 132817832 131605536 
673.035 130322408 129019424 127725888 126442136 125150320 123832848 
675.928 122490328 121146472 119836144 118589016 117416736 116310328 
678.820 115250752 114224400 113234008 112299328 111447168 110694664 
681.713 110041496 109469672 108953872 108474400 108026992 107621688 
684.606 107274320 106992752 106768560 106577984 106392408 106191968 
687.498 105974328 105755568 105559688 105406776 105301488 105231952 
690.391 105177616 105122824 105066616 105024744 105021752 105080120 
693.284 105209448 105403984 105646360 105918928 106213296 106532208 
696.177 106885344 107279568 107710032 108157456 108593768 108987464 
699.069 109315928 109567312 109737320 109822472 109814840 109699568 
701.962 109462640 109098032 108614112 108033112 107384360 106693704 
704.855 105975304 105230856 104455400 103646872 102811464 101965592 
707.747 101128184 100314176 99527768 98762632 98007968 97257232 96513576 
711.122 95789208 95099296 94452800 93846416 93264824 92686024 92089648 
714.497 91465120 90812864 90140168 89454112 88756536 88042176 87304080 
717.872 86538560 85751824 84958328 84179312 83433936 82733360 82080112 
721.247 81467928 80888296 80331408 79788328 79249592 78702216 78130752 
724.621 77520544 76863248 76161456 75431160 74697840 73987048 73318920 
727.996 72702024 72133696 71604992 71107056 70636352 70195296 69789928 
731.371 69425264 69102080 68816752 68563656 68338632 68142016 67977624 
734.746 67850464 67762848 67711968 67690432 67689816 67703720 67730360 
738.121 67772032 67831792 67909544 68001256 68097720 68188968 68267784 
741.496 68331536 68380864 68417128 68438000 68436600 68403560 68329792 
744.870 68212304 68054352 67863984 67647920 67406416 67130368 66804320 
748.245 66412108 65943344 65399692 64794212 64148052 63482800 62815688 
751.620 62157480 61512252 60881436 60265584 59666756 59086372 58524916 
754.995 57980208 57448736 56926944 56415284 55917380 55439808 54989540 
758.370 54570952 54184040 53825780 53491356 53177640 52883680 52610828 
761.744 52360384 52131948 51922408 51727748 51544448 51372708 51215616 
765.119 51079672 50970968 50892728 50845124 50825120 50828880 50853392 
768.494 50896900 50957892 51032864 51115712 51198912 51275828 51345220 
771.869 51412504 51489232 51585788 51705804 51839368 51962028 52037772 
775.244 52027800 51903736 51652956 51284292 50821952 50301992 49761288 
778.619 49229048 48727600 48268344 47855520 47487508 47160184 46867056 
781.993 46600796 46354904 46124584 45908496 45708272 45527932 45372536 
785.368 45245100 45146488 45075172 45028048 45002764 44998136 45014376 
788.743 45052052 45111268 45191268 45290552 45409060 45548428 45713092 
792.118 45909124 46141980 46414632 46726416 47072840 47445780 47835688 
795.493 48231388 48619188 48983964 49306988 49567448 49747280 49832412 
798.867 49817920 49709084 49520544 49273216 48988712 48689012 48392744 
802.242 48114516 47866872 47658608 47494200 47373864 47293092 47245216 
805.617 47223604 47224600 47249312 47301960 47386576 47502628 47641116 
808.992 47785420 47911936 47995820 48017544 47964440 47833176 47626772 
812.367 47353024 47020736 46639196 46219552 45774976 45319864 44870076 
815.742 44438368 44032724 43655884 43305400 42977480 42668920 42379760 
819.116 42112844 41873124 41664060 41487436 41341856 41224196 41130756 
822.491 41059116 41007800 40976816 40965816 40973972 40999392 41039960 
825.866 41093968 41159280 41233600 41312852 41389928 41455864 41501616 
829.241 41519588 41506176 41462428 41394084 41308184 41211884 41111236 
832.616 41010388 40912984 40822668 40743148 40677132 40624920 40583372 
835.990 40545756 40504148 40451880 40386128 40309012 40226780 40147580 
839.365 40078208 40022072 39978912 39946252 39921296 39902624 39891328 
842.740 39890348 39902844 39931212 39976004 40036680 40111968 40201084 
846.115 40303452 40418532 40544848 40679792 40820304 40963124 41106280 
849.490 41249736 41394884 41543544 41696920 41855316 42017928 42184220 
852.865 42354444 42530400 42714580 42909516 43116104 43333628 43559832 
856.239 43792564 44030484 44274812 44527568 44791752 45069584 45361276 
859.614 45666564 45984848 46316084 46662332 47026056 47409048 47810832 
862.989 48227168 48651208 49073176 49483412 49873404 50235704 50565248 
866.364 50858456 51113512 51331236 51516244 51676840 51824244 51971624 
869.739 52131088 52311944 52520440 52759860 53031120 53334168 53667688 
873.113 54028060 54407928 54795604 55176932 55536116 55860512 56142768 
876.488 56381816 56582688 56753708 56904772 57044780 57181848 57324668 
879.863 57481644 57662060 57875068 58126552 58419304 58752272 59121296 
883.238 59521340 59948152 60399100 60872132 61365184 61874804 62395424 
886.613 62921540 63448936 63976096 64504704 65037728 65577492 66123532 
889.987 66672332 67217848 67754952 68279800 68791360 69289992 69775344 
893.362 70243976 70690240 71105808 71483064 71817288 72105888 72348096 
896.737 72542080 72682800 72761608 72768544 72694744 72536088 72294904 
900.112 71980104 71604208 71182384 70731024 70264744 69799072 69348640 
903.487 68926160 68542120 68202808 67909848 67661352 67453288 67281912 
906.862 67145560 67044204 66978752 66950032 66956872 66997044 67067528 
910.236 67166136 67292624 67447712 67631896 67843496 68076904 68324248 
913.611 68575680 68822688 69060160 69286760 69505160 69719312 69934544 
916.986 70156384 70390416 70643880 70924592 71240080 71595536 71991672 
920.361 72423056 72878928 73345904 73810992 74263528 74697760 75111552 
923.736 75506344 75884912 76252016 76614512 76981392 77363440 77771096 
927.110 78210480 78680456 79169064 79655080 80107536 80490224 80768680 
930.485 80909368 80886976 80686560 80305768 79758464 79073808 78298448 
933.860 77486992 76695520 75976392 75366240 74885952 74541640 74329024 
937.235 74238128 74258656 74382352 74600848 74903432 75276112 75698232 
940.610 76145312 76593448 77020128 77408464 77748592 78036840 78275312 
943.985 78471408 78638160 78792264 78952824 79139880 79369024 79650264 
947.359 79987176 80377456 80816816 81300880 81828048 82398520 83013224 
950.734 83671136 84368960 85100512 85859936 86643312 87450352 88283824 
954.109 89147576 90043912 90972008 91928168 92908432 93909840 94932608 
957.484 95978584 97049864 98145560 99261552 100390952 101526632 102664928 
960.859 103806872 104957240 106121104 107301000 108495072 109697736 
963.751 110902328 112105160 113307248 114514096 115732576 116967176 
966.644 118218488 119483720 120759944 122047568 123352264 124684384 
969.537 126056296 127477672 128953920 130486680 132076888 133728264 
972.429 135450336 137255968 139159936 141173792 143303360 145549536 
975.322 147910352 150385216 152975520 155683920 158509584 161443392 
978.215 164465840 167548928 170657248 173756240 176813984 179798096 
981.108 182675776 185408208 187949552 190256000 192290688 194034000 
984.000 195487104 196669984 197614464 198352416 198914000 199325200 
986.893 199610496 199799712 199928704 200033968 200151392 200306912 
989.786 200514928 200782928 201115408 201520288 202011152 202603232 
992.678 203307760 204125872 205046608 206050096 207113616 208219392 
995.571 209357008 210520464 211703552 212893136 214066704 215197760 
998.464 216260160 217236416 218120704 218916048 219627584 220257072 
1001.356 220801040 221253680 221613744 221890496 222104048 222280720 
1004.249 222446928 222620464 222809184 223016016 223245056 223509088 
1007.142 223831376 224238688 224755104 225392832 226148816 227007392 
1010.035 227947344 228950720 230004304 231099568 232227872 233375056 
1012.927 234522448 235652720 236756160 237838160 238917680 240022304 
1015.820 241174512 242383120 243639360 244921184 246202176 247461088 
1018.713 248689152 249887776 251064512 252226416 253379312 254530704 
1021.605 255693824 256893136 258161632 259529856 261018336 262626624 
1024.498 264333600 266100736 267886496 269655456 271379488 273036928 
1027.391 274603680 276043584 277312160 278360448 279145152 279641056 
1030.284 279839520 279743264 279355936 278674400 277686528 276380672 
1033.177 274753632 272820960 270614240 268177536 265554048 262777712 
1036.070 259875600 256871936 253796672 250694576 247621072 244634720 
1038.963 241792336 239136080 236695936 234495312 232555200 230900464 
1041.856 229559056 228553056 227892976 227571088 227563424 227834384 
1044.750 228347168 229073424 229992176 231088480 232346352 233741744 
1047.643 235242480 236813840 238422176 240042128 241656848 243249168 
1050.536 244796704 246265728 247610400 248785600 249754608 250497824 
1053.429 251013792 251311488 251399424 251275872 250926144 250326448 
1056.322 249453920 248289296 246820432 245038416 242931872 240486720 
1059.215 237691872 234547952 231078336 227330464 223375840 219293552 
1062.108 215157584 211033328 206967600 202996048 199150144 195456608 
1065.001 191939920 188617632 185494288 182561248 179798704 177183888 
1067.894 174696416 172323632 170060176 167903712 165849584 163887504 
1070.787 162001312 160174032 158391616 156645456 154931696 153247088 
1073.680 151585248 149934816 148281712 146613456 144925840 143224928 
1076.573 141527200 139853712 138225856 136662256 135176400 133780376 
1079.466 132486312 131306944 130254688 129337144 128553512 127893496 
1082.359 127339808 126874312 126481768 126155528 125896800 125712472 
1085.252 125609400 125592816 125664264 125823912 126072960 126414864 
1088.146 126854120 127393472 128029408 128751488 129542128 130380552 
1091.039 131249040 132134568 133030328 133933800 134842816 135753632 
1093.932 136661936 137564624 138463328 139365680 140283520 141227920 
1096.825 142204480 143210032 144233200 145257920 146266416 147243872 
1099.718 148176880 149050976 149848896 150548928 151128048 151569344 
1102.611 151865408 152022704 152057696 151993600 151852432 151650368 
1105.504 151399456 151108928 150787712 150447056 150096000 149737424 
1108.397 149362304 148948624 148463824 147868176 147125072 146203136 
1111.290 145077280 143730016 142148480 140326320 138266752 135987376 
1114.183 133523912 130924360 128248376 125556576 122898808 120315920 
1117.076 117835336 115473088 113239560 111139656 109173432 107334848 
1119.969 105610736 103981712 102422824 100909344 99418736 97931240 96431984 
1123.344 94907544 93345504 91736384 90074736 88362720 86611440 84841296 
1126.720 83078688 81349624 79678848 78085256 76581472 75175880 73872656 
1130.095 72672576 71572056 70562168 69629184 68753976 67917408 67103140 
1133.470 66300892 65509336 64735556 63993528 63299796 62672540 62129760 
1136.845 61686900 61358160 61155148 61085084 61150304 61346868 61665360 
1140.221 62091456 62608584 63201444 63855180 64557024 65295824 66059060 
1143.596 66834344 67609392 68373456 69120104 69847096 70556712 71253320 
1146.971 71941696 72626864 73313192 74006656 74715944 75450792 76222080 
1150.346 77038048 77901944 78811416 79759536 80737840 81738888 82757976 
1153.722 83792720 84840728 85897488 86954808 88000592 89021960 90006200 
1157.097 90941280 91815536 92614912 93319992 93907664 94351000 94622720 
1160.472 94701048 94569000 94215064 93632288 92814840 91759008 90464512 
1163.847 88936560 87188560 85239992 83116928 80847184 78456840 75972448 
1167.223 73419272 70822824 68211648 65613948 63056372 60562716 58150148 
1170.598 55830632 53611676 51497852 49492396 47598336 45818240 44153124 
1173.973 42602688 41164564 39834708 38608132 37479776 36444172 35495448 
1177.348 34627804 33834484 33109154 32445866 31840534 31290766 30796894 
1180.724 30360364 29982774 29665462 29407768 29208236 29064164 28973054 
1184.099 28932748 28942026 28999654 29104586 29254838 29447834 29680256 
1187.474 29948372 30248022 30574858 30923290 31286456 31656842 32026262 
1190.849 32387424 32735490 33068176 33385980 33691124 33986488 34274880 
1194.225 34557728 34836304 35110892 35381736 35648396 35909856 36163552 
1197.600 36405760 36632100 36837628 37017752 37168568 37286144 37366516 
1200.975 37405592 37399164 37343772 37238052 37082308 36878172 36627120 
1204.350 36329024 35980804 35576500 35108484 34570284 33957964 33272638 
1207.726 32520392 31712942 30866366 29998926 29131126 28284222 27476982 
1211.101 26727228 26048806 25451014 24939134 24514198 24173706 23912668 
1214.476 23725196 23605358 23547390 23546692 23598674 23698846 23843178 
1217.851 24027654 24248188 24501964 24786230 25098904 25437804 25800842 
1221.227 26186004 26591832 27017538 27463286 27929776 28417564 28926372 
1224.602 29454890 30000916 30561704 31134932 31718184 32309428 32905628 
1227.977 33502356 34093852 34673124 35232764 35766028 36266992 36729984 
1231.352 37149436 37519440 37833432 38086484 38275952 38403168 38473904 
1234.728 38498196 38489072 38460944 38429700 38411312 38421196 38475460 
1238.103 38587956 38770764 39032520 39377720 39806708 40316100 40899988 
1241.478 41550216 42256304 43006124 43783700 44569568 45342888 46081180 
1244.853 46764204 47376748 47908572 48355072 48716736 48997872 49205672 
1248.229 49349864 49442120 49494288 49515940 49512596 49483780 49422516 
1251.604 49317420 49156244 48928668 48629228 48258272 47821300 47327156 
1254.979 46785900 46208424 45605028 44984828 44356344 43726160 43098104 
1258.354 42473836 41852652 41233416 40615388 39999836 39390308 38792212 
1261.729 38211508 37653732 37123448 36624600 36160780 35736240 35355532 
1265.105 35022812 34741352 34512380 34334796 34205864 34122164 34080732 
1268.480 34079800 34118868 34198048 34316400 34472024 34660888 34877484 
1271.855 35115956 35369656 35632748 35899744 36165032 36423920 36673056 
1275.230 36911324 37140632 37365580 37591908 37823312 38060116 38296220 
1278.606 38520792 38718564 38872940 38970388 39001124 38961184 38852284 
1281.981 38681544 38459824 38200364 37918576 37629052 37344488 37075128 
1285.356 36826992 36603796 36407636 36240628 36106160 36008952 35953552 
1288.731 35943080 35977060 36051360 36158336 36288244 36432428 36583976 
1292.107 36739324 36897292 37059032 37226680 37402952 37591908 37798116 
1295.482 38026984 38284784 38576372 38905332 39273392 39680464 40126504 
1298.857 40612112 41138880 41708628 42322960 42981320 43680472 44415536 
1302.232 45181304 45973024 46788040 47624888 48482164 49357324 50246120 
1305.608 51143036 52042964 52942852 53841424 54739300 55636024 56528716 
1308.983 57411524 58275932 59112036 59911328 60666300 61370032 62015504 
1312.358 62593356 63092196 63501360 63811576 64017488 64117752 64113064 
1315.733 64004548 63792384 63476012 63056604 62539816 61937888 61268912 
1319.109 60554220 59816328 59073728 58340392 57626224 56937520 56279928 
1322.484 55658808 55079236 54545932 54062472 53631920 53257640 52944352 
1325.859 52698844 52529564 52445100 52450856 52547924 52731840 52993724 
1329.234 53320796 53699408 54116024 54555848 55003940 55443684 55856856 
1332.610 56226864 56539736 56786332 56962792 57069456 57108904 57083584 
1335.985 56995812 56847624 56641576 56381480 56072604 55720588 55330988 
1339.360 54908652 54457768 53982660 53487760 52977624 52456200 51926176 
1342.735 51388780 50845200 50297008 49748840 49208528 48685936 48192180 
1346.111 47737336 47328380 46969492 46662992 46410796 46215536 46081772 
1349.486 46014096 46016236 46089180 46229648 46430152 46680668 46970160 
1352.861 47287440 47622516 47966696 48310928 48647500 48969500 49272436 
1356.236 49555748 49821932 50075412 50319476 50553520 50771820 50964636 
1359.612 51119252 51224152 51272320 51262480 51200592 51098492 50974176 
1362.987 50848364 50741396 50671872 50652140 50687324 50774168 50902228 
1366.362 51055744 51214832 51360960 51478676 51556276 51586648 51563812 
1369.737 51480240 51326540 51091188 50763256 50335964 49809224 49191716 
1373.113 48499984 47759344 46998880 46246236 45524548 44846672 44214644 
1376.488 43621848 43056392 42506172 41962236 41422112 40890088 40375912 
1379.863 39890388 39443244 39040092 38681652 38364404 38081164 37821936 
1383.238 37572688 37315460 37029912 36692484 36281688 35783476 35196868 
1386.614 34538712 33841648 33148776 32499250 31918872 31418052 30992638 
1389.989 30631638 30321172 30048634 29802850 29573482 29351184 29127582 
1393.364 28898254 28664408 28434792 28223224 28043038 27902604 27801388 
1396.739 27731980 27682642 27642808 27606898 27575758 27556304 27556798 
1400.115 27583948 27638358 27715344 27805944 27901366 27994302 28080788 
1403.490 28161350 28239700 28321638 28412966 28518216 28639952 28778996 
1406.865 28934766 29105756 29289788 29484464 29687138 29896902 30114152 
1410.240 30341922 30585382 30850750 31143190 31465680 31818676 32200112 
1413.615 32607284 33037104 33487648 33957860 34446304 34951452 35471216 
1416.991 36002868 36545800 37102300 37677436 38276208 38901096 39548152 
1420.366 40205660 40859220 41493960 42099004 42666072 43191420 43675084 
1423.741 44119456 44528412 44905896 45254992 45575548 45864784 46116480 
1427.116 46322352 46472704 46558232 46573168 46516628 46393688 46213840 
1430.492 45990156 45736948 45467556 45194760 44928128 44672420 44426476 
1433.867 44182724 43928372 43649988 43340656 43008316 42682484 42406644 
1437.242 42223620 42159136 42213032 42364528 42581600 42831292 43081856 
1440.617 43306424 43486068 43607928 43664568 43652404 43568440 43410152 
1443.993 43176232 42867604 42488852 42047316 41552948 41017452 40455116 
1447.368 39885448 39332224 38820872 38373488 38002356 37708556 37484364 
1450.743 37318496 37200656 37124748 37089164 37093280 37132656 37195744 
1454.118 37259604 37290476 37249892 37099160 36818012 36420356 35959312 
1457.494 35504368 35108448 34789596 34536088 34324936 34135356 33956428 
1460.869 33784340 33617868 33452716 33278610 33080012 32842082 32557066 
1464.244 32231766 31886958 31551470 31250388 30995878 30787540 30616314 
1467.619 30471738 30344906 30229088 30117028 29996832 29850510 29654784 
1470.995 29386034 29030898 28595322 28108430 27611240 27140580 26714754 
1474.370 26332116 25979890 25645770 25326800 25030526 24770934 24559882 
1477.745 24402414 24293108 24220546 24170694 24133458 24105018 24087856 
1481.120 24088838 24115596 24175320 24272962 24413068 24601222 24843730 
1484.496 25147318 25516228 25949990 26439892 26968422 27511470 28037488 
1487.871 28510044 28892090 29145618 29238146 29150792 28883698 28458778 
1491.246 27911860 27283874 26606592 25896774 25158344 24385694 23571632 
1494.621 22717720 21838966 20967064 20147302 19424048 18829658 18377020 
1497.997 18061720 17868194 17777090 17770048 17828594 17934074 18068868 
1501.372 18214832 18356004 18478864 18569252 18610510 18579938 18444292 
1504.747 18161658 17690940 17009836 16141651 15165113 14188471 13298775 
1508.122 12531234 11872776 11289952 10748767 10227931 9720120 9229892 
1511.498 8767839 8343801 7964146 7629064 7334104 7072784 6838650 6626207 
1515.355 6431253 6251917 6089287 5947644 5832913 5749805 5698639 5673058 
1519.212 5660302 5642678 5604145 5536551 5446723 5355102 5286977 5259073 
1523.070 5271917 5312971 5363454 5407569 5436087 5450045 5457862 5471787 
1526.927 5500712 5546888 5606796 5674837 5747556 5824920 5909419 6002939 
1530.785 6104038 6207010 6303182 6384882 6450691 6508773 6575577 6667019 
1534.642 6791865 6947150 7121755 7300643 7469626 7618375 7738773 7825703 
1538.500 7875737 7887345 7861871 7805260 7730408 7653648 7589477 7546017 
1542.357 7522181 7508730 7492110 7461637 7412190 7348156 7280425 7221532 
1546.214 7178816 7150857 7128054 7097168 7047392 6974657 6884060 6788466 
1550.072 6703425 6639328 6597914 6572785 6554182 6534236 6510052 6485600 
1553.929 6469087 6468482 6486844 6520781 6560002 6590714 6595458 6555259 
1557.787 6454760 6290508 6082499 5872340 5706025 5609146 5580416 5602299 
1561.644 5651641 5707737 5753264 5777137 5775390 5752424 5719017 5688634 
1565.501 5672622 5674401 5690044 5709584 5722442 5720058 5700150 5666949 
1569.359 5630762 5604615 5598237 5617168 5661107 5726538 5807593 5896690 
1573.216 5985234 6062037 6116001 6138617 6128838 6096881 6062877 6050680 
1577.074 6075376 6138853 6231816 6340702 6453213 6561044 6661467 6754946 
1580.931 6844473 6932235 7019812 7106800 7192459 7275978 7357188 7436087 
1584.789 7511933 7583273 7647780 7703359 7749263 7787144 7820812 7855325 
1588.646 7895206 7944033 8003632 8074716 8157933 8254402 8364742 8488254 
1592.503 8621737 8758237 8888421 9002542 9092804 9155234 9190633 9203797 
1596.361 9201496 9190328 9175742 9161766 9151242 9147012 9152121 9169143 
1600.218 9199499 9242855 9296674 9357915 9423702 9493020 9566009 9643752 
1604.076 9726252 9811718 9896047 9973884 10039729 10089714 10122000 10136889 
1607.933 10135464 10119050 10087781 10041628 9981037 9908658 9829647 9751802 
1611.791 9682815 9628270 9590025 9564993 9546499 9524958 9491124 9437145 
1615.648 9360387 9265804 9166097 9078594 9017833 8992427 9002576 9041716 
1619.505 9099809 9164710 9224714 9269188 9291394 9289871 9270271 9243498 
1623.363 9222175 9217166 9232837 9267394 9314954 9368817 9422652 9472735 
1627.220 9517372 9557033 9593853 9630912 9671702 9720120 9778675 9848457 
1631.078 9928420 10015011 10101584 10179559 10239126 10269625 10262772 
1634.453 10215786 10134922 10037288 9946083 9882895 9858185 9870218 9908081 
1638.310 9958763 10009144 10049936 10077098 10091817 10100024 10109181 
1641.686 10126172 10153916 10190480 10228575 10258090 10267861 10247233 
1645.061 10189429 10094224 9969815 9832934 9705075 9608148 9555543 9551682 
1648.918 9591007 9661640 9745940 9820055 9855880 9819005 9677258 9419469 
1652.776 9078662 8732677 8461190 8303101 8245352 8250350 8279258 8304654 
1656.633 8312119 8296718 8260920 8210234 8150708 8085957 8015749 7937183 
1660.490 7846013 7738470 7613755 7474783 7329116 7187878 7061974 6960449 
1664.348 6886685 6838818 6810006 6789981 6766994 6728798 6664966 6569286 
1668.205 6441813 6290003 6127326 5971327 5836607 5732346 5660235 5615523 
1672.063 5588471 5566253 5535478 5483431 5401698 5290834 5162427 5037579 
1675.920 4936962 4872957 4844912 4841762 4848094 4851009 4844509 4830203 
1679.778 4816533 4812781 4824440 4848262 4871282 4872756 4831509 4733519 
1683.635 4584416 4412567 4260161 4160326 4121923 4132695 4170897 4217501 
1687.492 4258120 4285257 4297204 4295530 4284756 4270969 4261332 4262838 
1691.350 4281007 4317650 4369323 4426660 4474630 4496357 4477408 4413471 
1695.207 4317048 4217066 4147580 4128179 4157114 4212214 4262938 4276055 
1699.065 4225899 4107105 3942635 3779163 3662229 3613313 3623437 3667342 
1702.922 3715796 3746208 3744470 3706038 3635933 3546930 3455008 3372588 
1706.780 3305674 3254061 3213502 3179322 3147815 3117778 3089112 3062884 
1710.637 3039793 3020107 3003392 2989212 2977035 2967160 2959520 2953882 
1714.494 2948612 2940238 2923092 2891003 2840039 2771407 2693951 2622209 
1718.352 2572010 2552911 2565877 2603908 2656011 2709588 2754601 2784813 
1722.209 2798218 2797051 2786080 2771607 2758769 2750533 2748032 2750333 
1726.067 2755968 2762404 2767373 2768573 2764405 2755668 2744965 2737596 
1729.924 2738929 2752000 2775142 2800753 2815393 2802220 2748032 2649878 
1733.781 2522716 2396358 2304012 2264608 2276765 2323799 2383931 2437607 
1737.639 2469763 2472895 2447837 2403488 2353015 2309342 2280363 2267373 
1741.496 2266107 2270903 2276765 2281628 2285259 2289123 2295019 2303779 
1745.354 2315505 2329695 2345552 2362376 2379733 2396658 2411585 2422380 
1749.211 2426278 2421514 2408719 2391527 2376601 2372504 2385797 2418948 
1753.069 2469629 2531281 2594675 2649811 2688417 2706187 2703953 2688183 
1756.926 2669013 2655878 2653911 2662546 2676181 2686850 2686650 2670613 
1760.783 2638710 2595875 2550712 2513085 2490657 2486958 2501121 2528648 
1764.641 2563377 2598475 2627342 2645577 2651378 2647344 2639176 2634943 
1768.498 2641010 2658778 2683982 2706987 2716456 2702720 2662146 2600542 
1772.356 2532014 2473362 2436541 2424879 2433442 2453101 2474994 2494156 
1776.213 2509519 2523049 2536780 2551245 2564144 2571443 2569643 2557711 
1780.071 2538647 2518983 2505720 2502954 2510685 2524383 2537747 2545146 
1783.928 2544013 2535714 2524982 2517584 2518217 2528748 2548779 2576009 
1787.785 2607575 2640710 2671914 2696952 2710522 2706921 2681749 2634243 
1791.643 2569843 2499155 2435175 2389362 2366540 2365408 2379333 2400156 
1795.500 2421314 2438107 2448703 2453268 2452502 2446804 2436541 2421747 
1799.358 2402655 2381566 2361343 2344919 2334992 2332127 2335359 2342921 
1803.215 2352915 2363842 2375502 2388029 2401623 2416249 2431476 2446437 
1807.073 2460299 2472095 2481193 2486891 2488457 2485558 2478627 2468563 
1810.930 2457966 2449403 2445138 2446004 2450969 2457400 2461865 2461432 
1814.787 2454968 2443472 2430077 2419015 2413984 2417049 2428144 2444871 
1818.645 2464331 2484258 2503420 2522183 2541913 2563477 2586942 2610108 
1822.502 2629343 2641177 2642677 2633776 2617875 2601275 2591242 2592942 
1826.360 2607675 2631709 2658378 2679015 2685916 2675548 2649244 2613908 
1830.217 2579209 2554545 2545179 2551312 2568377 2590109 2610575 2625476 
1834.074 2633243 2634443 2631076 2625342 2618975 2613442 2609742 2609475 
1837.932 2614242 2626076 2646477 2675414 2711522 2751433 2790382 2823530 
1841.789 2845575 2852479 2842073 2816060 2779544 2740496 2708354 2689483 
1845.647 2686416 2697318 2717023 2739796 2760636 2777143 2789581 2800253 
1849.504 2811891 2826198 2842907 2859083 2871757 2877995 2877327 2871524 
1853.362 2864086 2858483 2857082 2860251 2866187 2872458 2877127 2879229 
1857.219 2879129 2877928 2876060 2873792 2870256 2864920 2857449 2848577 
1861.076 2839706 2832402 2827432 2825165 2825365 2828066 2833902 2843974 
1864.934 2859050 2878161 2898308 2914419 2920323 2911384 2886267 2848144 
1868.791 2804354 2764171 2735428 2721858 2722958 2734628 2752400 2771807 
1872.649 2790115 2806155 2819629 2830634 2839405 2845709 2850011 2852980 
1876.506 2855581 2858549 2862118 2865487 2867421 2867288 2864953 2861685 
1880.364 2859650 2860517 2865053 2872224 2879863 2885766 2889135 2890469 
1884.221 2892504 2898408 2910049 2927462 2947444 2965125 2975367 2974266 
1888.078 2960521 2935835 2905113 2874326 2848977 2833135 2828166 2833202 
1891.936 2845742 2861952 2878462 2891904 2899809 2901644 2898275 2891337 
1895.793 2883832 2878361 2876260 2878295 2884432 2893571 2905113 2918422 
1899.651 2932599 2946910 2960288 2971530 2980004 2985843 2990013 2994317 
1903.508 3000489 3008797 3018573 3027882 3034054 3034955 3029617 3019073 
1907.365 3005394 2991381 2979404 2971030 2966559 2964825 2964925 2965825 
1911.223 2966793 2967894 2969862 2973565 2980204 2990814 3005193 3021976 
1915.080 3038058 3048802 3049536 3037525 3012901 2980838 2949312 2927862 
1918.938 2922859 2935868 2962389 2994650 3022977 3039960 3042896 3032987 
1922.795 3015737 2997653 2983574 2975267 2971731 2970162 2968228 2965792 
1926.653 2964524 2967493 2977469 2995751 3021909 3054108 3089212 3124954 
1930.510 3158996 3189269 3214203 3232696 3243545 3247484 3246316 3242978 
1934.367 3240975 3243011 3250088 3261606 3275594 3289549 3302703 3315090 
1938.225 3327610 3341667 3357327 3372921 3386045 3393625 3393191 3384475 
1942.082 3369449 3350382 3331316 3315624 3304773 3299698 3300900 3308045 
1945.940 3321033 3339163 3361201 3385477 3409554 3432197 3451835 3468301 
1949.797 3481560 3492549 3502303 3511655 3522044 3534671 3550037 3567776 
1953.655 3585984 3601018 3608769 3605963 3591196 3566273 3536542 3508382 
1957.512 3488341 3480024 3483331 3494420 3507580 3517368 3521376 3520207 
1961.369 3518069 3520240 3530863 3552075 3582743 3618659 3653942 3682546 
1965.227 3698853 3699956 3686422 3662831 3636902 3617222 3611141 3621900 
1969.084 3648396 3683114 3716865 3741630 3752358 3750185 3740360 3730467 
1972.942 3727259 3732940 3745640 3760680 3774851 3785981 3798415 3818003 
1976.799 3850561 3899638 3962430 4031551 4098710 4155810 4197962 4224426 
1980.656 4236907 4238379 4232457 4222386 4211044 4202010 4198564 4202077 
1984.514 4213218 4230382 4248785 4265080 4276825 4282748 4285759 4289172 
1988.371 4294560 4302424 4309652 4312263 4307042 4294092 4276390 4260128 
1992.229 4252432 4256447 4272441 4295965 4320762 4341043 4353426 4357643 
1996.086 4356839 4354865 4354798 4358848 4366512 4376218 4385991 4393489 
1999.944 4395564 4389807 4373407 4343787 4301052 4247981 4189364 4133263 
2003.801 4087639 4059243 4052520 4067069 4099446 4144135 4194081 4242360 
2007.658 4283919 4314705 4333547 4342582 4345494 4348908 4358379 4377758 
2011.516 4406810 4441054 4472420 4491938 4493846 4477408 4446845 4411095 
2015.373 4380636 4364102 4366144 4386360 4420668 4463248 4507707 4549558 
2019.231 4584985 4611272 4626877 4631633 4626543 4615558 4603838 4596940 
2023.088 4599618 4613449 4636054 4663214 4689406 4710105 4723236 4730136 
2026.946 4732749 4735027 4740219 4749464 4764606 4786214 4814154 4849100 
2030.803 4890482 4935856 4983446 5029567 5070866 5105765 5133592 5153240 
2034.660 5166217 5172453 5172420 5166954 5158169 5148848 5143048 5144590 
2038.518 5155319 5176041 5203806 5234825 5264170 5288620 5305122 5313877 
2042.375 5315788 5313038 5308074 5303110 5299387 5298548 5301298 5307671 
2046.233 5317801 5331855 5349097 5369124 5391768 5414548 5435080 5449172 
2050.090 5452830 5443569 5421492 5389721 5354967 5324979 5306196 5302674 
2053.948 5313273 5331554 5348862 5356007 5346447 5318438 5275171 5223692 
2057.805 5172118 5128228 5097719 5082968 5084108 5099194 5125244 5158270 
2061.662 5193679 5228152 5258133 5282315 5301198 5316526 5331050 5346481 
2065.520 5362783 5378248 5390292 5395693 5393479 5384220 5370331 5354967 
2069.377 5341013 5329575 5321054 5314748 5309751 5305692 5303344 5302942 
2073.235 5304619 5307805 5310858 5312669 5312938 5311965 5311595 5313541 
2077.092 5317935 5324543 5331352 5335679 5336249 5332895 5326455 5319277 
2080.949 5313273 5309315 5307638 5307671 5308611 5309919 5311965 5314715 
2084.807 5317868 5320283 5320384 5316292 5307000 5292276 5273762 5253002 
2088.664 5231841 5211250 5191399 5171414 5151229 5130877 5111196 5093964 
2092.522 5080890 5072978 5070766 5074386 5083001 5096076 5112739 5131279 
2096.379 5150458 5168128 5182513 5192774 5199078 5202967 5206925 5212726 
2100.237 5221445 5232947 5245590 5257597 5267793 5276009 5282851 5290029 
2104.094 5298179 5307805 5318069 5328132 5336786 5343730 5348862 5352317 
2107.951 5354263 5354263 5351747 5346950 5340376 5334136 5330413 5331252 
2111.809 5337356 5348091 5361140 5374357 5385729 5394486 5401296 5407670 
2115.666 5414313 5421828 5429444 5435349 5438234 5437228 5431893 5423371 
2119.524 5412535 5400222 5387675 5375732 5365568 5359160 5358422 5364192 
2123.381 5376672 5393982 5411562 5425317 5430954 5425183 5407670 5380026 
2127.239 5345240 5307101 5269570 5235429 5207025 5185799 5171850 5165546 
2131.096 5165445 5170274 5178187 5188012 5198642 5211049 5226006 5244283 
2134.953 5266585 5291840 5318204 5343830 5366742 5385058 5398712 5407032 
2138.811 5409348 5404953 5394217 5376906 5354900 5331788 5311026 5297072 
2142.668 5291605 5295026 5305625 5319746 5334673 5348124 5359597 5370097 
2146.526 5382106 5397270 5416862 5440482 5466217 5489974 5506786 5510913 
2150.383 5498162 5466419 5417098 5355504 5289090 5225905 5171682 5129435 
2154.240 5097451 5072710 5053434 5042171 5047668 5081661 5156325 5277049 
2158.098 5437530 5617504 5790568 5930144 6017452 6049202 6034049 5990072 
2161.955 5937130 5891988 5863877 5855682 5864011 5882785 5906665 5930379 
2165.813 5950231 5964238 5971327 5970991 5964742 5955169 5943748 5933301 
2169.670 5923930 5912946 5897227 5873012 5836976 5789863 5735435 5679067 
2173.528 5628211 5588874 5564205 5554674 5556755 5565178 5573770 5576355 
2177.385 5568333 5547928 5516651 5478230 5440046 5409952 5393512 5394486 
2181.242 5411763 5440247 5472660 5502356 5524437 5537491 5543834 5545847 
2185.100 5546150 5546049 5543263 5535075 5519302 5493967 5460849 5422600 
2188.957 5383280 5347923 5318975 5298649 5287513 5284227 5286943 5292678 
2192.815 5298146 5299756 5295261 5284092 5267658 5248709 5231002 5217421 
2196.672 5208970 5205348 5204410 5204108 5203571 5202967 5203940 5208601 
2200.530 5217924 5231304 5246831 5261286 5272018 5277217 5276513 5270777 
2204.387 5260313 5246362 5228822 5207193 5182010 5153609 5123903 5095339 
2208.244 5070799 5052630 5041970 5039288 5043780 5054675 5070464 5088868 
2212.102 5109319 5130172 5150424 5170274 5190326 5210580 5231606 5252667 
2215.959 5271951 5288117 5299823 5306263 5308912 5310053 5311730 5315822 
2219.817 5322094 5329340 5335210 5337491 5335445 5329809 5322665 5316258 
2223.674 5312803 5313005 5316225 5321927 5329004 5337457 5348225 5362415 
2227.531 5380396 5402202 5426022 5449139 5469170 5484740 5495444 5502826 
2231.389 5509806 5518665 5531619 5550042 5572965 5598976 5625593 5650332 
2235.246 5671010 5686956 5697867 5704480 5707938 5708543 5706931 5703070 
2239.104 5696859 5688769 5680443 5673964 5671950 5676650 5688735 5707166 
2242.961 5729324 5750980 5768843 5780293 5784759 5783852 5780024 5776297 
2246.819 5774585 5775928 5779924 5785565 5791139 5795605 5798727 5800440 
2250.676 5802018 5804638 5810044 5819682 5834827 5855212 5880199 5907774 
2254.533 5934443 5957016 5972536 5979288 5977205 5967967 5953926 5938105 
2258.391 5923090 5910696 5901997 5897261 5895548 5896320 5898336 5900149 
2262.248 5901023 5900687 5898738 5896287 5894070 5892995 5893667 5895749 
2266.106 5898638 5901560 5903709 5905154 5906128 5907102 5908109 5908546 
2269.963 5907068 5902299 5893197 5879762 5863440 5846682 5832174 5821864 
2273.821 5817129 5817633 5821831 5827943 5834525 5840267 5844902 5848596 
2277.678 5851518 5853801 5855514 5856119 5855917 5854708 5852928 5851316 
2281.535 5850779 5852055 5855984 5862734 5871635 5881442 5890107 5895145 
2285.393 5894540 5886748 5871668 5850241 5824652 5797485 5770522 5745038 
2289.250 5721301 5698639 5676684 5655200 5634555 5615859 5599949 5587229 
2293.108 5577261 5568837 5560379 5550546 5538431 5524336 5508497 5492524 
2296.965 5477156 5463298 5451823 5443167 5437731 5435483 5436322 5439107 
2300.823 5442563 5444576 5443401 5438067 5428773 5416091 5402067 5387977 
2304.680 5374860 5362918 5351411 5338967 5324677 5308107 5288989 5268161 
2308.537 5246395 5224329 5202599 5181808 5162193 5144288 5128496 5115320 
2312.395 5104659 5096143 5088734 5081627 5073649 5064731 5054474 5043646 
2316.252 5032618 5022160 5012606 5003959 4996317 4989614 4984285 4981201 
2320.110 4981234 4984720 4991289 4999200 5005400 5005534 4995546 4972118 
2323.967 4934247 4883445 4823602 4760854 4701028 4649215 4608426 4578857 
2327.824 4558465 4543565 4530741 4517684 4504057 4491101 4481292 4476940 
2331.682 4479551 4488724 4503488 4521668 4541523 4561478 4580899 4599150 
2335.539 4615826 4630628 4642818 4652296 4658894 4663014 4664989 4666128 
2339.397 4667066 4668674 4671822 4677013 4684348 4693124 4702267 4709603 
2343.254 4713421 4712953 4709469 4706857 4711378 4729533 4766951 4826149 
2347.112 4905125 4998194 5097484 5193981 5279028 5346615 5392607 5415957 
2350.969 5418406 5404282 5378684 5347420 5315352 5285568 5259508 5237039 
2354.826 5217085 5198608 5180668 5162863 5145730 5130206 5117030 5107408 
2358.684 5101306 5098423 5098088 5098926 5100032 5100803 5101239 5101541 
2362.541 5102714 5105363 5109520 5115186 5121824 5128965 5136677 5145797 
2366.399 5157297 5172990 5194551 5223155 5259106 5301835 5349735 5400792 
2370.256 5452729 5503698 5552929 5600084 5645700 5690985 5736946 5784490 
2374.114 5834223 5886244 5940355 5996455 6054510 6114523 6176728 6241597 
2377.971 6309233 6379603 6452137 6525793 6599226 6670888 6739129 6802905 
2381.828 6861708 6915334 6964456 7009710 7051702 7091005 7128020 7162849 
2385.686 7195760 7226821 7256402 7285143 7313447 7341416 7369219 7396349 
2389.543 7422267 7446266 7467738 7486110 7501414 7513921 7523968 7532531 
2393.401 7540285 7548310 7557379 7567595 7579261 7591905 7604718 7617329 
2397.258 7629165 7640057 7650545 7661202 7672904 7686326 7702313 7720931 
2401.115 7742349 7766466 7792744 7820778 7849691 7878910 7908062 7937250 
2404.973 7966542 7997017 8029419 8064522 8102600 8143482 8186193 8229987 
2408.830 8273955 8317657 8361466 8405549 8450582 8497005 8544616 8592875 
2412.688 8640868 8687920 8733287 8776257 8816697 8854366 8889469 8922072 
2416.545 8952817 8982787 9012623 9043306 9075447 9109045 9143627 9178822 
2420.403 9213815 9248101 9281916 9315361 9348706 9382225 9415542 9448320 
2424.260 9480152 9510700 9539928 9567905 9594936 9621258 9647106 9672651 
2428.117 9698265 9724694 9752785 9783656 9818259 9856693 9898894 9943914 
2431.975 9990158 10036406 10081575 10124985 10166872 10207814 10248862 
2435.350 10291304 10335890 10383363 10434134 10487897 10544078 10601896 
2438.725 10660401 10719491 10779064 10839937 10902449 10967349 11034637 
2442.101 11103636 11173665 11244148 11314710 11385930 11459270 11535856 
2445.476 11616778 11702104 11790581 11880676 11970244 12057890 12143236 
2448.851 12226690 12309512 12392896 12477490 12563327 12649387 12734337 
2452.226 12816574 12895209 12969487 13039716 13106301 13169995 13231203 
2455.602 13289927 13345480 13396428 13440819 13476330 13500665 13511808 
2458.977 13508971 13492018 13462180 13421169 13371244 13314662 13253544 
2462.352 13188711 13120952 13050471 12976554 12898929 12816983 12730380 
2465.727 12639221 12544057 12445607 12345305 12244685 12145314 12049067 
2469.103 11957540 11871720 11792862 11721201 11656631 11598707 11546439 
2472.478 11498702 11454406 11412938 11373821 11337667 11305120 11277132 
2475.853 11254791 11238095 11226603 11219020 11213818 11208854 11203006 
2479.228 11195084 11184544 11171659 11156599 11139839 11122094 11103976 
2482.604 11086300 11070053 11055811 11044018 11034705 11027228 11020941 
2485.979 11015061 11009250 11003370 10997729 10992734 10988656 10985564 
2489.354 10982709 10980126 10977067 10973534 10969762 10966601 10964426 
2492.729 10963305 10963101 10962999 10962149 10960077 10956645 10952635 
2496.104 10949407 10948388 10950291 10955149 10962082 10969387 10975096 
2499.480 10977815 10976932 10973058 10967518 10962625 10960145 10961062 
2502.855 10965582 10973126 10981825 10990219 10997151 11001808 11004220 
2506.230 11004934 11004458 11003642 11003405 11003880 11005851 11009114 
2509.605 11013804 11019649 11025664 11031205 11035317 11037186 11036711 
2512.981 11033991 11029268 11022980 11015163 11005749 10994568 10981587 
2516.356 10967485 10953077 10939552 10927728 10917773 10909176 10900750 
2519.731 10891475 10880671 10868576 10856448 10845780 10837457 10832259 
2523.106 10829032 10826587 10822917 10817313 10809601 10800940 10793059 
2526.482 10787556 10785790 10787658 10792719 10799988 10808684 10817992 
2529.857 10827571 10836913 10845678 10852948 10858146 10860762 10860830 
2533.232 10859233 10857059 10855870 10856584 10859233 10863922 10869731 
2536.607 10875541 10880841 10885224 10888383 10890795 10892834 10895280 
2539.983 10899222 10905847 10915971 10930175 10947572 10966941 10985699 
2543.358 11001264 11011527 11016013 11015333 11011663 11007958 11007177 
2546.733 11010643 11018969 11031238 11045751 11060876 11074846 11086673 
2550.108 11096021 11102956 11107680 11110706 11112678 11114275 11116451 
2553.484 11119884 11124813 11131408 11139329 11147793 11156497 11164860 
2556.859 11173087 11181382 11190019 11198620 11206610 11212934 11216606 
2560.234 11216844 11213852 11208412 11202088 11196410 11193078 11192806 
2563.609 11195696 11201170 11208446 11216334 11223984 11230683 11235919 
2566.985 11239218 11240509 11239591 11237041 11233369 11229458 11226636 
2570.360 11225821 11227623 11232383 11239591 11248399 11257987 11267815 
2573.735 11277676 11288014 11299577 11313112 11328892 11346747 11365828 
2577.110 11384944 11403142 11419605 11434062 11447466 11460495 11474172 
2580.486 11489278 11505880 11524050 11543103 11562534 11581998 11601327 
2583.861 11619909 11637674 11654215 11669123 11682158 11693629 11703977 
2587.236 11714359 11725831 11739584 11756298 11776521 11800217 11827114 
2590.611 11856635 11888133 11920383 11952125 11982064 12008938 12031931 
2593.987 12050633 12065997 12079250 12091924 12105484 12120986 12138533 
2597.362 12157751 12177958 12198268 12218340 12238175 12258079 12278665 
2600.737 12300378 12323795 12349226 12377043 12407386 12440323 12475750 
2604.112 12512989 12551049 12588772 12624792 12658188 12688482 12715947 
2607.488 12741605 12766615 12792072 12819031 12847528 12877084 12906950 
2610.863 12936169 12963957 12990073 13014450 13037873 13060920 13084685 
2614.238 13109546 13135568 13162036 13187994 13212279 13233629 13251426 
2617.613 13265706 13276945 13286442 13295564 13305676 13317839 13332975 
2620.989 13350879 13371347 13393728 13417068 13440717 13463992 13486241 
2624.364 13507125 13526745 13545034 13562194 13578296 13593201 13606705 
2627.739 13618603 13628689 13636963 13644280 13651358 13659803 13670676 
2631.114 13684867 13702581 13723680 13746935 13771526 13796767 13822215 
2634.490 13848315 13875647 13904795 13935998 13969084 14003268 14037490 
2637.865 14070481 14101764 14131201 14159305 14186691 14214456 14243078 
2641.240 14272696 14302692 14332657 14361561 14389029 14414854 14439413 
2644.615 14463016 14486859 14511080 14536295 14562541 14589644 14617230 
2647.990 14644885 14672542 14700235 14727999 14756278 14785142 14814899 
2651.366 14845413 14876889 14908847 14941117 14973800 15006485 15039448 
2654.741 15072584 15105895 15139174 15172352 15205053 15237173 15268917 
2658.116 15300218 15331384 15362826 15394511 15426507 15459056 15491709 
2661.491 15524434 15557333 15590715 15624889 15660545 15697885 15737256 
2664.867 15778555 15821576 15865562 15910311 15955029 15999718 16044583 
2668.242 16089693 16135667 16183022 16231794 16281946 16332790 16383471 
2671.617 16433297 16481509 16528180 16573858 16619297 16666051 16714910 
2674.992 16766394 16820326 16875990 16932210 16987852 17042124 17094886 
2678.368 17146240 17197050 17247898 17299584 17352170 17405726 17460188 
2681.743 17515450 17571444 17628376 17686592 17746610 17809090 17874408 
2685.118 17943156 18015298 18090976 18169810 18251080 18334300 18418744 
2688.493 18503864 18589518 18675982 18763332 18851908 18941646 19032406 
2691.869 19124016 19215922 19307986 19400278 19492832 19586030 19680460 
2695.244 19775710 19872126 19969392 20067344 20165906 20265566 20366604 
2698.619 20469228 20573788 20680214 20788160 20897176 21006534 21115988 
2701.994 21225192 21334144 21442880 21551678 21660294 21768972 21877260 
2705.370 21984844 22091164 22195834 22298298 22398136 22495414 22589886 
2708.745 22681690 22770686 22856522 22938638 23016262 23088834 23155754 
2712.120 23217096 23273130 23324798 23372210 23416130 23456348 23492720 
2715.495 23524620 23551694 23573628 23590838 23603502 23612458 23617986 
2718.871 23620400 23619596 23615118 23606862 23594408 23577930 23558130 
2722.246 23535848 23512622 23489854 23469078 23451240 23436868 23425852 
2725.621 23417494 23410988 23405640 23401060 23397388 23395010 23394834 
2728.996 23397352 23403016 23412004 23423998 23438476 23454950 23473206 
2732.372 23492896 23514196 23537072 23561522 23587130 23613964 23641604 
2735.747 23669594 23697866 23726072 23754104 23782242 23810732 23839714 
2739.122 23869364 23899330 23928984 23957552 23983636 24006644 24026184 
2742.497 24042642 24056930 24070520 24084528 24099938 24116926 24135070 
2745.873 24153670 24172342 24190488 24208144 24225556 24242898 24260312 
2749.248 24277796 24295140 24312102 24328640 24344796 24360916 24377318 
2752.623 24394492 24412646 24432240 24453342 24476478 24501894 24529696 
2755.998 24559882 24591788 24625102 24659048 24693628 24728562 24763814 
2759.374 24799630 24835836 24871694 24906886 24940434 24971772 25000376 
2762.749 25026314 25049024 25068682 25084828 25097360 25105998 25111054 
2766.124 25112982 25112736 25110946 25107964 25103960 25098660 25091392 
2769.499 25082126 25071210 25059308 25047618 25037264 25028842 25022488 
2772.875 25017960 25014626 25011678 25008834 25006026 25003500 25002060 
2776.250 25002412 25005570 25011784 25021540 25034386 25049270 25064504 
2779.625 25078158 25088198 25093500 25093606 25089076 25081424 25071876 
2783.000 25062046 25052464 25043022 25033334 25022804 25011186 24998412 
2786.375 24985040 24971492 24958366 24945978 24934714 24924608 24916326 
2789.751 24909976 24906220 24905272 24907168 24911766 24918852 24928364 
2793.126 24940258 24954822 24972194 24991848 25013398 25035720 25057658 
2796.501 25078370 25097536 25115230 25132082 25148688 25165224 25181902 
2799.876 25198334 25214278 25229622 25244266 25257926 25270254 25280510 
2803.252 25287848 25291500 25291432 25288410 25284020 25280264 25279174 
2806.627 25282054 25289288 25300422 25314576 25330662 25348154 25367124 
2810.002 25387392 25409594 25433870 25460150 25488364 25518442 25550384 
2813.377 25584720 25621412 25660884 25702716 25746204 25790506 25835020 
2816.753 25879156 25922908 25966876 26012042 26059220 26109746 26164290 
2820.128 26223732 26288324 26358062 26432568 26510960 26592324 26675572 
2823.503 26760244 26845888 26932780 27021522 27112576 27206366 27302432 
2826.878 27400674 27500102 27600084 27699910 27799126 27897444 27994656 
2830.254 28090826 28185604 28278918 28370802 28461148 28549780 28636870 
2833.629 28722530 28807178 28891524 28976808 29064518 29156036 29252464 
2837.004 29353912 29460138 29569864 29681782 29794900 29908900 30024418 
2840.379 30142634 30265286 30393944 30529782 30674270 30828374 30993350 
2843.755 31170814 31362132 31568610 31791366 32030042 32283694 32550100 
2847.130 32825392 33104326 33379898 33644076 33887352 34101164 34277212 
2850.505 34410184 34497884 34541512 34545672 34517260 34464740 34397524 
2853.880 34324256 34253404 34192348 34146788 34120624 34116180 34133168 
2857.256 34170124 34224472 34293096 34372776 34461152 34556076 34655936 
2860.631 34759264 34865024 34971852 35079060 35186232 35293244 35400068 
2864.006 35506632 35612680 35717676 35821080 35922600 36022160 36120236 
2867.381 36217140 36313312 36408680 36502480 36594104 36682644 36767340 
2870.757 36847804 36923732 36994804 37060548 37120744 37175280 37224696 
2874.132 37270328 37313980 37357744 37403352 37452292 37505136 37562212 
2877.507 37623596 37689832 37761248 37838676 37922224 38011688 38106088 
2880.882 38204416 38305624 38409360 38516044 38626524 38741784 38862320 
2884.258 38987676 39116660 39247496 39378116 39506928 39632684 39754820 
2887.633 39872840 39987012 40097504 40204788 40309412 40412240 40513892 
2891.008 40615280 40716688 40818848 40922236 41027468 41135892 41248972 
2894.383 41367916 41494324 41628760 41771044 41920012 42073304 42227052 
2897.759 42375412 42511836 42628052 42715348 42766384 42775488 42740500 
2901.134 42662448 42545928 42397696 42225044 42035120 41834120 41626608 
2904.509 41415952 41205324 40997060 40794096 40598324 40411512 40234304 
2907.884 40067124 39909780 39762516 39625428 39499596 39385516 39283440 
2911.260 39192880 39111696 39037012 38964624 38889680 38807248 38712116 
2914.635 38599364 38465252 38306568 38121716 37910800 37675592 37419244 
2918.010 37145864 36859960 36565700 36266340 35964168 35660228 35354416 
2921.385 35046196 34734532 34419256 34100768 33780904 33462952 33151210 
2924.760 32850228 32564528 32297290 32050126 31823098 31614468 31422078 
2928.136 31243514 31076948 30921262 30776620 30643158 30521572 30412314 
2931.511 30314918 30228768 30152614 30084854 30024030 29968750 29918094 
2934.886 29871274 29827618 29786880 29748236 29711266 29675006 29638678 
2938.261 29601750 29563620 29524396 29484322 29443544 29402520 29361288 
2941.637 29319386 29276036 29230208 29180344 29124464 29060726 28986690 
2945.012 28899846 28798256 28680088 28544472 28392060 28224356 28044238 
2948.387 27854906 27660252 27463498 27267326 27073818 26884518 26700552 
2951.762 26522758 26351726 26188080 26032096 25883692 25742582 25608408 
2955.138 25480458 25358132 25240930 25128536 25021120 24919062 24822856 
2958.513 24733544 24652070 24579340 24516092 24462596 24418816 24384362 
2961.888 24358148 24339398 24326994 24319776 24316902 24317322 24319670 
2965.263 24322718 24324436 24323174 24316656 24302746 24279478 24245280 
2968.639 24198966 24139974 24068488 23985424 23892082 23790290 23682436 
2972.014 23570654 23457362 23344554 23233908 23126854 23024334 22926728 
2975.389 22833926 22745338 22660046 22577042 22494890 22412544 22329064 
2978.764 22243472 22155454 22064772 21971774 21877086 21782004 21687740 
2982.140 21595868 21507494 21423526 21344238 21269764 21199306 21132406 
2985.515 21068614 21007508 20949052 20893770 20841760 20793582 20749510 
2988.890 20709196 20671664 20635840 20599288 20559682 20514590 20462038 
2992.265 20401226 20332816 20258518 20181422 20105066 20032644 19966826 
2995.641 19908892 19858806 19815626 19777930 19743772 19711734 19681120 
2999.016 19651442 19623122 19596776 19573308 19553378 19537504 19525376 
3002.391 19516674 19510090 19504718 19499104 19492588 19484688 19475574 
3005.766 19466080 19456930 19449274 19444040 19441926 19443312 19448580 
3009.142 19457658 19470272 19485902 19503922 19523780 19544748 19566620 
3012.517 19589324 19612894 19637576 19663402 19690550 19718808 19748350 
3015.892 19779594 19812990 19849302 19889190 19932898 19980150 20030216 
3019.267 20081814 20133906 20185482 20236022 20285528 20333894 20381014 
3022.643 20426890 20470650 20511882 20549954 20584696 20616174 20645118 
3026.018 20672394 20698804 20725322 20752254 20779678 20807382 20834460 
3029.393 20859908 20882748 20902114 20917516 20929164 20937820 20944602 
3032.768 20951312 20958858 20968248 20979792 20993318 21008272 21023992 
3036.144 21039434 21053764 21066422 21077064 21085796 21093414 21101064 
3039.519 21110074 21121832 21137000 21155470 21176622 21198958 21221400 
3042.894 21243318 21264928 21287060 21310792 21337136 21366234 21397872 
3046.269 21431044 21464636 21497954 21530718 21563272 21596006 21629474 
3049.645 21663674 21698398 21733162 21767580 21801442 21834960 21868270 
3053.020 21901932 21936050 21970798 22006522 22043264 22081052 22119856 
3056.395 22159080 22198206 22236008 22272140 22306216 22338830 22371134 
3059.770 22404312 22439376 22476430 22514502 22551984 22587060 22618682 
3063.146 22646504 22671356 22694956 22719152 22745198 22773864 22804768 
3066.521 22837246 22870108 22901996 22932490 22961170 22988104 23013992 
3069.896 23039742 23066086 23094180 23124616 23157536 23192384 23228314 
3073.271 23264458 23300152 23335534 23371126 23407948 23447184 23489258 
3076.646 23533644 23579608 23625474 23670224 23713262 23754698 23795330 
3080.022 23836458 23878710 23922716 23968582 24015924 24064460 24113878 
3083.397 24163722 24213994 24264202 24313852 24362458 24410018 24456112 
3086.772 24501158 24545648 24589722 24633692 24677740 24721724 24765918 
3090.147 24810646 24856360 24903730 24953138 25004518 25057308 25111086 
3093.523 25165120 25218842 25272538 25326412 25380964 25436962 25494372 
3096.898 25553372 25613750 25674944 25736642 25798276 25859286 25919566 
3100.273 25979186 26038604 26098416 26159680 26223240 26289412 26357852 
3103.648 26427496 26496836 26564426 26629420 26691638 26751928 26811522 
3107.024 26871582 26932920 26995782 27059746 27123932 27187950 27251696 
3110.399 27315452 27379746 27445320 27512212 27580524 27649554 27718558 
3113.774 27787186 27855012 27922354 27989354 28056822 28124902 28193878 
3117.149 28263748 28334372 28405714 28477636 28550240 28623316 28697114 
3120.525 28771490 28846340 28921556 28996716 29071638 29146432 29220922 
3123.900 29295248 29369584 29443862 29517870 29591572 29664682 29737202 
3127.275 29809698 29883094 29958562 30036988 30118876 30203654 30290190 
3130.650 30376708 30461466 30543504 30622748 30700122 30777296 30855766 
3134.026 30936952 31021250 31108128 31196374 31284892 31372424 31458412 
3137.401 31542990 31626624 31709914 31793684 31878396 31964522 32052230 
3140.776 32141634 32232766 32325704 32420698 32517246 32615426 32714554 
3144.151 32813814 32912132 33008360 33101536 33191622 33279076 33365298 
3147.527 33452180 33541620 33635200 33733272 33835632 33941200 34048696 
3150.902 34157188 34265956 34375036 34484396 34594180 34704456 34814688 
3154.277 34924880 35034848 35144876 35255544 35367068 35479232 35591608 
3157.652 35703144 35812948 35920476 36025980 36130392 36235296 36342136 
3161.028 36451560 36563788 36677812 36792696 36907212 37020784 37133480 
3164.403 37245960 37359188 37474108 37591332 37710900 37832456 37955420 
3167.778 38078636 38201488 38323792 38445304 38566700 38688824 38812100 
3171.153 38936792 39062748 39189108 39314780 39439032 39561656 39682744 
3174.529 39803260 39923728 40044632 40166080 40287232 40407548 40526988 
3177.904 40645912 40765560 40887540 41012972 41142268 41275208 41410484 
3181.279 41546536 41682480 41817592 41951472 42084436 42216280 42346520 
3184.654 42475188 42602104 42727996 42854220 42982452 43114568 43251188 
3188.030 43392208 43536316 43682048 43827604 43972184 44115784 44258924 
3191.405 44402436 44546952 44692728 44839692 44987512 45136044 45285216 
3194.780 45435180 45585668 45736064 45885628 46033584 46179492 46323900 
3198.155 46467804 46613228 46761912 46915412 47074168 47237716 47404648 
3201.531 47573124 47740776 47906088 48068100 48226652 48382704 48538108 
3204.906 48694608 48854132 49017604 49184964 49355024 49526264 49697012 
3208.281 49866640 50035332 50204312 50374768 50547600 50722552 50898316 
3211.656 51073076 51245364 51414328 51580712 51745856 51911504 52079608 
3215.031 52250468 52424536 52601480 52780848 52962840 53147680 53335332 
3218.407 53525352 53716244 53906204 54093396 54276912 54456716 54634188 
3221.782 54811920 54991792 55176104 55365576 55560328 55759688 55962680 
3225.157 56167504 56372804 56576876 56778212 56975944 57169940 57360700 
3228.532 57549804 57738988 57929544 58122000 58316516 58512332 58708876 
3231.908 58906652 59106568 59309652 59517352 59729408 59944800 60161484 
3235.283 60377208 60590600 60801312 61010148 61218932 61428884 61641076 
3238.658 61855240 62071196 62288556 62507944 62730156 62956848 63188644 
3242.033 63425512 63666104 63908644 64151280 64393052 64634724 64877996 
3245.409 65125404 65378584 65638580 65904664 66175312 66448128 66721404 
3248.784 66994184 67266592 67539448 67814136 68091440 68372136 68655928 
3252.159 68942088 69229440 69516672 69803240 70088552 70373160 70657600 
3255.534 70942584 71229112 71517472 71807752 72099744 72393184 72687816 
3258.910 72983768 73280824 73578600 73876664 74173232 74467296 74757104 
3262.285 75041600 75320608 75594232 75863016 76127192 76387136 76642344 
3265.660 76892520 77137256 77376184 77609232 77836464 78057296 78271344 
3269.035 78478592 78678704 78872360 79060496 79243864 79423000 79598168 
3272.411 79768536 79933200 80092032 80244944 80393200 80537920 80680024 
3275.786 80819528 80955840 81087176 81212104 81330088 81441704 81548352 
3279.161 81652184 81754528 81855976 81956160 82053928 82148560 82239568 
3282.536 82327424 82412696 82496304 82578416 82658840 82737288 82813184 
3285.912 82886560 82957672 83026936 83094096 83158896 83220336 83277608 
3289.287 83330792 83380368 83427552 83473968 83521072 83569432 83618872 
3292.662 83668808 83718424 83767008 83814336 83859832 83902920 83943080 
3296.037 83979656 84011944 84040776 84067112 84092360 84118264 84145088 
3299.413 84172152 84198096 84220544 84237632 84248584 84253568 84253928 
3302.788 84251632 84249064 84248176 84251432 84260608 84277336 84302888 
3306.163 84337448 84380464 84430768 84486672 84546488 84609528 84675640 
3309.538 84745432 84819304 84898136 84981336 85068664 85160488 85256480 
3312.914 85357456 85464264 85577872 85698416 85825576 85958872 86097664 
3316.289 86242600 86393808 86552232 86718680 86892640 87073184 87258960 
3319.664 87448408 87640904 87835832 88033296 88232464 88432576 88631680 
3323.039 88828240 89021920 89213200 89404616 89598544 89796720 89999144 
3326.415 90203664 90406248 90602792 90790072 90966568 91132432 91288872 
3329.790 91436488 91574792 91702496 91817552 91918296 92004168 92075720 
3333.165 92133760 92178784 92210200 92226392 92225608 92206360 92169192 
3336.540 92115984 92049632 91973256 91889352 91798840 91701472 91595856 
3339.916 91480584 91354536 91216792 91066640 90903904 90728048 90539720 
3343.291 90339696 90129648 89911032 89685136 89452160 89211408 88961280 
3346.666 88700736 88429616 88149440 87862768 87572672 87281640 86991528 
3350.041 86702296 86413904 86125336 85836640 85548224 85260272 84973360 
3353.417 84687000 84399736 84109816 83816232 83518424 83217120 82914432 
3356.792 82612040 82311848 82015184 81723016 81435512 81153752 80878120 
3360.167 80609080 80346792 80090000 79836712 79584200 79329480 79070512 
3363.542 78806336 78537344 78265752 77994408 77726392 77464928 77212288 
3366.917 76969568 76736712 76512712 76295424 76082184 75871032 75660088 
3370.293 75448472 75236168 75023368 74810208 74596720 74382544 74167304 
3373.668 73950824 73732968 73514120 73294400 73073496 72850712 72625336 
3377.043 72397024 72166096 71934504 71704712 71479160 71259528 71046176 
3380.418 70837104 70629768 70420344 70206744 69987680 69763120 69534872 
3383.794 69304832 69075040 68846992 68621744 68400144 68183032 67970920 
3387.169 67763936 67561968 67363968 67168656 66974268 66779204 66582828 
3390.544 66384852 66186116 65987736 65791452 65598956 65411596 65230048 
3393.919 65053968 64882004 64711944 64541148 64367072 64188616 64005696 
3397.295 63819984 63633920 63450008 63269900 63094416 62922760 62753468 
3400.670 62584864 62415584 62244616 62071348 61894708 61713636 61526948 
3404.045 61333816 61133940 60928440 60719072 60508132 60297596 60088308 
3407.420 59880332 59672988 59464876 59255032 59042868 58827728 58609320 
3410.796 58387504 58162044 57933292 57702244 57470560 57240056 57012624 
3414.171 56788560 56567628 56348320 56128628 55906600 55681752 55453772 
3417.546 55222800 54989236 54752792 54512756 54268728 54020484 53769004 
3420.921 53516244 53264720 53016336 52772544 52533524 52299128 52068400 
3424.297 51840936 51616384 51394748 51175428 50957408 50739124 50519016 
3427.672 50296152 50070504 49843300 49615920 49389880 49165964 48943944 
3431.047 48723152 48502392 48281524 48061028 47842272 47626400 47414328 
3434.422 47206240 47001392 46798852 46597772 46397632 46198616 46000908 
3437.798 45804396 45608780 45412924 45215644 45015888 44812948 44607092 
3441.173 44399280 44190648 43983040 43777100 43572980 43370020 43166092 
3444.548 42959224 42746972 42527916 42302580 42073488 41844664 41620992 
3447.923 41407204 41205032 41014140 40831624 40652936 40473484 40290324 
3451.299 40102116 39909312 39713788 39516796 39319276 39120940 38920736 
3454.674 38718056 38512860 38306168 38099760 37895396 37694420 37497660 
3458.049 37304844 37115620 36928892 36744048 36559424 36373476 36184440 
3461.424 35990772 35791680 35587900 35380980 35173368 34967828 34765512 
3464.800 34566876 34371088 34177116 33983980 33792112 33602296 33415678 
3468.175 33232790 33052694 32873888 32693692 32510214 32322526 32131106 
3471.550 31937488 31743276 31550366 31359498 31171028 30984882 30801092 
3474.925 30619904 30441208 30264754 30090002 29915786 29740856 29565110 
3478.301 29388444 29211990 29036460 28861848 28687840 28512804 28335360 
3481.676 28155270 27973238 27791636 27613500 27441156 27275758 27116420 
3485.051 26961300 26807400 26652812 26496168 26337538 26177732 26017812 
3488.426 25858230 25699132 25540650 25382756 25225796 25070646 24917694 
3491.802 24767392 24619632 24473394 24328220 24183586 24039632 23897264 
3495.177 23757604 23621276 23488558 23359028 23231810 23106060 22981048 
3498.552 22856104 22730916 22605348 22478454 22350236 22220592 22089454 
3501.927 21957728 21826076 21695194 21565712 21438146 21313020 21190852 
3505.302 21072892 20959832 20851704 20747980 20646402 20544120 20438700 
3508.678 20328340 20213182 20095626 19978796 19866714 19761666 19664722 
3512.053 19574766 19489402 19406238 19322848 19237948 19150886 19061694 
3515.428 18970270 18876546 18780042 18680930 18579728 18477378 18375672 
3518.803 18276030 18179036 18084828 17992124 17899096 17803808 17704228 
3522.179 17599702 17490370 17377100 17262070 17147308 17034440 16924528 
3525.554 16817296 16711501 16605940 16498959 16389458 16277060 16161665 
3528.929 16043516 15922651 15798828 15671639 15541192 15408312 15274683 
3532.304 15142468 15014134 14890742 14772424 14657428 14543456 14427938 
3535.680 14308959 14186863 14062883 13939316 13818452 13702102 13590876 
3539.055 13484396 13382110 13282957 13186116 13090696 12995570 12899748 
3542.430 12801764 12700594 12595047 12485128 12370941 12253409 12134002 
3545.805 12013911 11895353 11780198 11670960 11569441 11476247 11390522 
3549.181 11309098 11227895 11141947 11047824 10944514 10833517 10719627 
3552.556 10608653 10505583 10413329 10331783 10257717 10186716 10114641 
3555.931 10038272 9956593 9870421 9781251 9690980 9601271 9512426 9424650 
3559.789 9337637 9251419 9166470 9084379 9006635 8934992 8870802 8813585 
3563.646 8761144 8709588 8652732 8584662 8499810 8395786 8274530 8142504 
3567.503 8009472 7885421 7778239 7691082 7622556 7567898 7521035 7475761 
3571.361 7426953 7371544 7308494 7238276 7162815 7084942 7008060 6935063 
3575.218 6867969 6807886 6754004 6704637 6656790 6608242 6557042 6502988 
3579.076 6446689 6390229 6335423 6283482 6235278 6190507 6148834 6109785 
3582.933 6072587 6036669 6000251 5960644 5913719 5855111 5780595 5688500 
3586.791 5580617 5462728 5343797 5233819 5140265 5067179 5013679 4975470 
3590.648 4946211 4919233 4888505 4850038 4802127 4745109 4681535 4614755 
3594.505 4548621 4486582 4430877 4382142 4340039 4303528 4270601 4238880 
3598.363 4206259 4170295 4128881 4081083 4026434 3965673 3900775 3833981 
3602.220 3768334 3706606 3650534 3601820 3560961 3527055 3498061 3470705 
3606.078 3440680 3403543 3356092 3297561 3230259 3159396 3091849 3032419 
3609.935 2984075 2944875 2910683 2875793 2835637 2788581 2737029 2685783 
3613.792 2640743 2606775 2584976 2573776 2568177 2562344 2550612 2527882 
3617.650 2491457 2440573 2377301 2305711 2231935 2162700 2103431 2057653 
3621.507 2025494 2004456 1990010 1977028 1962350 1943711 1922378 1900279 
3625.365 1879514 1859348 1836355 1803647 1752977 1678928 1583077 1475410 
3629.222 1373155 1293588 1246068 1229886 1236897 1255538 1275710 1289700 
3633.080 1294386 1289999 1279498 1265840 1251418 1236465 1220050 1200679 
3636.937 1177787 1151242 1122373 1093074 1064309 1037073 1011234 987024 
3640.794 964608 945281 930040 920245 916957 919547 926387 935718 945115 
3645.134 952155 955376 953018 943090 923731 892586 847566 788178 715887 
3649.474 635976 556610 487443 437158 410758 408337 425317 453908 483927 
3653.813 505521 510829 494508 456064 400908 338264 278647 230873 198783 
3658.153 181380 174651 173060 172397 169513 163315 154067 143328 132490 
3662.492 123209 116746 114029 115620 121618 131595 144322 158409 171502 
3666.832 180982 183634 176540 157547 126325 86190 44037 10106 -6361 331 
3671.654 28893 72602 119630 155890 168685 147604 89570 1491 -99092 -190578 
3676.476 -257342 -293302 -303633 -298037 -286713 -276581 -270620 -268369 
3680.333 -267739 -266448 -262938 -257275 -249162 -238035 -222669 -200778 
3684.190 -171070 -134172 -93427 -54767 -25379 -12259 -20410 -50824 -100053 
3688.530 -159676 -220914 -275223 -318036 -347867 -365910 -372796 -370379 
3692.387 -360183 -343331 -322274 -299560 -277839 -259626 -246116 -237605 
3696.245 -233631 -232902 -234923 -239261 -246944 -258666 -275455 -297938 
3700.102 -324592 -353661 -382066 -406232 -423445 -431720 -430264 -419704 
3703.960 -400736 -374915 -343629 -308401 -270852 -232638 -195744 -161763 
3707.817 -132615 -109891 -95813 -92202 -100947 -122943 -158252 -203560 
3711.675 -253600 -301117 -338762 -361209 -366539 -356309 -335153 -308567 
3715.532 -282177 -260123 -244924 -236479 -233730 -234889 -238201 -243466 
3719.389 -250619 -260289 -272508 -286117 -298766 -307937 -311547 -308964 
3723.247 -301779 -292839 -285587 -282442 -283832 -287243 -288799 -283038 
3727.104 -265455 -234459 -191108 -139770 -86537 -38102 66 23757 32240 27866 
3731.926 14247 -3412 -22563 -44099 -71232 -107937 -156232 -213264 -271216 
3736.266 -319791 -349224 -354588 -337471 -303136 -257640 -206144 -151098 
3740.123 -92864 -32238 28529 83638 123242 135439 110781 47284 -43072 -134933 
3744.945 -197930 -212635 -176866 -104094 -14181 74723 146212 191126 205313 
3749.284 189932 150487 94011 27634 -42508 -109957 -167659 -208628 -227935 
3753.624 -224789 -202633 -169315 -133509 -102239 -80408 -69112 -66660 -70105 
3757.964 -76566 -85477 -96608 -109593 -122214 -130031 -127547 -110686 -78984 
3762.303 -35882 11696 55370 88642 108229 115089 114261 112073 113200 118801 
3767.125 125629 128115 120757 100109 66770 25248 -17196 -53905 -79978 -94222 
3771.947 -98562 -96541 -92135 -88359 -86868 -87498 -89552 -91374 -91407 
3776.286 -89518 -86404 -84019 -84317 -88723 -96376 -104889 -109891 -106777 
3780.626 -93494 -70238 -40289 -8813 18389 37012 44898 42413 31975 17230 1590 
3785.930 -12491 -24187 -33331 -40322 -45391 -48803 -50990 -52746 -54733 
3790.270 -57251 -60100 -62055 -61227 -56125 -46451 -33331 -19946 -9542 -4406 
3795.091 -4572 -6726 -5367 6295 32837 74988 128413 185258 235249 267540 
3799.913 274105 251162 203026 140776 81285 40060 25215 36183 64781 99280 
3804.735 125993 134379 117641 76049 17263 -46318 -99920 -134437 -147057 
3809.074 -140995 -121816 -94719 -63148 -27268 13850 60805 112272 164143 
3813.414 209557 241315 253847 245294 220894 192021 171999 171071 193081 
3817.754 232696 280006 321552 344929 341050 306697 246454 173458 105246 
3822.093 56033 32737 33532 50002 71442 88344 94044 86919 69918 48444 30086 
3827.397 20145 20543 29291 42778 55635 64649 68891 70150 72437 80423 97789 
3832.701 126060 164740 210319 257958 302154 337501 358956 363035 348179 
3837.041 316081 271220 220828 172331 132125 103357 86455 78799 76181 74624 
3841.863 70879 62395 48875 31644 13485 -2054 -10834 -9376 4075 29755 66969 
3847.167 113498 167723 228187 294097 364726 438352 510895 575355 621077 
3851.506 636241 609397 535776 422133 289920 167160 78070 33400 29158 53912 
3856.328 93580 137594 179259 214728 243636 266081 282725 293865 300032 
3860.667 301558 299502 294628 287002 276127 261506 242509 221988 205280 
3865.007 199711 212142 246123 298739 362173 423891 471156 493712 487343 
3869.347 456495 413975 376400 355839 356635 373912 398022 418220 427506 
3873.686 424488 413179 401405 396895 404125 422996 448933 474705 493380 
3878.026 498887 487642 460077 419812 374277 332826 304840 296949 310941 
3882.365 343437 386183 429463 462134 475966 468337 443924 414306 393379 
3886.705 393081 417258 462466 518393 572834 614275 634018 629008 602297 
3891.045 562151 518990 482368 458120 447606 448899 458585 473710 492153 
3895.384 512455 533520 553989 572237 586835 596291 600737 601169 600439 
3899.724 600704 603989 609696 615735 618622 614640 601733 580067 552729 
3904.063 524563 501342 487443 484656 492452 507744 527217 547056 564639 
3908.403 578740 589290 597054 603193 608867 614673 620978 627879 635047 
3912.743 642048 648187 652667 654691 653563 649183 641916 633089 623931 
3917.082 616233 611388 610061 612417 618555 628211 641318 657910 677025 
3921.422 697567 717513 734705 747119 753690 754587 751168 745857 740779 
3925.761 737560 736597 737062 737759 737593 735701 731785 726209 718874 
3930.101 709349 697235 681604 662855 642214 622272 606212 597054 596424 
3934.441 604321 619418 639062 660664 682368 703375 723786 744331 765540 
3938.780 787282 808560 827415 841591 849293 849359 842022 828976 812676 
3943.120 796277 782469 773407 769556 770486 774668 780245 785224 788078 
3947.459 788178 785323 780477 774900 769822 766569 765839 768162 773838 
3951.799 782867 794817 809190 824925 840230 853642 863834 869644 871337 
3956.139 869445 865660 861643 858921 858257 859950 863336 867221 870507 
3960.478 872333 872001 869777 866357 862340 858887 857061 857294 859817 
3964.818 864565 870574 877015 883190 888204 891856 894280 895873 897467 
3969.157 900057 903908 909287 916526 925026 934357 944119 953483 961785 
3973.497 968427 972677 974238 973508 970718 966966 963479 960955 960125 
3977.837 960789 962151 963114 962449 958996 952454 943156 931767 919913 
3982.176 908856 899924 893914 891192 891756 895110 900754 908258 916924 
3986.516 926454 936581 946776 956904 966567 975633 984068 991872 998581 
3990.855 1004426 1009009 1012297 1014090 1014024 1012662 1010171 1007149 
3994.713 1004094 1001603 999975 999477 1000208 1001869 1004459 1007880 
3998.570 1011500 1015253 1018341 1020367 1021297 
##END=
