
##TITLE=Z305_2_c
##JCAMP-DX=5.01  $$ Nicolet v. 1
##DATATYPE=INFRARED SPECTRUM
##ORIGIN=UniL
##OWNER=Nicolet
##LONGDATE=2011/09/08
##TIME=15:14:23
##SPECTROMETER/DATA SYSTEM=Nicolet iS5
##DATA PROCESSING=
Ratio against background
%Transmittance->Absorbance
Truncated
ElementMultiply or ElementDivide
##COMMENTS=
Number of sample scans: 32
Collection length: 51.20 sec
Sample gain: 2.0
Background collected on: Jeu Sep 08 15:10:49 2011 (GMT+02:00);
Number of background scans: 32
Background gain: 2.0
Sample spacing:  1.000
Number of scan points: 12415
Resolution points: 8192
Number of FFT points: 65536
Apodization: N-B fort;
Phase correction: Mertz;
Laser frequency: 15798.0 cm-1
Number of rejected sample scans: 0
Number of rejected background scans: 0
Bench serial number: ASB1000141;
##RESOLUTION=4.000
##XUNITS=1/CM
##YUNITS=ABSORBANCE
##FIRSTX=649.893372
##LASTX=4000.122314
##FIRSTY=0.121621
##MAXX=4000.122314
##MINX=649.893372
##MAXY=0.294730
##MINY=-0.001120
##XFACTOR=1.000000
##YFACTOR=1.000000E-009
##NPOINTS=6950
##DELTAX=0.482117
##ZPD=6100
##XYDATA=(X++(Y..Y))
649.893 121621424 121651288 121782096 122033384 122392152 122828592 
652.786 123316528 123851664 124452200 125146512 125948504 126846000 
655.679 127797736 128752680 129670512 130537032 131364528 132175448 
658.571 132981808 133770688 134505904 135144688 135658800 136046320 
661.464 136331056 136547392 136726208 136880976 137006880 137087552 
664.357 137102416 137028496 136833312 136470576 135877584 134996368 
667.250 133821768 132448288 131068912 129879352 128982720 128353624 
670.142 127884504 127437816 126892416 126176000 125265080 124191080 
673.035 123013856 121801128 120595888 119408328 118224584 117026048 
675.928 115809264 114591696 113403600 112273544 111215792 110226424 
678.820 109291248 108398696 107548712 106754672 106033664 105394816 
681.713 104831984 104324224 103846976 103383240 102932184 102508320 
684.606 102132984 101820552 101570128 101365592 101184480 101009976 
687.498 100839664 100686440 100570512 100507864 100500552 100535224 
690.391 100589352 100644320 100693368 100745640 100820024 100937560 
693.284 101110832 101341360 101622800 101948456 102317712 102736696 
696.177 103213184 103747632 104325408 104914664 105474192 105958552 
699.069 106332768 106576760 106682856 106651640 106486696 106191256 
701.962 105772104 105244624 104636144 103980784 103313888 102660560 
704.855 102027992 101406008 100774512 100114560 99416368 98683936 97930336 
708.229 97171896 96421192 95683800 94962176 94259648 93583984 92948160 
711.604 92365352 91842104 91374744 90948304 90540176 90123864 89677720 
714.979 89183256 88626776 87998352 87290464 86501928 85641872 84733792 
718.354 83815344 82929432 82119016 81414168 80826552 80348184 79955984 
721.729 79619136 79301480 78967016 78581888 78112824 77534208 76832992 
725.104 76015032 75106632 74152560 73206624 72314168 71505872 70791272 
728.478 70161920 69600632 69090656 68623760 68199664 67823160 67496864 
731.853 67218120 66978136 66766568 66575496 66403964 66257008 66142744 
735.228 66067160 66030704 66028504 66053308 66099532 66165120 66251256 
738.603 66359760 66488484 66630608 66775688 66912772 67035704 67144168 
741.978 67241832 67332704 67416448 67487032 67535376 67553256 67538552 
745.352 67495632 67432776 67354264 67255104 67116480 66911488 66611880 
748.727 66197416 65664248 65025568 64308360 63543164 62759980 61983556 
752.102 61230340 60513156 59840628 59217400 58643036 58111020 57609656 
755.477 57124624 56644896 56166600 55694332 55239204 54813460 54426780 
758.852 54082360 53777176 53505412 53261724 53043288 52849548 52680252 
762.227 52532968 52402440 52283244 52172036 52071648 51990748 51942348 
765.601 51938612 51986976 52088012 52236268 52424012 52643480 52889332 
768.976 53159512 53453584 53774180 54129648 54538380 55028724 55635912 
772.351 56390536 57298996 58326712 59383988 60340768 61037072 61320804 
775.726 61097176 60346024 59136864 57602464 55919116 54257916 52746692 
779.101 51467040 50442868 49656000 49062788 48614480 48269748 47997156 
782.475 47778724 47605472 47473832 47384432 47340092 47344672 47401064 
785.850 47510020 47668848 47873092 48117696 48399780 48721112 49087196 
789.225 49506172 49985624 50531372 51146724 51834176 52597664 53443616 
792.600 54380360 55415488 56550116 57775548 59067920 60390344 61692476 
795.975 62911160 63980476 64830952 65396188 65624744 65484056 64969384 
799.350 64105384 62945476 61564060 60040476 58459520 56897596 55416432 
802.724 54067688 52887012 51894252 51097152 50490724 50061952 49791684 
806.099 49660384 49649612 49742860 49925812 50182364 50491100 50826088 
809.474 51153956 51438240 51646164 51749736 51730476 51580452 51301068 
812.849 50901184 50395828 49806028 49157208 48476088 47790636 47124060 
816.224 46493764 45910304 45378160 44897740 44468136 44089124 43761452 
819.598 43486068 43262280 43088444 42960468 42874552 42828216 42821968 
822.973 42859012 42944664 43083976 43279592 43531040 43833544 44178212 
826.348 44550956 44932944 45300592 45623904 45871452 46014352 46029972 
829.723 45909712 45659720 45301620 44865740 44387132 43899892 43430072 
833.098 42997416 42613620 42283952 42008588 41783224 41600972 41451348 
836.473 41323272 41206604 41093640 40981512 40871740 40769348 40680044 
839.847 40608840 40558524 40529024 40518656 40524876 40544956 40576716 
843.222 40617968 40666832 40721888 40782668 40850224 40927584 41018324 
846.597 41125400 41250248 41391788 41546864 41711440 41882904 42060384 
849.972 42245788 42442048 42652032 42877664 43118592 43373424 43640240 
853.347 43918108 44206684 44506240 44817504 45140128 45474324 45820856 
856.721 46182588 46564132 46971928 47412148 47889884 48407740 48966308 
860.096 49565704 50206652 50890756 51619784 52393056 53204604 54040332 
863.471 54878612 55689284 56439544 57096548 57630008 58017316 58244936 
866.846 58309352 58219668 57997176 57674812 57290000 56883996 56494448 
870.221 56149480 55869748 55666532 55544360 55503660 55541352 55651880 
873.596 55824792 56045684 56296528 56556720 56808232 57038620 57242212 
876.970 57420636 57580864 57732748 57886196 58050720 58235920 58450952 
880.345 58706144 59011284 59374260 59799560 60287168 60832532 61427740 
883.720 62062672 62726556 63407412 64092828 64770788 65429896 66063344 
887.095 66670672 67259240 67841600 68433656 69049168 69694888 70369344 
890.470 71063192 71763384 72455752 73127840 73771096 74377672 74939968 
893.844 75449176 75895728 76270496 76566736 76779848 76906240 76942592 
897.219 76882904 76720736 76451504 76075784 75602400 75047944 74435984 
900.594 73790928 73135296 72488360 71863384 71271120 70721232 70222328 
903.969 69782888 69408696 69102272 68861936 68682984 68560240 68489200 
907.344 68467680 68495568 68572656 68697536 68867184 69076552 69321584 
910.719 69599464 69910224 70254608 70632880 71042472 71477432 71928872 
914.093 72387904 72848440 73309192 73774280 74251384 74751448 75286600 
917.468 75868504 76510376 77224048 78019184 78900176 79862272 80889648 
920.843 81953480 83017472 84043064 84994272 85847504 86593768 87240080 
924.218 87807568 88329216 88848000 89407952 90053656 90822176 91734416 
927.593 92789688 93957928 95181664 96370432 97411040 98186720 98577488 
930.967 98487280 97859216 96682360 95001792 92912496 90556424 88092056 
934.342 85675088 83445896 81501224 79898000 78656664 77769160 77212176 
937.717 76957224 76978120 77247600 77734248 78399560 79188632 80033264 
941.092 80860672 81594848 82172176 82550600 82711792 82665576 82444784 
944.467 82103280 81703376 81306512 80968776 80728456 80606088 80605968 
947.841 80719752 80933040 81230720 81601688 82038520 82536376 83091168 
951.216 83697088 84347152 85034856 85755984 86509888 87298488 88124480 
954.591 88988816 89889064 90819640 91774320 92748584 93741152 94753752 
957.966 95789624 96850168 97934064 99036656 100152408 101277264 102410240 
961.341 103552992 104708168 105876688 107056640 108243712 109433400 
964.233 110623864 111816672 113016592 114228624 115455240 116695392 
967.126 117945392 119202752 120468536 121749592 123056832 124403048 
970.019 125797320 127244624 128746272 130302904 131918696 133603128 
972.912 135369184 137231328 139200192 141280448 143471520 145770896 
975.804 148177344 150693104 153322400 156066288 158918192 161860128 
978.697 164865376 167898880 170925136 173911456 176824384 179630256 
981.590 182290496 184759536 186994288 188958720 190633792 192021472 
984.482 193142656 194030896 194719568 195240512 195621216 195886032 
987.375 196064512 196191088 196301280 196430080 196603808 196837504 
990.268 197138720 197512176 197964080 198505984 199150944 199908096 
993.160 200777216 201747504 202799568 203911152 205065936 206253536 
996.053 207468880 208706464 209953792 211188576 212384336 213513776 
998.946 214557664 215508832 216369376 217145536 217842000 218458912 
1001.839 218995088 219452480 219841984 220183696 220502336 220822448 
1004.731 221159472 221520256 221906384 222320816 222774784 223289600 
1007.624 223889616 224597088 225422976 226364048 227405744 228528768 
1010.517 229717664 230961936 232255824 233592768 234960256 236340816 
1013.409 237717024 239078672 240430512 241791120 243188384 244646128 
1016.302 246175568 247770064 249409936 251069632 252727264 254371936 
1019.195 256001328 257617616 259221904 260813648 262394128 263972752 
1022.087 265572272 267227056 268971744 270833056 272816896 274907296 
1024.980 277069376 279261728 281447104 283592576 285670432 287648544 
1027.873 289481952 291117152 292496576 293569312 294304576 294690720 
1030.766 294729728 294426624 293780736 292785632 291436128 289738848 
1033.659 287720128 285421344 282893888 280182848 277316512 274309344 
1036.552 271167840 267902160 264537328 261113312 257678800 254286384 
1039.446 250980320 247797728 244774912 241949104 239364256 237069504 
1042.339 235105776 233500688 232260464 231370784 230802096 230520672 
1045.232 230498864 230714880 231151424 231790416 232604784 233559152 
1048.125 234615808 235737232 236894944 238069296 239241856 240390384 
1051.018 241482848 242476320 243328176 244003968 244484480 244767840 
1053.911 244862160 244774816 244503792 244034496 243343104 242405824 
1056.804 241202000 239716528 237937984 235851760 233440944 230692192 
1059.697 227603824 224196752 220516624 216633856 212627648 208573184 
1062.590 204537584 200569184 196703920 192971696 189396304 185998560 
1065.483 182792512 179780704 176953792 174292448 171775968 169385696 
1068.376 167111424 164950128 162901808 160963952 159127920 157378912 
1071.269 155699040 154073440 152492288 150951040 149448352 147981120 
1074.162 146542880 145124368 143716224 142313904 140919392 139541024 
1077.055 138188960 136872080 135596000 134362496 133174064 132036792 
1079.948 130961584 129963560 129057736 128253624 127553936 126954960 
1082.842 126450912 126037880 125718488 125500528 125396448 125417944 
1085.735 125572680 125865176 126296520 126867488 127578872 128429856 
1088.628 129413920 130512504 131695312 132918584 134130848 135285888 
1091.521 136345056 137285968 138103520 138807392 139419104 139967024 
1094.414 140487872 141021744 141607952 142284096 143076128 143994240 
1097.307 145030576 146160592 147348144 148548480 149718656 150816784 
1100.200 151801952 152639072 153295344 153746256 153981392 154007072 
1103.093 153847312 153536432 153115040 152619824 152076976 151505696 
1105.986 150918352 150324784 149735232 149157328 148592208 148029888 
1108.879 147447936 146813616 146086448 145228896 144208016 142996848 
1111.772 141577152 139936064 138067904 135977808 133685064 131226360 
1114.665 128649608 126013696 123377440 120788912 118287616 115899336 
1117.558 113639464 111516992 109535720 107694664 105986504 104397536 
1120.451 102907832 101492096 100125784 98785888 97452136 96107464 94735656 
1123.827 93319296 91842600 90292704 88664928 86965088 85211808 83433768 
1127.202 81662744 79932408 78271784 76701720 75236872 73884600 72644880 
1130.577 71512128 70474672 69516168 68616352 67755608 66917828 66092820 
1133.952 65279148 64483524 63719480 63003696 62354840 61791864 61330952 
1137.328 60986852 60771052 60690036 60745140 60931336 61238692 61652836 
1140.703 62157936 62740072 63386208 64086148 64830720 65609404 66410564 
1144.078 67221832 68030632 68828200 69609656 70374640 71125824 71867296 
1147.453 72603128 73337040 74073256 74818120 75578816 76363952 77180632 
1150.829 78032160 78917776 79832568 80770192 81724568 82691752 83669808 
1154.204 84657000 85650024 86643232 87627520 88593080 89529392 90425584 
1157.579 91269616 92046104 92733320 93306352 93736296 93994664 94059176 
1160.954 93912760 93544456 92947704 92118280 91053400 89753944 88226208 
1164.330 86483768 84546768 82441784 80197152 77840424 75399632 72901264 
1167.705 70372032 67840632 65334640 62879444 60497352 58203600 56008516 
1171.080 53918056 51935288 50062400 48301336 46653476 45119320 43697944 
1174.455 42386812 41181828 40078608 39072612 38159448 37334740 36593744 
1177.831 35931128 35341404 34819504 34361476 33965848 33633196 33365514 
1181.206 33165262 33033922 32971506 32976366 33046544 33180356 33377822 
1184.581 33640388 33970652 34370984 34842512 35384252 35992680 36661336 
1187.956 37380388 38137196 38914140 39689608 40439952 41138916 41764292 
1191.332 42299548 42736772 43076916 43329160 43508332 43630572 43711944 
1194.707 43766360 43802828 43826796 43839188 43837316 43815872 43768488 
1198.082 43689852 43577196 43430912 43254628 43053500 42832900 42596328 
1201.457 42345640 42080752 41800920 41505044 41192248 40860600 40505744 
1204.833 40120908 39695964 39218992 38679368 38069376 37386776 36635236 
1208.208 35825324 34972604 34095036 33213760 32350228 31523642 30752542 
1211.583 30051582 29431204 28898324 28455772 28103196 27837948 27656580 
1214.958 27555420 27530990 27580240 27699876 27886032 28134588 28441052 
1218.333 28801726 29213940 29676282 30188062 30748986 31357824 32012492 
1221.709 32710876 33450608 34230352 35049860 35909140 36808092 37745416 
1225.084 38718632 39723956 40756684 41810184 42876528 43944428 44998500 
1228.459 46020652 46989688 47883632 48683044 49370468 49932128 50358656 
1231.834 50644020 50787912 50796592 50684944 50477144 50203452 49900984 
1235.210 49607672 49358812 49188416 49125260 49193796 49415536 49806844 
1238.585 50378268 51133156 52065748 53160676 54391928 55728232 57131656 
1241.960 58559724 59971012 61320232 62562392 63657628 64569944 65274520 
1245.335 65760300 66029476 66096828 65986076 65729544 65363600 64925976 
1248.711 64456388 63988148 63544968 63136412 62754312 62373276 61954016 
1252.086 61455256 60839088 60080468 59172592 58126436 56968460 55732076 
1255.461 54455588 53174904 51917664 50704976 49547652 48448232 47402688 
1258.836 46402944 45440332 44507416 43600272 42718964 41867104 41049680 
1262.212 40272256 39539404 38854168 38218312 37633388 37100424 36620924 
1265.587 36196292 35827664 35514936 35257268 35052808 34899888 34796672 
1268.962 34741856 34734244 34772008 34852136 34969876 35119300 35294072 
1272.337 35487752 35694872 35910936 36131828 36354240 36575504 36794244 
1275.713 37010828 37227548 37447776 37673932 37905736 38137996 38361288 
1279.088 38561596 38723560 38834132 38883264 38866380 38784204 38641884 
1282.463 38447692 38211656 37945224 37659908 37365940 37073212 36789776 
1285.838 36522048 36276500 36058524 35874192 35729836 35630660 35579884 
1289.214 35577256 35618940 35697064 35801936 35924396 36056940 36195460 
1292.589 36339108 36489544 36649472 36822120 37011076 37219644 37452040 
1295.964 37712892 38007168 38339140 38711932 39127540 39586516 40089108 
1299.339 40635472 41225804 41859548 42535336 43249796 43998252 44775956 
1302.715 45578124 46401468 47243444 48101448 48971912 49850064 50729776 
1306.090 51605900 52475308 53337316 54192860 55043280 55887760 56722364 
1309.465 57540344 58332736 59091304 59808228 60476596 61089772 61639548 
1312.840 62116148 62510044 62812320 63016912 63120896 63123652 63025108 
1316.216 62825264 62524168 62124216 61631756 61059416 60425184 59749632 
1319.591 59054484 58357296 57670952 57004652 56363864 55753356 55178812 
1322.966 54645984 54161744 53732328 53363240 53060172 52829568 52679276 
1326.341 52618572 52656120 52797576 53042464 53382500 53802492 54280292 
1329.717 54791960 55314092 55824904 56306256 56743472 57124324 57440304 
1333.092 57686956 57864164 57975928 58029024 58031520 57990168 57910656 
1336.467 57796900 57651612 57478128 57280696 57064312 56834820 56597900 
1339.842 56358276 56119168 55881768 55645328 55406268 55158612 54894440 
1343.218 54604616 54281232 53919220 53518040 53082076 52619468 52140648 
1346.593 51655492 51173044 50701624 50249092 49824720 49439744 49105860 
1349.968 48835220 48637496 48518252 48478420 48513880 48616668 48775272 
1353.343 48976956 49208456 49456116 49707824 49953804 50187276 50405764 
1356.719 50611036 50807204 50998356 51185940 51367116 51534636 51678036 
1360.094 51786052 51850868 51870056 51849188 51801212 51746712 51709872 
1363.469 51713232 51776908 51913072 52126044 52412500 52762740 53161120 
1366.844 53585736 54012192 54413184 54759484 55024136 55181564 55208012 
1370.219 55085708 54801132 54349344 53734428 52972464 52091076 51126448 
1373.595 50124160 49131012 48186664 47320472 46544880 45857712 45246312 
1376.970 44694340 44188192 43720736 43294016 42918296 42610512 42388416 
1380.345 42267296 42255868 42352396 42541948 42793592 43064148 43296580 
1383.720 43426996 43395540 43146476 42639604 41860096 40827292 39600088 
1387.096 38267700 36937548 35701884 34619440 33712108 32970108 32366936 
1390.471 31870306 31451962 31088516 30761220 30456312 30163588 29878586 
1393.846 29603916 29349732 29130170 28957646 28837876 28767028 28734886 
1397.221 28727238 28731662 28741080 28754674 28776942 28814508 28872014 
1400.597 28949180 29040994 29138674 29233504 29318748 29391600 29454216 
1403.972 29513046 29577454 29656132 29755616 29878798 30025092 30191826 
1407.347 30375608 30573864 30784660 31007514 31243158 31493430 31760924 
1410.722 32049160 32361686 32701478 33070144 33467676 33892584 34342368 
1414.098 34814260 35306112 35816148 36342388 36883008 37435100 37996104 
1417.473 38565616 39146936 39748792 40381400 41053688 41766664 42510484 
1420.848 43268136 44019816 44749360 45444120 46099276 46717412 47306652 
1424.223 47877936 48440596 48999876 49554672 50099136 50623768 51118696 
1427.599 51573400 51977228 52320952 52595868 52795216 52915756 52958648 
1430.974 52931288 52845996 52720724 52574212 52420984 52269864 52121184 
1434.349 51970132 51812672 51655232 51522248 51460584 51524152 51754548 
1437.724 52165084 52736140 53425628 54178292 54938772 55648940 56252884 
1441.100 56706432 56975260 57041036 56900164 56559700 56033736 55339608 
1444.475 54498372 53531800 52460164 51305024 50089132 48841452 47604252 
1447.850 46429084 45370180 44472284 43756724 43221980 42848260 42610544 
1451.225 42486256 42460388 42524920 42673160 42893568 43167884 43467024 
1454.601 43754600 43993784 44151072 44211780 44188928 44125544 44071888 
1457.976 44058868 44088572 44140436 44188852 44214128 44208848 44173816 
1461.351 44112960 44026380 43906780 43739572 43510200 43212172 42856304 
1464.726 42470364 42091852 41752584 41466216 41228680 41023900 40833808 
1468.102 40643040 40440388 40215800 39953804 39630724 39215800 38679080 
1471.477 38007276 37218308 36366852 35524720 34753952 34084136 33509910 
1474.852 33006358 32548246 32125470 31745702 31429664 31198226 31064776 
1478.227 31029328 31082180 31210580 31406406 31669564 32007642 32431550 
1481.603 32949376 33563884 34271940 35067604 35945560 36904252 37944392 
1484.978 39064348 40256332 41499284 42754468 43969508 45076092 45995936 
1488.353 46653620 46979168 46924492 46477868 45671164 44577060 43287356 
1491.728 41892936 40458388 39014176 37565684 36100432 34604264 33077400 
1495.104 31541922 30045758 28656338 27437554 26433482 25657088 25095852 
1498.479 24722002 24505048 24418920 24440794 24549820 24726772 24950892 
1501.854 25202234 25461872 25707778 25913306 26043846 26048840 25865264 
1505.229 25425930 24683246 23645730 22397158 21072544 19792738 18618776 
1508.604 17549916 16554099 15595935 14654549 13727100 12827563 11978998 
1511.980 11200694 10505753 9895098 9360996 8890856 8471563 8092405 7745148 
1515.837 7425470 7133746 6874095 6653594 6477663 6345711 6249429 6172291 
1519.695 6092210 5990172 5857596 5705152 5559272 5451353 5399484 5400994 
1523.552 5436758 5480847 5512759 5521316 5509470 5490075 5480478 5492759 
1527.409 5528766 5582295 5644122 5708174 5773174 5842115 5917682 5998437 
1531.267 6077728 6144565 6189365 6210573 6219144 6236488 6282776 6368777 
1535.124 6489401 6629639 6769485 6891129 6982435 7036380 7051298 7029645 
1538.982 6977116 6901531 6813877 6728226 6659448 6618604 6609285 6625332 
1542.839 6653123 6676608 6683707 6670787 6644846 6618604 6604911 6609386 
1546.697 6627183 6645754 6650498 6631254 6586812 6526735 6466632 6422443 
1550.554 6401762 6401459 6410068 6414406 6405898 6383201 6353377 6327925 
1554.411 6316898 6323925 6343459 6362657 6365549 6333574 6249631 6103635 
1558.269 5902668 5679202 5483162 5359597 5325013 5366809 5458232 5570851 
1562.126 5681384 5771395 5830562 5857126 5858201 5847689 5841140 5849603 
1565.984 5875228 5911535 5946435 5968639 5971293 5955404 5929338 5907035 
1569.841 5902903 5925508 5977440 6055686 6154446 6266674 6384075 6497573 
1573.698 6594987 6664596 6698244 6696965 6675531 6658943 6675027 6739634 
1577.556 6852485 7000719 7168778 7343573 7518270 7693072 7872026 8060674 
1581.413 8263284 8480889 8711650 8952006 9197029 9441107 9677868 9898928 
1585.271 10094902 10257615 10381598 10466513 10517837 10547440 10569948 
1588.646 10601625 10657854 10750533 10888451 11076952 11317022 11604662 
1592.021 11928387 12269939 12602961 12896813 13123411 13259317 13292899 
1595.396 13224986 13069559 12849132 12589386 12316296 12050906 11808489 
1598.772 11600306 11433315 11311207 11234423 11200184 11203482 11237144 
1602.147 11295325 11373038 11467334 11576451 11698633 11831200 11970483 
1605.522 12111787 12249865 12379771 12495290 12589419 12654094 12679680 
1608.897 12657608 12582223 12452973 12276109 12064805 11837567 11613239 
1612.273 11406985 11227011 11073112 10937956 10809976 10677380 10531382 
1615.648 10370875 10203982 10048885 9926793 9852999 9833477 9863066 9929437 
1619.505 10016129 10106128 10183934 10236989 10258531 10249779 10220400 
1622.881 10185936 10162361 10160699 10183595 10225386 10276750 10328730 
1626.256 10374438 10410749 10437800 10458299 10476323 10496282 10522828 
1629.631 10559899 10610214 10674493 10750669 10834128 10916039 10985869 
1633.006 11031510 11040823 11005036 10922903 10805457 10675104 10561461 
1636.382 10489357 10468618 10494551 10551920 10623864 10694122 10751145 
1639.757 10789764 10810655 10820302 10826960 10838239 10857603 10882608 
1643.132 10905303 10914579 10898712 10847275 10755356 10625834 10472012 
1646.507 10315157 10180745 10090834 10056921 10078997 10146725 10244079 
1649.883 10349292 10435288 10471537 10422153 10257140 9971951 9611535 
1653.258 9265466 9016952 8899074 8889165 8941453 9012047 9071793 9106271 
1657.115 9111380 9090402 9049836 8996149 8932625 8859371 8773349 8670849 
1660.973 8549043 8408251 8252815 8091291 7935429 7796793 7683730 7599660 
1664.830 7541904 7503133 7472424 7437806 7386811 7309639 7200713 7061031 
1668.688 6899276 6729841 6570026 6434414 6331523 6262472 6222001 6199817 
1672.545 6182105 6154446 6102492 6016545 5896455 5755076 5615356 5500745 
1676.402 5425317 5388078 5376873 5373652 5363756 5339872 5304183 5265780 
1680.260 5235630 5219969 5214872 5205952 5170710 5087460 4944904 4755159 
1684.117 4554246 4389941 4294894 4271772 4300851 4354262 4409555 4451832 
1687.975 4474362 4477241 4464587 4442794 4418493 4399614 4392920 4402861 
1691.832 4430375 4470680 4513097 4541388 4538074 4489394 4394024 4268627 
1695.689 4146978 4065263 4041952 4070380 4123061 4165578 4162734 4090682 
1699.547 3948988 3768334 3602054 3496892 3470739 3508750 3580338 3653708 
1703.404 3705169 3721410 3699087 3645021 3573255 3501334 3441882 3400805 
1707.262 3376795 3364406 3357060 3349481 3339096 3325841 3311150 3296827 
1711.119 3284441 3274492 3266546 3259636 3252792 3245181 3236134 3224484 
1714.977 3207193 3179623 3136835 3075631 2998487 2915453 2842340 2795917 
1718.834 2785179 2810024 2861318 2926027 2990247 3042730 3077800 3094251 
1722.691 3095653 3088211 3078767 3072494 3071627 3075831 3083106 3091114 
1726.549 3097288 3099124 3094919 3084140 3068223 3051138 3039193 3037558 
1730.406 3048936 3069724 3090247 3094618 3065119 2989079 2867355 2721057 
1734.264 2585242 2495522 2468530 2497422 2560444 2631776 2690284 2721124 
1738.121 2718690 2686650 2636410 2583476 2540580 2514751 2505253 2506786 
1741.979 2512685 2518784 2522983 2526415 2530548 2536714 2544979 2554345 
1745.836 2562710 2568243 2570210 2568277 2562510 2553145 2539613 2521150 
1749.693 2497255 2469230 2440306 2416716 2405387 2411551 2436574 2476861 
1753.551 2524949 2570476 2602475 2612475 2596509 2557478 2504987 2452435 
1757.408 2412284 2390361 2384997 2388362 2389828 2379200 2350749 2304679 
1761.266 2247988 2191505 2146450 2120811 2116483 2130400 2155440 2183612 
1765.123 2206791 2218447 2214916 2195934 2166263 2133797 2108059 2095140 
1768.980 2096505 2106327 2113819 2107559 2079126 2027225 1960852 1896652 
1772.838 1851861 1836621 1851095 1886402 1931097 1974732 2011846 2041640 
1776.695 2066608 2089580 2111821 2131966 2146883 2153976 2153076 2147083 
1780.553 2141389 2141189 2148348 2160868 2173988 2182047 2181015 2171125 
1784.410 2155141 2138858 2127437 2123774 2128103 2138558 2152477 2167595 
1788.268 2181681 2192870 2197566 2191538 2169826 2129735 2071935 2003358 
1792.125 1935757 1880745 1847169 1836987 1845638 1865471 1888532 1909797 
1795.982 1926371 1937987 1944676 1946540 1942080 1929633 1907967 1877783 
1799.840 1842344 1807008 1777296 1757135 1748186 1749018 1756769 1768513 
1803.697 1781655 1795096 1808305 1820849 1832395 1842244 1849698 1854523 
1807.555 1856786 1856985 1855521 1852892 1849066 1844274 1839150 1834791 
1811.412 1832195 1832628 1835889 1841013 1846304 1849997 1850862 1849232 
1815.270 1846603 1845405 1847934 1855488 1867667 1883108 1899481 1914623 
1819.127 1927636 1939085 1950035 1961917 1975131 1988279 1998331 2000662 
1822.984 1991075 1967076 1929666 1884239 1839748 1806043 1789939 1793499 
1826.842 1812464 1838418 1860812 1870396 1862942 1840514 1811399 1786679 
1830.699 1776332 1785115 1810934 1847102 1885370 1918850 1943711 1959720 
1834.557 1969406 1976396 1983785 1993272 2005022 2018936 2034882 2054157 
1838.414 2078693 2110223 2149080 2193836 2240261 2282461 2313739 2327697 
1842.271 2319968 2290455 2244824 2194202 2153143 2135295 2147649 2189806 
1846.129 2253683 2327830 2400323 2461898 2508319 2539880 2560677 2575876 
1849.986 2589142 2601742 2611942 2617109 2615142 2606042 2592009 2576176 
1853.844 2560911 2546512 2531348 2512718 2488424 2458533 2424646 2390028 
1857.701 2357179 2327197 2299249 2272002 2244391 2216948 2192204 2173056 
1861.559 2161468 2157006 2157372 2158304 2157472 2153776 2148381 2142987 
1865.416 2138425 2132498 2120611 2097238 2058785 2006553 1948304 1895387 
1869.273 1859780 1849099 1863308 1896386 1938086 1979159 2012878 2036979 
1873.131 2051560 2059317 2062580 2062413 2059117 2052093 2041140 2026659 
1876.988 2009716 1991108 1971603 1951732 1931596 1912094 1894522 1880578 
1880.846 1871194 1866036 1863308 1860446 1855055 1846104 1834757 1823311 
1884.703 1814327 1808970 1806475 1804080 1798224 1786180 1767083 1742597 
1888.561 1716284 1693364 1677997 1673008 1678629 1692666 1711560 1731087 
1892.418 1746756 1755805 1756503 1749517 1737740 1725532 1717115 1715519 
1896.275 1721540 1732784 1746290 1758366 1767316 1773104 1777862 1783252 
1900.133 1790971 1800786 1811067 1820084 1827371 1833127 1839050 1846736 
1903.990 1856519 1866935 1875820 1880445 1879414 1873324 1864106 1854323 
1907.848 1845705 1838617 1831729 1824376 1816290 1808604 1803081 1801318 
1911.705 1803314 1807839 1812198 1814827 1814793 1813429 1811799 1810301 
1915.563 1806941 1797525 1778095 1746656 1705373 1661699 1624781 1601268 
1919.420 1592654 1593685 1594683 1585737 1561096 1521194 1473515 1430230 
1923.277 1401177 1392069 1401210 1421255 1442697 1458255 1464373 1462311 
1927.135 1455529 1447949 1442331 1438973 1438009 1439273 1443428 1451473 
1930.992 1463275 1477738 1491535 1500911 1503871 1499714 1490571 1479799 
1934.850 1470024 1462045 1455064 1446852 1436513 1424546 1413642 1406130 
1938.707 1403503 1404334 1404933 1401243 1390938 1375416 1358630 1346964 
1942.564 1343873 1350221 1362120 1374452 1382529 1384988 1383858 1383227 
1946.422 1386551 1393797 1402506 1408058 1406395 1396656 1381532 1366275 
1950.279 1355838 1352946 1356403 1361322 1363948 1360325 1349756 1333968 
1954.137 1315190 1293954 1269562 1239721 1201078 1152737 1095698 1032589 
1957.994 967895 905801 849127 800261 761922 736132 725545 730756 748479 
1962.334 774004 798999 816693 823498 819846 808991 796709 786751 779747 
1966.673 774237 767664 757839 745890 735104 727204 723885 723288 721595 
1971.013 715621 704702 690465 677058 668065 663485 661162 657412 651273 
1975.353 646760 653198 681140 738323 824560 929143 1035114 1127356 1193336 
1979.692 1231315 1246301 1247929 1245005 1242878 1243177 1244639 1246832 
1983.550 1251119 1260756 1278601 1305619 1339452 1374551 1406229 1431294 
1987.407 1450675 1468163 1487014 1508958 1531535 1549823 1559067 1558036 
1991.264 1549590 1541011 1541344 1555609 1585006 1624947 1667885 1706737 
1995.122 1737241 1758034 1769678 1773737 1770543 1758267 1737275 1707934 
1998.979 1673939 1640446 1612908 1593120 1579785 1568345 1552616 1529440 
2002.837 1499149 1465869 1436081 1414806 1403869 1401210 1401908 1400911 
2006.694 1395925 1387116 1376180 1365843 1356237 1346465 1335962 1325493 
2010.552 1318015 1318547 1331542 1357467 1394562 1435948 1474712 1504469 
2014.409 1524186 1533862 1538285 1541044 1544835 1549624 1555709 1562426 
2018.266 1571471 1584374 1601035 1620258 1637053 1646599 1644537 1630834 
2022.124 1609083 1586070 1569542 1563490 1568711 1581580 1596213 1607553 
2025.981 1612608 1611677 1606289 1599705 1593519 1589362 1588298 1592422 
2029.839 1604227 1625280 1656045 1694030 1734114 1772073 1804678 1833493 
2033.696 1862942 1898283 1944377 2001094 2064977 2129035 2187309 2235732 
2037.553 2274667 2306977 2336525 2366107 2396258 2424879 2450002 2470529 
2041.411 2487358 2503587 2523016 2548512 2580443 2617875 2657378 2695351 
2045.268 2729860 2758936 2783112 2804154 2825365 2850111 2881463 2920957 
2049.126 2966693 3014836 3057945 3089313 3104496 3103495 3090347 3074129 
2052.983 3063951 3067022 3085842 3117111 3153022 3185230 3206559 3214003 
2056.841 3209196 3196445 3180357 3165337 3153989 3146680 3144478 3148649 
2060.698 3159630 3178554 3203989 3232796 3260938 3284441 3300967 3311350 
2064.555 3318262 3324472 3332619 3342602 3352820 3361234 3367011 3371118 
2068.413 3375760 3384141 3396931 3413128 3430427 3445122 3454640 3458849 
2072.270 3458949 3457112 3455108 3453071 3449764 3444220 3436639 3428891 
2076.128 3424516 3426553 3436472 3452603 3471273 3487339 3497626 3501200 
2079.985 3499363 3495823 3493785 3494754 3498027 3501835 3504240 3504374 
2083.843 3503405 3502937 3505075 3510520 3518002 3525418 3530362 3531264 
2087.700 3527823 3521276 3512825 3503171 3493251 3482596 3471307 3460251 
2091.557 3450299 3442350 3436706 3433032 3429559 3425518 3420475 3415566 
2095.415 3412326 3412393 3415733 3420742 3424683 3424783 3420274 3412259 
2099.272 3403877 3399135 3401139 3410723 3427221 3448228 3471440 3495589 
2103.130 3520407 3545928 3572353 3599080 3624739 3648128 3669413 3689363 
2106.987 3709647 3732071 3756201 3780734 3803028 3820443 3832978 3842071 
2110.844 3851263 3864769 3884360 3909467 3936483 3960457 3977343 3984499 
2114.702 3983229 3976039 3967178 3959688 3955107 3953101 3952666 3952499 
2118.559 3952064 3951997 3952532 3953970 3956076 3958149 3959287 3959554 
2122.417 3959119 3958718 3958083 3956511 3952098 3942735 3926954 3904185 
2126.274 3875400 3842004 3805936 3768100 3728462 3686522 3641747 3594436 
2130.132 3545394 3496858 3450833 3409187 3373255 3344305 3322836 3309514 
2133.989 3303805 3304606 3307978 3310048 3305841 3292487 3269618 3239740 
2137.846 3207026 3175851 3149450 3127624 3109335 3092316 3075097 3058546 
2141.704 3044164 3033887 3027481 3022843 3015436 3001523 2979237 2949379 
2145.561 2915987 2883965 2856415 2834203 2815360 2795484 2771774 2742597 
2149.419 2707987 2670447 2631409 2590242 2545046 2493656 2433109 2363742 
2153.276 2286192 2201695 2111056 2014542 1912859 1811399 1721340 1659105 
2157.134 1645435 1697290 1820084 2004656 2226606 2453801 2654845 2809991 
2160.991 2911217 2963524 2979671 2973232 2956851 2938604 2922825 2912117 
2164.848 2907948 2910883 2920090 2933667 2948078 2959821 2967093 2970129 
2168.706 2971931 2976067 2986610 3004026 3026847 3050204 3068523 3077266 
2172.563 3073862 3059247 3036523 3011232 2988145 2971997 2965425 2968228 
2176.421 2978169 2989780 2997286 2994884 2979270 2951414 2916521 2883265 
2180.278 2861585 2858416 2877594 2915553 2964524 3015303 3059113 3090614 
2184.135 3109068 3117512 3119948 3121249 3124119 3130427 3140473 3154524 
2187.993 3172880 3195744 3223149 3253694 3286110 3317694 3346142 3369115 
2191.850 3384943 3391755 3389618 3378565 3360032 3336792 3312252 3290484 
2195.708 3274525 3266279 3265612 3270853 3279900 3289448 3298863 3307344 
2199.565 3315123 3321367 3325941 3326842 3323938 3317627 3309581 3303404 
2203.423 3302169 3308145 3321868 3341567 3364607 3387948 3410289 3430661 
2207.280 3449931 3468768 3487205 3504641 3520207 3532600 3541987 3549302 
2211.137 3555783 3562097 3568144 3572487 3573823 3570583 3562966 3552543 
2214.995 3541218 3532366 3527856 3529994 3539615 3556852 3582409 3615418 
2218.852 3654711 3698018 3742331 3784343 3821880 3853670 3880181 3902681 
2222.710 3922473 3939157 3951328 3956779 3953636 3942267 3925382 3908130 
2226.567 3895827 3893420 3902547 3921972 3948286 3976842 4003426 4026267 
2230.425 4045062 4060881 4075096 4088909 4102523 4115735 4128346 4140488 
2234.282 4152665 4166013 4180699 4197527 4216363 4236739 4258555 4281777 
2238.139 4305570 4330133 4354363 4377155 4397003 4412702 4422877 4427497 
2241.997 4426894 4421739 4413907 4405304 4398208 4395095 4397840 4407011 
2245.854 4421940 4441187 4461741 4481560 4498834 4513432 4526355 4538978 
2249.712 4552572 4567807 4584616 4602666 4621821 4642685 4665961 4692487 
2253.569 4722231 4753651 4784036 4810335 4829968 4842030 4846687 4845582 
2257.427 4840053 4831074 4818744 4802428 4782461 4759748 4736835 4716704 
2261.284 4702669 4696306 4697980 4705918 4717542 4730873 4744339 4757973 
2265.141 4772780 4789865 4809665 4831509 4854025 4874934 4892459 4905192 
2268.999 4912498 4914743 4912565 4907371 4900501 4893464 4887399 4882473 
2272.856 4878821 4875470 4871750 4867160 4862301 4858850 4858783 4864413 
2276.714 4876643 4895207 4917927 4941653 4963706 4981905 4995814 5006003 
2280.571 5014417 5022595 5032048 5043177 5055345 5068117 5080420 5091115 
2284.428 5099965 5105765 5108481 5107944 5104424 5098323 5090276 5081091 
2288.286 5070933 5059971 5048641 5037043 5026350 5017869 5012942 5012473 
2292.143 5016394 5023299 5031344 5038316 5042841 5044317 5043512 5041769 
2296.001 5040127 5039221 5039020 5038383 5036573 5032953 5028059 5022461 
2299.858 5017333 5013176 5010160 5007378 5003959 4998998 4991792 4982173 
2303.716 4970174 4956064 4940145 4922417 4903483 4883746 4864077 4845046 
2307.573 4827087 4809967 4793048 4775192 4755527 4733385 4709067 4683076 
2311.430 4656349 4629925 4604440 4580464 4558365 4538777 4522170 4508644 
2315.288 4498031 4489394 4481392 4472554 4461474 4447749 4431380 4413739 
2319.145 4395799 4379431 4365575 4354899 4347000 4341010 4335253 4326887 
2323.003 4312865 4290645 4258287 4215627 4164809 4109848 4055430 4006336 
2326.860 3965907 3935480 3914082 3899270 3888338 3879178 3870987 3864301 
2330.718 3860423 3860289 3864033 3870920 3879545 3888906 3898200 3906993 
2334.575 3915352 3923142 3929595 3934544 3937619 3939292 3940395 3942301 
2338.432 3946079 3951730 3958752 3965740 3971425 3975504 3978447 3981757 
2342.290 3987074 3995534 4007941 4025397 4049109 4082354 4129450 4194249 
2346.147 4279334 4384083 4503655 4630025 4753752 4865083 4955193 5018204 
2350.005 5051054 5054138 5030473 4985726 4927009 4860626 4792344 4725614 
2353.862 4662444 4603168 4547717 4496558 4450058 4409589 4376453 4352187 
2357.719 4337261 4331873 4335287 4346431 4363433 4384686 4408049 4431915 
2361.577 4455113 4477107 4498366 4519961 4544000 4572528 4607856 4650957 
2365.434 4701765 4759380 4821290 4885053 4947753 5007780 5063357 5114348 
2369.292 5160818 5204041 5245758 5288318 5334237 5385562 5443770 5509202 
2373.149 5581355 5658858 5740471 5825290 5913450 6005760 6103500 6207682 
2377.007 6318512 6435457 6557008 6681184 6806674 6932403 7057798 7182555 
2380.864 7306405 7428739 7548343 7663664 7773314 7875771 7969917 8055240 
2384.721 8131430 8198484 8256732 8306512 8348630 8383929 8413285 8437406 
2388.579 8456798 8471428 8481361 8486126 8485923 8480889 8471495 8458657 
2392.436 8443386 8426325 8408691 8391259 8375180 8361196 8350252 8342787 
2396.294 8339206 8339545 8343868 8352278 8364776 8381632 8402779 8428082 
2400.151 8456833 8487849 8520354 8553233 8586420 8620250 8655841 8694511 
2404.009 8737580 8786028 8840603 8901103 8967429 9038604 9113749 9191715 
2407.866 9271287 9351652 9432269 9513477 9595580 9679867 9766678 9856321 
2411.723 9948422 10041764 10134718 10225318 10312172 10394189 10470416 
2415.099 10540514 10604239 10661386 10712325 10757361 10797373 10833278 
2418.474 10866198 10897047 10926166 10953824 10979548 11003065 11023523 
2421.849 11040415 11053126 11061385 11065328 11065872 11064002 11061793 
2425.224 11061216 11064105 11071548 11083988 11100883 11121788 11146570 
2428.600 11175739 11210588 11252819 11303998 11364943 11435118 11513229 
2431.975 11597175 11684610 11774035 11864569 11956247 12049067 12143577 
2435.350 12240220 12338999 12440459 12545183 12654094 12768424 12889270 
2438.725 13017318 13152986 13296213 13446561 13603218 13765642 13932781 
2442.101 14103818 14278312 14456027 14637380 14823368 15015472 15215313 
2445.476 15424241 15642682 15870202 16105715 16346896 16591515 16837548 
2448.851 17082824 17325996 17565784 17801564 18032878 18259720 18482116 
2452.226 18699678 18911882 19117090 19313286 19498100 19668880 19823706 
2455.602 19960790 20079350 20178262 20256436 20312504 20344416 20350144 
2458.977 20327678 20275460 20192840 20079870 19937096 19766034 19568942 
2462.352 19347894 19105872 18845334 18568698 18278380 17976204 17664298 
2465.727 17345204 17021620 16697315 16376348 16062701 15760379 15472343 
2469.103 15200695 14946226 14708872 14488023 14283277 14093379 13917864 
2472.478 13756067 13607355 13471237 13347052 13234244 13132017 13040023 
2475.853 12956925 12881863 12813332 12749999 12690427 12633626 12578880 
2479.228 12526050 12474898 12424945 12375748 12326897 12277983 12229723 
2482.604 12183104 12139862 12101565 12069268 12042662 12020725 12001274 
2485.979 11982029 11961457 11938944 11915139 11891573 11870085 11851869 
2489.354 11837567 11827012 11819317 11813222 11807911 11802838 11797799 
2492.729 11793645 11791091 11791228 11794871 11802736 11814652 11830383 
2496.104 11848769 11868451 11888440 11907749 11925867 11942725 11958528 
2499.480 11973310 11987411 12000797 12013605 12026107 12039119 12053086 
2502.855 12068791 12086404 12106200 12127664 12150119 12173289 12196667 
2506.230 12220249 12244003 12267520 12290458 12311797 12330374 12344930 
2509.605 12354509 12358327 12356145 12347861 12334533 12316943 12296730 
2512.981 12275496 12254670 12235040 12216432 12197791 12177311 12153185 
2516.356 12124564 12091584 12056016 12019669 11985129 11953828 11926105 
2519.731 11901177 11877611 11854149 11830451 11806685 11784044 11763753 
2523.106 11746562 11732400 11720827 11710751 11701561 11693050 11685494 
2526.482 11679606 11676339 11676032 11679198 11686175 11696659 11710648 
2529.857 11727839 11747345 11768248 11789151 11809137 11827284 11843628 
2533.232 11858372 11872469 11886431 11900597 11914798 11928761 11942385 
2536.607 11955770 11969870 11985435 12003590 12024914 12049441 12076797 
2539.983 12106301 12137272 12168894 12200858 12232245 12262408 12290902 
2543.358 12317011 12340566 12362247 12382566 12402545 12422695 12443084 
2546.733 12463612 12483252 12501770 12518718 12534304 12549037 12563703 
2550.108 12578983 12595219 12612956 12632501 12654367 12678418 12704518 
2553.484 12731710 12758393 12783097 12804357 12821625 12835071 12846027 
2556.859 12855856 12865923 12876197 12886266 12894560 12899680 12900568 
2560.234 12896983 12889372 12878894 12866708 12853466 12839917 12826130 
2563.609 12812070 12797873 12783507 12769345 12755287 12741468 12727479 
2566.985 12713592 12699604 12686162 12673778 12663237 12655152 12650206 
2570.360 12648704 12651331 12658461 12670605 12687391 12708612 12732665 
2573.735 12758563 12784565 12809988 12834389 12858347 12881863 12905790 
2577.110 12929957 12953920 12977169 12999325 13020698 13042345 13065428 
2580.486 13091379 13121055 13154557 13191205 13230111 13270215 13310733 
2583.861 13351016 13391029 13430431 13469187 13506818 13543188 13578056 
2587.236 13611389 13643288 13674027 13703504 13732024 13759828 13787669 
2590.611 13816298 13846878 13880163 13916393 13954884 13994235 14033007 
2593.987 14069250 14102175 14132125 14159921 14187033 14215107 14245065 
2597.362 14277490 14311939 14347588 14383823 14419992 14456370 14493607 
2600.737 14533007 14575664 14622713 14674907 14731872 14792547 14855425 
2604.112 14918586 14980247 15039619 15096564 15151937 15207387 15264009 
2607.488 15322939 15384418 15448103 15512965 15578385 15643300 15707195 
2610.863 15769519 15829617 15886767 15939973 15988408 16031381 16068924 
2614.238 16101247 16128961 16152758 16172945 16189557 16202867 16212944 
2617.613 16220305 16225807 16230555 16235163 16240221 16245620 16250849 
2620.989 16255492 16259344 16262440 16265400 16268736 16273173 16278850 
2624.364 16285557 16293056 16301107 16309466 16318513 16328663 16340291 
2627.739 16354052 16370259 16389320 16411515 16437115 16466573 16499957 
2631.114 16537370 16578091 16621880 16667807 16715255 16764017 16814092 
2634.490 16865862 16919636 16975242 17032302 17089716 17146482 17201840 
2637.865 17255138 17306790 17357204 17407520 17458774 17511242 17565234 
2641.240 17620058 17674894 17728766 17781094 17831426 17879966 17927132 
2644.615 17973682 18020064 18066658 18113604 18160898 18208406 18256090 
2647.990 18304126 18352410 18401218 18450722 18501098 18552202 18604490 
2651.366 18658204 18713722 18771426 18831458 18893540 18957396 19022470 
2654.741 19088180 19154488 19221740 19290390 19361232 19434894 19511616 
2658.116 19591230 19672974 19755772 19839140 19922318 20004782 20086812 
2661.491 20168752 20251018 20334034 20418172 20503718 20590776 20679448 
2664.867 20769460 20860638 20952668 21045138 21137554 21229922 21321998 
2668.242 21414266 21507354 21601856 21698330 21796878 21897506 21999658 
2671.617 22102354 22204900 22306390 22406544 22505464 22603428 22700754 
2674.992 22797854 22894768 22991458 23087262 23181864 23275120 23366966 
2678.368 23457712 23547844 23637894 23728590 23820568 23914524 24011300 
2681.743 24111532 24216026 24325628 24440444 24560688 24686332 24817242 
2685.118 24953524 25095396 25243214 25397264 25557660 25724020 25895578 
2688.493 26071288 26250096 26431582 26615362 26801656 26990704 27182906 
2691.869 27377946 27575970 27776272 27978362 28181822 28386048 28590616 
2695.244 28794998 28998982 29202352 29405462 29608952 29813708 30020656 
2698.619 30230686 30443802 30659834 30878356 31098552 31320040 31542562 
2701.994 31765662 31989306 32212534 32434300 32653254 32867812 33077006 
2705.370 33280008 33476480 33666204 33848704 34023252 34188480 34343192 
2708.745 34486048 34616316 34733532 34837668 34928864 35007368 35073496 
2712.120 35127668 35169988 35201216 35221408 35230856 35229276 35216268 
2715.495 35191224 35153500 35103092 35040304 34965748 34880356 34784932 
2718.871 34680052 34566016 34443144 34312172 34173816 34029884 33882592 
2722.246 33734132 33587192 33443734 33305622 33173882 33049260 32932148 
2725.621 32822426 32720342 32625962 32539566 32461364 32391850 32331344 
2728.996 32279588 32236372 32201328 32173746 32153264 32139492 32132998 
2732.372 32134034 32143022 32160434 32186054 32219422 32259568 32305072 
2735.747 32354794 32407560 32462258 32518212 32574922 32631784 32688406 
2739.122 32744422 32799200 32852304 32902982 32950450 32993634 33032030 
2742.497 33065424 33093814 33118020 33139154 33158216 33176314 33194088 
2745.873 33211936 33230216 33249314 33269920 33292708 33318572 33348158 
2749.248 33381936 33419438 33459696 33501856 33544808 33588124 33631832 
2752.623 33676696 33723528 33773596 33828288 33888392 33954528 34026944 
2755.998 34105644 34189912 34279400 34373528 34471340 34572544 34676572 
2759.374 34782812 34890660 34998932 35106148 35210484 35310172 35403088 
2762.749 35487396 35561360 35623684 35673572 35710376 35734048 35745164 
2766.124 35744476 35732964 35711452 35681020 35641956 35595132 35540972 
2769.499 35480524 35415528 35347836 35279516 35212460 35147824 35086428 
2772.875 35028276 34973360 34921828 34874180 34831024 34793580 34762568 
2776.250 34738124 34720140 34707400 34698604 34691928 34685328 34676716 
2779.625 34663720 34644056 34615924 34577496 34528056 34467500 34396768 
2783.000 34317300 34231104 34139980 34046080 33950764 33855400 33761204 
2786.375 33669032 33579420 33493086 33410132 33330806 33254966 33182892 
2789.751 33114768 33050798 32991342 32936900 32887504 32843438 32804772 
2793.126 32771434 32743278 32720126 32701586 32687012 32675472 32665614 
2796.501 32656182 32645788 32633000 32617070 32596744 32571528 32540924 
2799.876 32504786 32463044 32416198 32364540 32308788 32248932 32185126 
2803.252 32117334 32045488 31969692 31890806 31810298 31729520 31650428 
2806.627 31574238 31501662 31433012 31367902 31306148 31248072 31193740 
2810.002 31144508 31101294 31065238 31036730 31015770 31001536 30993138 
2813.377 30989578 30990610 30995842 31005556 31020468 31040716 31066732 
2816.753 31098590 31135786 31177864 31224608 31275668 31331398 31392086 
2820.128 31458624 31531944 31612794 31701892 31799636 31905998 32020874 
2823.503 32143592 32273378 32409274 32550138 32694940 32842472 32992128 
2826.878 33143126 33294744 33446274 33596212 33742724 33883664 34016228 
2830.254 34137864 34246880 34342616 34425604 34497524 34560308 34616424 
2833.629 34667848 34716552 34763824 34810920 34859352 34910264 34964668 
2837.004 35023208 35085676 35151236 35219216 35288536 35358692 35429580 
2840.379 35501920 35576500 35654728 35737532 35826008 35921376 36024792 
2843.755 36137664 36260940 36395528 36542016 36700236 36868904 37046908 
2847.130 37231844 37420652 37609292 37792800 37964968 38119400 38250260 
2850.505 38352928 38425140 38467352 38482520 38475460 38452180 38419060 
2853.880 38381664 38345292 38314384 38292528 38282940 38287824 38308524 
2857.256 38345108 38396584 38460472 38534080 38613924 38697008 38780764 
2860.631 38863264 38943280 39019940 39093168 39162496 39228384 39291056 
2864.006 39351236 39409136 39465848 39522240 39579148 39637512 39697960 
2867.381 39760808 39826136 39893728 39963616 40035188 40108588 40183196 
2870.757 40258768 40334024 40407512 40477628 40542812 40602036 40655336 
2874.132 40704460 40751552 40800064 40852920 40912548 40980348 41056964 
2877.507 41141868 41234292 41333548 41439172 41551164 41669676 41794936 
2880.882 41927344 42066736 42212812 42364928 42521776 42682044 42844092 
2884.258 43006124 43166972 43325464 43481488 43634856 43785896 43934644 
2887.633 44081276 44225352 44366616 44504404 44638232 44768132 44893884 
2891.008 45015888 45134836 45251644 45367864 45485252 45605764 45731092 
2894.383 45862612 46001020 46146324 46297616 46453312 46610904 46766932 
2897.759 46916556 47054264 47173296 47266752 47328672 47354872 47343196 
2901.134 47294424 47211600 47099096 46961852 46805312 46634184 46452608 
2904.509 46264776 46074812 45885664 45700392 45520756 45347704 45181192 
2907.884 45020884 44866400 44717772 44575592 44440352 44312676 44192372 
2911.260 44078380 43968848 43861216 43752804 43640644 43522432 43395580 
2914.635 43257776 43107288 42942548 42762692 42567968 42359448 42138984 
2918.010 41909248 41673144 41433484 41192464 40951984 40712936 40475520 
2921.385 40239172 40003360 39766692 39528772 39289280 39048756 38808444 
2924.760 38569744 38334292 38103920 37879564 37662152 37452400 37250544 
2928.136 37056936 36871896 36695876 36529116 36372220 36225572 36089812 
2931.511 35965680 35854004 35755092 35669224 35596064 35534860 35485020 
2934.886 35445508 35415852 35395720 35384720 35382312 35387848 35400032 
2938.261 35417216 35437992 35461112 35485780 35511628 35538452 35565820 
2941.637 35592684 35616996 35635700 35645340 35641564 35620128 35576752 
2945.012 35507888 35410780 35284116 35128208 34945028 34738412 34513812 
2948.387 34276964 34034252 33791396 33552826 33321720 33099714 32886968 
2951.762 32682904 32486216 32295794 32110698 31930462 31755324 31585820 
2955.138 31422578 31266268 31117134 30975346 30840788 30713600 30594128 
2958.513 30482862 30380618 30287704 30204400 30129954 30063052 30002300 
2961.888 29945924 29893280 29843626 29797242 29754376 29715452 29680540 
2965.263 29649000 29619948 29591854 29563372 29532374 29497196 29455350 
2968.639 29404434 29342038 29266254 29175914 29071002 28953006 28824458 
2972.014 28687982 28547232 28405502 28265444 28129320 27999354 27876634 
2975.389 27762284 27656580 27558528 27466180 27376146 27284368 27185834 
2978.764 27076286 26952028 26811030 26652988 26479508 26293744 26099752 
2982.140 25902192 25705528 25513522 25329328 25155218 24992690 24842714 
2985.515 24706290 24584286 24477880 24388078 24315850 24261188 24222754 
2988.890 24197388 24179732 24162358 24136822 24093846 24026044 23928282 
2992.265 23798866 23640448 23459146 23264144 23064934 22871192 22690348 
2995.641 22526716 22382192 22256166 22146460 22050444 21965884 21891234 
2999.016 21825448 21767754 21717382 21673042 21633234 21596006 21559234 
3002.391 21521526 21481522 21439084 21394634 21349388 21305016 21263048 
3005.766 21225052 21192000 21164340 21142044 21124232 21110388 21099292 
3009.142 21090248 21082700 21076370 21071430 21068196 21067362 21069622 
3012.517 21075674 21085796 21100022 21117866 21138632 21161454 21185632 
3015.892 21210962 21238100 21267606 21300944 21338772 21381408 21428572 
3019.267 21479086 21531274 21583470 21634000 21681576 21725254 21764132 
3022.643 21797714 21825448 21846876 21861998 21871162 21875308 21875552 
3026.018 21873358 21870186 21867086 21864960 21864020 21864228 21865448 
3029.393 21866842 21867922 21868096 21866912 21864124 21860012 21854960 
3032.768 21849280 21843358 21837226 21830814 21824194 21817122 21810118 
3036.144 21803882 21799248 21797088 21797890 21801442 21807436 21815066 
3039.519 21823742 21833148 21843706 21855762 21870082 21887158 21906846 
3042.894 21928592 21951454 21974422 21996834 22018340 22039012 22059056 
3046.269 22079206 22100122 22122330 22146216 22172156 22200122 22230114 
3049.645 22261710 22294532 22328018 22361190 22393112 22422976 22450016 
3053.020 22473674 22493774 22510630 22524972 22538024 22551074 22565210 
3056.395 22581020 22598718 22617810 22637602 22657674 22677850 22698554 
3059.770 22720268 22743976 22769430 22796562 22824010 22850342 22874090 
3063.146 22894628 22911812 22926656 22940804 22955510 22972242 22991634 
3066.521 23013782 23037924 23063186 23088658 23113260 23136570 23158306 
3069.896 23178682 23198010 23216954 23235970 23255650 23276344 23298542 
3073.271 23322598 23349064 23378330 23411096 23447324 23486950 23529272 
3076.646 23573592 23618512 23663296 23707210 23749798 23791166 23831454 
3080.022 23870484 23908816 23946592 23984162 24022120 24061170 24101480 
3083.397 24143092 24185022 24226080 24264972 24300818 24333302 24363686 
3086.772 24393474 24424600 24458600 24496180 24536846 24579796 24623314 
3090.147 24666622 24709236 24751116 24792930 24835134 24878150 24922012 
3093.523 24966404 25011220 25056396 25102030 25148794 25197458 25248760 
3096.898 25303442 25361678 25423364 25487696 25553372 25618742 25681940 
3100.273 25741562 25796974 25848770 25898288 25947282 25997654 26050424 
3103.648 26105594 26162530 26219896 26276424 26331800 26386300 26440560 
3107.024 26495568 26551816 26609304 26667046 26724478 26781038 26836582 
3110.399 26892346 26948996 27007666 27068668 27131974 27196522 27261434 
3113.774 27325790 27388992 27451322 27512918 27574486 27636558 27699240 
3117.149 27762920 27827882 27894194 27962108 28031692 28102844 28174856 
3120.525 28247340 28319198 28390080 28459804 28528548 28596562 28664586 
3123.900 28732866 28801550 28870490 28939334 29007872 29076104 29144236 
3127.275 29212842 29282486 29353948 29427268 29502480 29579050 29656346 
3130.650 29733938 29811472 29888914 29966584 30044764 30123384 30202232 
3134.026 30280492 30357554 30433106 30507316 30581188 30656242 30734120 
3137.401 30815640 30901160 30989972 31080400 31170528 31258684 31343650 
3140.776 31425282 31504084 31580936 31657520 31735256 31815394 31899116 
3144.151 31986990 32079234 32175456 32274842 32375786 32476790 32576636 
3147.527 32674116 32768860 32861200 32951702 33041324 33131144 33222132 
3150.902 33315066 33410560 33509012 33610460 33714328 33819800 33925652 
3154.277 34030744 34134316 34236124 34336912 34437908 34540432 34645528 
3157.652 34753556 34864160 34976196 35088656 35200316 35310568 35419876 
3161.028 35529032 35639224 35751924 35867752 35986992 36109576 36234392 
3164.403 36360436 36486840 36612560 36737088 36860464 36982644 37103780 
3167.778 37224372 37344380 37463992 37583600 37703276 37823456 37944208 
3171.153 38065540 38186656 38307112 38426044 38542804 38657384 38770544 
3174.529 38883012 38995692 39109232 39223236 39337448 39450824 39562888 
3177.904 39673852 39784084 39894924 40007392 40122216 40239576 40358968 
3181.279 40479848 40601456 40723528 40845968 40968876 41092328 41216184 
3184.654 41340544 41465272 41591020 41718296 41847692 41979752 42114044 
3188.030 42249400 42384396 42517464 42647684 42774540 42899056 43022512 
3191.405 43146444 43272052 43400304 43531408 43665596 43802496 43942232 
3194.780 44084284 44228364 44374212 44520996 44668192 44815664 44963368 
3198.155 45111708 45260800 45410532 45560828 45711216 45861616 46012180 
3201.531 46163092 46315456 46469756 46626396 46785272 46945828 47107184 
3204.906 47268748 47429852 47590128 47749504 47907496 48063876 48218616 
3208.281 48372408 48526660 48683080 48843564 49009184 49179660 49353204 
3211.656 49526892 49698236 49865080 50027152 50186012 50344520 50505652 
3215.031 50671796 50844080 51021796 51203424 51386584 51568996 51749324 
3218.407 51926816 52101576 52274348 52446296 52618904 52793608 52971488 
3221.782 53152700 53337428 53524640 53713164 53902192 54090580 54278304 
3225.157 54465616 54652976 54840676 55028912 55217192 55405100 55592148 
3228.532 55778148 55963020 56147328 56331684 56516604 56703036 56892116 
3231.908 57084684 57281644 57483420 57689680 57899180 58109956 58320344 
3235.283 58528860 58735164 58939664 59143620 59347748 59552844 59758872 
3238.658 59965380 60172024 60379224 60587896 60799444 61014992 61234804 
3242.033 61457812 61682280 61906480 62129264 62351284 62574604 62801944 
3245.409 63035952 63278332 63529284 63787132 64049856 64315312 64582244 
3248.784 64849988 65119096 65389872 65662624 65936788 66211508 66485628 
3252.159 66758452 67029788 67300400 67571728 67845432 68123256 68406072 
3255.534 68693888 68985664 69279456 69572792 69863160 70149336 70430752 
3258.910 70708168 70983544 71258592 71534664 71812560 72091568 72370520 
3262.285 72647624 72921568 73191328 73456904 73718168 73975184 74227480 
3265.660 74474536 74715472 74949648 75176744 75396832 75610552 75818824 
3269.035 76022416 76222352 76418944 76612344 76801952 76986896 77166064 
3272.411 77338016 77501800 77657136 77804584 77945312 78080576 78211752 
3275.786 78339752 78464816 78586544 78704400 78818088 78927432 79032792 
3279.161 79134160 79232248 79327456 79420344 79511648 79601944 79691944 
3282.536 79781800 79871240 79959176 80044384 80126064 80203936 80278544 
3285.912 80351016 80422472 80493128 80562616 80629264 80691544 80747888 
3289.287 80798288 80843624 80886224 80928128 80971496 81017128 81065600 
3292.662 81116528 81169368 81223808 81279064 81333648 81385672 81433072 
3296.037 81473720 81506344 81531240 81549872 81564664 81578064 81591496 
3299.413 81605320 81618920 81631232 81641312 81649192 81655192 81660664 
3302.788 81666304 81672704 81680664 81690176 81702416 81718568 81740168 
3306.163 81768328 81803368 81845056 81892304 81943912 81999064 82057016 
3309.538 82117856 82181432 82247296 82314768 82383696 82454160 82527840 
3312.914 82606784 82693480 82790088 82897384 83014824 83141080 83274680 
3316.289 83414336 83560632 83714080 83875472 84044920 84221704 84404040 
3319.664 84590208 84779064 84970096 85163952 85360848 85560648 85762280 
3323.039 85963720 86163072 86358880 86550936 86739672 86926312 87111416 
3326.415 87295088 87476736 87655168 87829872 88000264 88166288 88327312 
3329.790 88482336 88629528 88766536 88891144 89002520 89100136 89184480 
3333.165 89255768 89312984 89354712 89378800 89383848 89370296 89340416 
3336.540 89297728 89245960 89187488 89122440 89049176 88965144 88868128 
3339.916 88757392 88634000 88500168 88357640 88207536 88049360 87881232 
3343.291 87701192 87507776 87300600 87080600 86848928 86606832 86355608 
3346.666 86096328 85830024 85558344 85283216 85006688 84729968 84453912 
3350.041 84177952 83901592 83624248 83345968 83066736 82787320 82507728 
3353.417 82227432 81945432 81660904 81373080 81083136 80792544 80503544 
3356.792 80217720 79936344 79659104 79385568 79115112 78846976 78581816 
3360.167 78320032 78062248 77808160 77556984 77307024 77056808 76805312 
3363.542 76551952 76297392 76042312 75787856 75535080 75285376 75039944 
3366.917 74800288 74568312 74345152 74131456 73926904 73729744 73537784 
3370.293 73348536 73159248 72967776 72772432 72571840 72365080 72152128 
3373.668 71933488 71710928 71486544 71262688 71041416 70823408 70608208 
3377.043 70394352 70180416 69965136 69748296 69530712 69313464 69097416 
3380.418 68882984 68669280 68454872 68238864 68020480 67800152 67579080 
3383.794 67358944 67141272 66926764 66716224 66509492 66306448 66107048 
3387.169 65911332 65719248 65530448 65344192 65159284 64974612 64789212 
3390.544 64602584 64415224 64228372 64043900 63864084 63690780 63525328 
3393.919 63367956 63217236 63070236 62923676 62773420 62616780 62452732 
3397.295 62281480 62105408 61927572 61750112 61574860 61401708 61229880 
3400.670 61057892 60884940 60710996 60535896 60360340 60184280 60006692 
3404.045 59826292 59641512 59451120 59255108 59054404 58850608 58645424 
3407.420 58440188 58235240 58030840 57826804 57622440 57417876 57213180 
3410.796 57008544 56804192 56600048 56395704 56190772 55984540 55775812 
3414.171 55563568 55346720 55124492 54896736 54664136 54427832 54189668 
3417.546 53951336 53713692 53477004 53240860 53004652 52768020 52531508 
3420.921 52296248 52064144 51836528 51614296 51397136 51183668 50971936 
3424.297 50759940 50546112 50329340 50109436 49886672 49661796 49435584 
3427.672 49209568 48984484 48761628 48541484 48324036 48108704 47894512 
3431.047 47680496 47465960 47251088 47036728 46823912 46613484 46406224 
3434.422 46201972 45999988 45799648 45600244 45401152 45202040 45002948 
3437.798 44803908 44604780 44405884 44207452 44010100 43814152 43620092 
3441.173 43428532 43238964 43051308 42864972 42678824 42491736 42301920 
3444.548 42107584 41906692 41697764 41481276 41258592 41034020 40812296 
3447.923 40598688 40396748 40207372 40028576 39856680 39686448 39513456 
3451.299 39335020 39150020 38958684 38762356 38562248 38359228 38153804 
3454.674 37946780 37739020 37532264 37328208 37128144 36932608 36740948 
3458.049 36551640 36363104 36173924 35983608 35792040 35600092 35408372 
3461.424 35217272 35026660 34836016 34644920 34452580 34258388 34062492 
3464.800 33865148 33667028 33469968 33275678 33086162 32902766 32725774 
3468.175 32553710 32384106 32214102 32041028 31863708 31682290 31498134 
3471.550 31312808 31127918 30943250 30758126 30571446 30382572 30192288 
3474.925 30002904 29817540 29638892 29468684 29306588 29150332 28996502 
3478.301 28841204 28681362 28514926 28341480 28161952 27978044 27792592 
3481.676 27608524 27428380 27254696 27088416 26929464 26776068 26625792 
3485.051 26475354 26322294 26165274 26003952 25840050 25675332 25512012 
3488.426 25351562 25194824 25041652 24891448 24743398 24597084 24451624 
3491.802 24306810 24161972 24017008 23871952 23726982 23582616 23439246 
3495.177 23297354 23156838 23017660 22878944 22740868 22603254 22466522 
3498.552 22331646 22198902 22068676 21940790 21814542 21688854 21563240 
3501.927 21437380 21311556 21186434 21063674 20944186 20829144 20719100 
3505.302 20613636 20511570 20410776 20309104 20203774 20093334 19977130 
3508.678 19855856 19732124 19608526 19488050 19372838 19263996 19161206 
3512.053 19063806 18970790 18881184 18794262 18709398 18625590 18541726 
3515.428 18455874 18366824 18273680 18176168 18075156 17971956 17868194 
3518.803 17765112 17663230 17562576 17462464 17362376 17261828 17160442 
3522.179 17058286 16955534 16852082 16747830 16642157 16534204 16423145 
3525.554 16308192 16189007 16066037 15940696 15815081 15691495 15572513 
3528.929 15459364 15352460 15250419 15151422 15053100 14953257 14851173 
3532.304 14746029 14638305 14527764 14414546 14297932 14177585 14053266 
3535.680 13925836 13796664 13668078 13542162 13421033 13305813 13197080 
3539.055 13094828 12998370 12906677 12818349 12731369 12643826 12553539 
3542.430 12458803 12358498 12252489 12141055 12024778 11904242 11780129 
3545.805 11653773 11527418 11404434 11288592 11183626 11090787 11009590 
3549.181 10936019 10864465 10789356 10706076 10613373 10512609 10408272 
3552.556 10304978 10206729 10115319 10029998 9948761 9869133 9789282 9708701 
3556.413 9627694 9546567 9466199 9386119 9305646 9223969 9140954 9056636 
3560.271 8971827 8888184 8806789 8729162 8656044 8587399 8521942 8457204 
3564.128 8388929 8311376 8219452 8109183 7980616 7838659 7692633 7554985 
3567.986 7436087 7342764 7275607 7230595 7200510 7177367 7155034 7128660 
3571.843 7095517 7054397 7004793 6946914 6881131 6808694 6731557 6652248 
3575.700 6573693 6497977 6426478 6359227 6295483 6233933 6173905 6114959 
3579.558 6056996 6000621 5945629 5892357 5840603 5790803 5743124 5697800 
3583.415 5654461 5610791 5563501 5507557 5437530 5349634 5243545 5123165 
3587.273 4997021 4875872 4770502 4687798 4629221 4591481 4568075 4550998 
3591.130 4532717 4507874 4472822 4426760 4370562 4307343 4240788 4174443 
3594.988 4111755 4054259 4002590 3956411 3914382 3874932 3836354 3797312 
3598.845 3756302 3712788 3666439 3617957 3568545 3519739 3473745 3431729 
3602.702 3394627 3362036 3333120 3305674 3277263 3245114 3206092 3157761 
3606.560 3098523 3028516 2950346 2869089 2791215 2722791 2667646 2625909 
3610.417 2593609 2564844 2532914 2493289 2444805 2390028 2335259 2286758 
3614.275 2249287 2224075 2208222 2195634 2179283 2152544 2110789 2052626 
3618.132 1980590 1900446 1820383 1748552 1691934 1653417 1632297 1624116 
3621.990 1623583 1624481 1622952 1617697 1609682 1601800 1596179 1591923 
3625.847 1584507 1564887 1521327 1443628 1327720 1182372 1028438 893416 
3629.704 800759 759897 764345 797871 841690 880501 904074 909321 898563 
3634.044 877612 852878 828942 807431 787116 765806 741377 713464 682932 
3638.384 651771 621940 594632 570180 548316 528677 511327 497361 487741 
3642.723 483860 485452 491324 498887 504394 503498 492153 466744 425483 
3647.063 368010 295755 211546 119464 25149 -65004 -143711 -203064 -236910 
3651.402 -243102 -223299 -184219 -135265 -88326 -53938 -41018 -54137 -92102 
3655.742 -147719 -209091 -263964 -303600 -324989 -330220 -324691 -314361 
3659.599 -303997 -296382 -293037 -294428 -300223 -309891 -322042 -334988 
3663.457 -346046 -353032 -353992 -348397 -337471 -323930 -311977 -306183 
3667.314 -312242 -334922 -378457 -442743 -523831 -610959 -688244 -740940 
3671.172 -759761 -745042 -706538 -661083 -628065 -624425 -661646 -739385 
3675.029 -843204 -946402 -1020785 -1050667 -1036949 -993711 -939162 -889268 
3678.886 -851901 -828454 -814267 -803022 -789462 -771734 -751194 -731182 
3682.744 -714444 -701146 -689733 -677790 -664293 -650695 -642027 -644806 
3686.601 -665417 -707365 -769121 -843204 -918662 -984819 -1034041 -1064153 
3690.459 -1076812 -1075325 -1062467 -1040156 -1010141 -974438 -935955 
3693.834 -898857 -866352 -841187 -823858 -813209 -806528 -801402 -796871 
3697.691 -793464 -793861 -801104 -817905 -845023 -881365 -922630 -963197 
3701.549 -997116 -1019066 -1026339 -1019165 -999695 -971463 -939063 -906528 
3705.406 -877099 -852761 -834804 -822766 -816152 -813672 -814796 -820054 
3709.264 -830505 -847767 -873230 -905900 -942898 -977810 -1003827 -1014571 
3713.121 -1006736 -981215 -942369 -897732 -854117 -818037 -793596 -781888 
3716.979 -781425 -788602 -799516 -810860 -820749 -829678 -838872 -849454 
3720.836 -861987 -874784 -885366 -891020 -890193 -884308 -876405 -871544 
3724.693 -874057 -886556 -907817 -932979 -954106 -963131 -954469 -926697 
3728.551 -883977 -833448 -784964 -748118 -729429 -731116 -750466 -780962 
3732.408 -813936 -843700 -868601 -892111 -919059 -953279 -993182 -1032454 
3736.266 -1061410 -1071226 -1058732 -1026206 -980223 -927689 -873230 -818632 
3740.123 -763631 -708192 -655095 -611918 -590974 -606194 -667965 -774843 
3743.980 -907388 -1031429 -1109136 -1119844 -1067425 -974240 -868501 -775108 
3747.838 -712691 -690395 -707960 -756255 -821576 -889367 -948088 -991596 
3751.695 -1016488 -1019992 -1000587 -958371 -896740 -822667 -745902 -676401 
3755.553 -621845 -586473 -570888 -572212 -585712 -607187 -633325 -661514 
3759.410 -688476 -709846 -719175 -711632 -685532 -644343 -596102 -551497 
3763.268 -520720 -509666 -518172 -540278 -565660 -584256 -590279 -584223 
3767.125 -572212 -562615 -562152 -573966 -595805 -621646 -643416 -654831 
3770.982 -653276 -639943 -618238 -592595 -566950 -543356 -522739 -504801 
3774.840 -488915 -474750 -462172 -452573 -447840 -450852 -463430 -486168 
3778.697 -516881 -550702 -580484 -599775 -604805 -595738 -576811 -554442 
3782.555 -534851 -522441 -518337 -520455 -525055 -528365 -528001 -524096 
3786.412 -518139 -512082 -507184 -503047 -498679 -493251 -486400 -479185 
3790.270 -472929 -468494 -465482 -462073 -456181 -446549 -434037 -422253 
3794.127 -415997 -419406 -434368 -457836 -482925 -499638 -500300 -481568 
3797.984 -447013 -405702 -370214 -354025 -366341 -410138 -477596 -552721 
3801.842 -614036 -643913 -636105 -595606 -536440 -475411 -429238 -409740 
3805.699 -421856 -460848 -513373 -561656 -588624 -586440 -556957 -509799 
3809.557 -456016 -405437 -363030 -329161 -300786 -274660 -249361 -227902 
3813.414 -216708 -223299 -253600 -307673 -376670 -443603 -489577 -501757 
3817.271 -478258 -428509 -369121 -320155 -297806 -312606 -365215 -444663 
3821.129 -529523 -595474 -625616 -615459 -573403 -514267 -454526 -407092 
3824.986 -378590 -368923 -372134 -379318 -381039 -372035 -352370 -326645 
3828.844 -302077 -285124 -279594 -285885 -300521 -318036 -332405 -339193 
3832.701 -336081 -323830 -304560 -282905 -263501 -251911 -252937 -269958 
3836.559 -303633 -350350 -403285 -452607 -488981 -507019 -506191 -490570 
3840.416 -466376 -440657 -418215 -401928 -391898 -386767 -384019 -381073 
3844.273 -375345 -365049 -348893 -326347 -297706 -263998 -226743 -187233 
3848.131 -146328 -104425 -61923 -20907 14612 36482 33367 -7024 -94488 
3852.470 -228034 -392626 -555534 -681363 -745505 -743851 -689931 -605036 
3856.328 -509699 -417486 -336279 -268667 -213595 -169679 -135198 -109527 
3860.185 -92500 -83754 -82727 -88160 -99688 -117543 -142718 -175210 -212635 
3864.525 -248334 -273336 -278799 -260388 -220550 -169116 -120823 -90446 
3868.382 -88889 -118636 -171732 -230154 -273898 -290190 -277607 -245851 
3872.240 -208893 -180841 -169050 -173157 -185146 -193260 -187431 -162160 
3876.097 -119829 -67753 -17229 21703 40889 36415 8846 -35352 -85742 -129965 
3880.919 -156960 -160107 -139803 -102504 -59339 -22431 -3247 -7985 -35816 
3885.259 -77327 -117146 -139604 -134271 -100384 -45722 16401 72006 109488 
3889.598 121453 107168 71575 25779 -18289 -49863 -62850 -56622 -34623 -2418 
3894.420 34228 70614 103025 129407 148565 160100 163878 160663 151216 137494 
3899.242 121652 106373 93580 83969 76944 70117 60506 45859 26110 3479 -17660 
3904.546 -31873 -34888 -25048 -3777 25248 57425 88476 115454 137395 154763 
3909.367 168651 180452 191126 201236 211115 221192 232199 244299 257262 
3913.707 269794 279840 284714 282924 274105 259881 243172 227690 216087 
3918.047 209557 207601 208761 212010 217049 224143 234320 247581 262368 
3922.386 276425 286604 290417 287367 279277 269231 261539 259019 262633 
3926.726 271021 281631 291644 299038 303050 303945 302519 299502 294794 
3931.065 288063 279078 268369 257395 248874 244929 247217 255704 269131 
3935.405 285444 302254 317805 331798 344266 356104 367777 379285 389665 
3939.745 397293 400742 398951 391821 380777 368175 356933 350069 349373 
3944.084 355242 366584 380877 395336 407109 414538 417192 415965 412880 
3948.424 409895 408801 410260 413676 418021 422001 425052 427175 428568 
3952.763 430425 432780 436030 439480 442498 444521 445616 446213 447175 
3957.103 449065 452117 455931 459845 462864 463958 463129 460442 456528 
3961.443 452581 449530 448137 449132 452913 459845 469464 480941 493314 
3965.782 505057 514810 521710 525658 527648 528909 531231 535875 543340 
3970.122 553160 563710 573265 580199 583617 583252 580100 575057 569616 
3974.461 564739 560923 558269 556743 555748 555416 555416 555847 556478 
3978.801 557506 558734 560392 562284 564871 568222 572635 578043 584479 
3983.141 591513 598713 605548 611488 616266 619617 621674 622371 622305 
3987.480 621641 620712 619982 619650 619982 620712 622039 623466 624860 
3991.820 625789 626121 625789 624959 623964 623367 623765 625689 629970 
3996.159 636474 645101 655189 665509 674038 679414 680476 676859 669359 
4000.499 659470 
##END=
