
##TITLE=Z305_1_c
##JCAMP-DX=5.01  $$ Nicolet v. 1
##DATATYPE=INFRARED SPECTRUM
##ORIGIN=UniL
##OWNER=Nicolet
##LONGDATE=2011/09/08
##TIME=14:36:38
##SPECTROMETER/DATA SYSTEM=Nicolet iS5
##DATA PROCESSING=
Ratio against background
%Transmittance->Absorbance
Truncated
ElementMultiply or ElementDivide
##COMMENTS=
Number of sample scans: 32
Collection length: 51.19 sec
Sample gain: 2.0
Background collected on: Jeu Sep 08 14:27:12 2011 (GMT+02:00);
Number of background scans: 32
Background gain: 2.0
Sample spacing:  1.000
Number of scan points: 12415
Resolution points: 8192
Number of FFT points: 65536
Apodization: N-B fort;
Phase correction: Mertz;
Laser frequency: 15798.0 cm-1
Number of rejected sample scans: 0
Number of rejected background scans: 0
Bench serial number: ASB1000141;
##RESOLUTION=4.000
##XUNITS=1/CM
##YUNITS=ABSORBANCE
##FIRSTX=649.893372
##LASTX=4000.122314
##FIRSTY=0.117321
##MAXX=4000.122314
##MINX=649.893372
##MAXY=0.265507
##MINY=-0.001279
##XFACTOR=1.000000
##YFACTOR=1.000000E-009
##NPOINTS=6950
##DELTAX=0.482117
##ZPD=6100
##XYDATA=(X++(Y..Y))
649.893 117320960 117533552 117816128 118148808 118497592 118833328 
652.786 119152528 119485584 119884616 120404832 121072080 121872496 
655.679 122754384 123653056 124515008 125317160 126068088 126790088 
658.571 127499400 128189784 128833536 129394320 129847544 130187664 
661.464 130430760 130599872 130716208 130788344 130815832 130792456 
664.357 130713032 130569432 130344152 130000424 129482928 128731432 
667.250 127725216 126526280 125286880 124172912 123283688 122610448 
670.142 122069504 121545144 120932720 120168112 119232320 118152936 
673.035 116982576 115779152 114577720 113385272 112191720 110987112 
675.928 109777168 108586576 107447832 106384576 105401320 104482584 
678.820 103604008 102746976 101910448 101110496 100371320 99709736 99126904 
682.195 98607720 98130896 97679736 97251592 96857992 96516472 96239488 
685.570 96024624 95856592 95712216 95573080 95430784 95289352 95158688 
688.945 95045928 94950088 94863392 94777568 94693672 94627328 94605576 
692.320 94655384 94794432 95020888 95315928 95649192 95992920 96331800 
695.694 96665848 97005448 97361248 97735544 98118184 98489816 98827608 
699.069 99113832 99338144 99493896 99573824 99565984 99454320 99225696 
702.444 98877616 98423064 97887736 97302168 96691224 96065048 95420048 
705.819 94745184 94032184 93282120 92508456 91729176 90961544 90214360 
709.194 89486728 88773528 88072008 87386208 86727496 86108536 85536112 
712.569 85005880 84502808 84005592 83493360 82952816 82379176 81773328 
715.943 81137056 80469968 79769816 79036800 78278448 77512536 76762568 
719.318 76054744 75407512 74827136 74306736 73830280 73379608 72936656 
722.693 72487736 72021088 71525168 70987800 70399728 69758568 69072200 
726.068 68359960 67648728 66963016 66320464 65726764 65177576 64663372 
729.443 64176052 63714108 63282052 62887564 62535680 62226988 61956384 
732.817 61716536 61501864 61311032 61147560 61016632 60920968 60859328 
736.192 60825900 60813892 60818808 60840384 60881700 60946244 61033716 
739.567 61139356 61252732 61361784 61456748 61531836 61584180 61612472 
742.942 61612280 61576388 61496180 61365796 61186044 60965000 60716216 
746.317 60451460 60175644 59883412 59561548 59194196 58769228 58284912 
749.692 57749624 57179576 56591824 56001052 55415864 54839928 54274512 
753.066 53720780 53181272 52658776 52155260 51670836 51203720 50751748 
756.441 50314756 49894368 49493808 49116208 48762964 48432820 48123508 
759.816 47833024 47561108 47309756 47081296 46876656 46693172 46525260 
763.191 46366848 46213544 46065452 45927208 45806788 45711840 45647168 
766.566 45614152 45611136 45635612 45686000 45761796 45862244 45985512 
769.940 46128308 46287920 46465516 46668896 46911608 47208828 47567208 
773.315 47975728 48398184 48778532 49045948 49131940 48992716 48616480 
776.690 48030976 47290804 46470680 45643816 44867320 44181148 43602800 
780.065 43132788 42759732 42467328 42237680 42052824 41898152 41763272 
783.440 41642396 41534868 41444528 41377356 41338504 41330888 41354100 
786.815 41405528 41481676 41580624 41702684 41849700 42024904 42230376 
790.189 42467988 42738856 43045012 43389900 43778344 44215412 44704260 
793.564 45244472 45830724 46452020 47092376 47730680 48339852 48889912 
796.939 49346784 49675948 49849804 49850624 49677024 49344404 48884128 
800.314 48336964 47744180 47145296 46572320 46047068 45584968 45193768 
803.689 44875512 44626992 44441744 44311244 44227412 44184744 44181408 
807.063 44218088 44295760 44411572 44556092 44713404 44861108 44974872 
810.438 45033744 45021804 44930556 44758028 44507452 44185516 43801728 
813.813 43369472 42905640 42428568 41957528 41507776 41088688 40703260 
817.188 40349444 40022868 39719564 39438596 39181640 38952048 38752396 
820.563 38583792 38445016 38334292 38250116 38192912 38164220 38166644 
823.938 38201344 38267740 38362920 38482192 38620804 38772324 38930304 
827.312 39086100 39227696 39341476 39414000 39434172 39397200 39305492 
830.687 39169092 39001776 38818916 38634820 38460148 38302408 38166104 
834.062 38053060 37962364 37890192 37829892 37772524 37709204 37633788 
837.437 37544620 37445392 37344204 37250800 37173224 37115328 37076896 
840.812 37054488 37043408 37040268 37043732 37054988 37076424 37110024 
844.186 37156980 37217660 37291556 37378472 37477936 37589092 37710140 
847.561 37838384 37970716 38104388 38238936 38375840 38518472 38670204 
850.936 38833116 39007216 39190052 39378372 39569132 39761392 39956096 
854.311 40155868 40363332 40580752 40809096 41048844 41300424 41565420 
857.686 41845356 42142376 42457760 42791360 43143000 43512584 43901028 
861.060 44311024 44745836 45207408 45694724 46201900 46718812 47230696 
864.435 47721140 48173892 48573532 48908196 49169788 49354800 49465736 
867.810 49512228 49510552 49480064 49442936 49418840 49422256 49462876 
871.185 49545092 49669856 49836576 50043476 50287260 50561564 50856148 
874.560 51158576 51454020 51730360 51979844 52200544 52396612 52575672 
877.935 52747440 52920320 53101360 53297684 53514744 53758392 54033576 
881.309 54343676 54689052 55067612 55475464 55907920 56361408 56833800 
884.684 57323344 57828276 58345016 58868364 59393140 59915400 60434132 
888.059 60951620 61471672 61997924 62531212 63069664 63608296 64141832 
891.434 64666024 65177768 65675036 66154668 66610800 67035744 67419616 
894.809 67753864 68033104 68254408 68417240 68521368 68564392 68542000 
898.183 68449872 68285232 68049808 67750416 67398488 67007208 66590480 
901.558 66161648 65732240 65313728 64917320 64552180 64225836 63941508 
904.933 63698032 63491000 63315092 63166076 63043460 62949612 62888564 
908.308 62864320 62878108 62928468 63012124 63125380 63266104 63433824 
911.683 63629048 63850956 64096704 64360848 64636036 64916052 65196976 
915.058 65478816 65764464 66058248 66365740 66691616 67040884 67419464 
918.432 67834232 68291864 68796680 69347824 69937624 70550360 71166072 
921.807 71763424 72323712 72835352 73294904 73707688 74085520 74445856 
925.182 74810600 75201648 75639944 76141248 76711208 77342448 78011336 
928.557 78681608 79303352 79820184 80178944 80329696 80236496 79881824 
931.932 79268920 78425320 77399672 76262760 75092448 73964728 72947352 
935.306 72085424 71402720 70904080 70580960 70418512 70401880 70519096 
938.681 70758512 71106160 71543336 72042360 72569488 73090280 73570752 
942.056 73984728 74316176 74559736 74720392 74812016 74856304 74879336 
945.431 74907792 74967920 75078544 75251024 75488560 75788168 76144168 
948.806 76551280 77006840 77510800 78063440 78663376 79306104 79984424 
952.181 80691104 81421040 82172816 82949088 83753624 84589680 85456720 
955.555 86351488 87269488 88207136 89163568 90140704 91141096 92165504 
958.930 93211232 94272528 95342424 96416056 97492520 98574664 99667008 
962.305 100772472 101891008 103019544 104152784 105287008 106421872 
965.198 107559920 108705512 109861264 111028056 112203904 113387864 
968.090 114581304 115790144 117023400 118291752 119602960 120961432 
970.983 122368928 123826592 125339000 126915856 128569632 130314392 
973.876 132161248 134115592 136178512 138348272 140624224 143007440 
976.768 145499648 148099232 150797088 153574704 156405712 159257520 
979.661 162098032 164897376 167625200 170250352 172736128 175039376 
982.554 177118912 178940560 180485888 181756816 182772976 183566320 
985.447 184169904 184616288 184934448 185151696 185298800 185410944 
988.339 185521360 185661520 185852608 186104640 186420544 186800912 
991.232 187249184 187773936 188386064 189093088 189894624 190780704 
994.125 191734384 192737840 193777616 194847248 195942976 197059472 
997.017 198183216 199290576 200354384 201347360 202251408 203060944 
999.910 203779792 204415872 204974416 205456464 205860704 206188944 
1002.803 206451856 206668880 206864416 207062080 207276976 207514656 
1005.695 207775216 208059696 208376832 208745232 209187504 209724576 
1008.588 210367696 211114864 211952928 212863808 213832080 214846064 
1011.481 215897920 216979184 218076432 219171808 220248816 221298272 
1014.374 222325280 223348400 224394896 225488464 226641232 227849904 
1017.266 229098736 230367232 231638720 232905760 234168832 235432048 
1020.159 236697856 237966448 239238560 240520656 241829920 243192192 
1023.052 244633008 246170048 247804000 249517648 251279408 253055152 
1025.945 254816656 256541856 258213408 259809408 261294848 262624896 
1028.838 263748880 264620304 265210064 265505456 265506976 265217696 
1031.731 264636432 263755200 262565968 261068608 259279424 257228640 
1034.624 254957520 252506608 249907024 247182608 244354064 241445824 
1037.517 238495632 235550416 232661088 229878112 227240704 224778736 
1040.410 222518656 220485760 218710128 217224512 216055168 215216704 
1043.303 214705088 214500096 214569328 214878064 215398720 216109808 
1046.196 216995328 218038304 219214592 220492784 221839280 223221488 
1049.089 224614896 226002656 227368416 228691424 229941520 231078032 
1051.982 232061200 232858912 233453952 233845120 234039968 234045200 
1054.875 233858256 233464896 232842944 231971408 230833168 229417584 
1057.768 227717552 225723600 223423808 220808592 217878720 214654656 
1060.661 211178544 207513840 203731024 199896032 196067088 192286144 
1063.554 188585152 184992688 181533344 178230352 175101008 172151744 
1066.448 169377200 166761920 164287712 161937520 159700848 157573424 
1069.341 155552768 153634496 151809008 150062032 148377664 146743696 
1072.234 145152112 143598976 142080960 140591600 139119472 137650832 
1075.127 136172512 134679072 133173568 131668448 130179840 128724832 
1078.020 127317728 125968752 124687344 123484336 122372616 121366296 
1080.913 120476584 119708280 119058072 118516008 118069656 117708096 
1083.806 117425984 117223472 117104704 117073592 117132208 117280464 
1086.699 117516920 117842288 118259248 118771688 119381208 120083040 
1089.592 120864216 121704160 122577496 123461488 124337840 125195800 
1092.485 126031952 126846448 127642304 128424256 129200072 129981968 
1095.378 130784896 131626264 132518768 133467408 134466736 135502064 
1098.271 136552704 137595840 138610832 139578320 140478224 141289296 
1101.164 141987584 142549664 142959552 143212016 143315392 143288480 
1104.057 143156560 142944256 142670304 142349344 141992688 141610288 
1106.950 141212864 140808256 140397824 139971424 139507584 138975680 
1109.844 138339152 137564896 136625216 135498032 134168432 132626008 
1112.737 130866256 128893856 126726928 124399784 121957608 119455360 
1115.630 116948056 114479856 112086496 109791416 107608136 105546048 
1118.523 103609728 101800488 100113856 98539080 97058600 95648896 94286080 
1121.898 92947176 91611208 90261376 88883048 87462064 85988072 84454712 
1125.273 82863344 81223976 79555624 77883784 76233960 74631224 73095456 
1128.648 71640704 70277048 69009936 67840824 66766568 65778576 64863688 
1132.024 64004196 63182472 62384064 61600180 60830164 60080848 59365068 
1135.399 58697800 58095488 57574132 57147792 56829196 56629080 56554004 
1138.774 56606204 56782480 57074628 57470296 57955444 58516728 59141456 
1142.149 59818684 60537880 61287300 62054376 62826680 63592872 64345592 
1145.525 65081908 65802940 66512348 67214016 67912136 68610176 69312576 
1148.900 70025944 70758632 71519512 72315888 73150584 74021344 74922248 
1152.275 75845888 76785976 77739120 78704248 79680752 80665856 81653384 
1155.650 82633080 83592720 84519760 85401544 86225384 86976624 87635792 
1159.026 88180992 88586704 88827912 88884272 88739992 88384368 87810936 
1162.401 87014720 85993048 84746800 83282224 81613088 79758784 77744504 
1165.776 75596672 73340056 70999656 68599048 66161960 63714684 61282836 
1169.151 58890676 56559928 54306576 52141696 50072700 48103816 46238532 
1172.527 44479588 42828952 41287488 39854316 38526944 37301128 36171872 
1175.902 35134100 34182352 33311344 32515998 31790796 31130696 30531418 
1179.277 29989838 29504500 29075570 28703874 28390186 28134836 27936666 
1182.652 27793932 27704396 27666256 27678510 27741410 27855470 28021090 
1186.028 28237614 28503108 28814048 29165532 29551314 29964098 30394832 
1189.403 30833318 31268760 31690062 32087616 32455116 32789480 33091452 
1192.778 33364582 33614004 33845124 34062528 34269968 34469512 34662144 
1196.153 34847252 35023172 35186768 35334324 35462188 35567188 35647208 
1199.529 35701092 35727928 35726416 35695048 35631704 35534604 35403340 
1202.904 35238224 35039948 34808480 34540968 34231824 33872560 33453074 
1206.279 32965246 32403846 31769336 31067374 30309482 29511806 28692052 
1209.654 27870346 27067224 26300468 25587074 24940082 24368488 23877728 
1213.030 23469182 23141496 22890890 22712762 22602312 22554916 22566536 
1216.405 22633134 22750504 22914536 23120842 23365252 23644718 23956642 
1219.780 24299382 24671602 25072226 25499994 25954140 26434082 26939972 
1223.155 27472004 28030278 28614362 29222480 29852038 30499674 31161808 
1226.531 31834434 32513176 33192548 33865396 34523284 35156876 35756496 
1229.906 36313676 36820896 37271448 37659332 37978744 38225076 38396108 
1233.281 38493744 38525136 38501964 38440780 38360496 38280008 38219104 
1236.656 38195624 38225876 38325568 38507536 38781924 39154952 39627856 
1240.031 40196612 40852120 41581972 42370188 43198224 44046584 44892964 
1243.407 45712980 46483920 47183120 47792484 48300668 48702132 48998020 
1246.782 49194168 49300976 49331636 49301200 49227012 49124484 49005660 
1250.157 48876268 48734120 48568496 48362776 48099856 47764448 47347812 
1253.532 46849152 46275244 45638776 44954732 44240248 43511628 42782292 
1256.908 42063448 41362084 40680952 40019312 39373872 38740916 38117952 
1260.283 37504736 36904000 36320268 35758652 35223456 34718204 34245088 
1263.658 33806116 33403870 33041358 32721952 32448582 32222704 32043916 
1267.033 31910598 31820278 31770512 31759926 31787802 31853904 31957318 
1270.409 32095928 32266312 32463652 32682724 32918028 33164226 33416216 
1273.784 33668636 33916660 34156252 34385832 34606416 34821764 35037292 
1277.159 35256948 35481644 35706600 35922492 36115376 36269696 36372220 
1280.534 36413148 36387676 36296928 36146700 35946572 35708540 35446300 
1283.910 35173152 34900604 34638244 34392216 34166864 33965384 33790824 
1287.285 33647476 33540546 33474546 33452324 33473402 33533354 33624708 
1290.660 33737892 33864392 33997128 34132380 34268892 34407748 34551484 
1294.035 34703668 34869152 35053632 35263344 35505120 35784092 36103276 
1297.411 36463596 36863672 37301884 37777184 38289848 38841196 39432720 
1300.786 40064472 40734192 41437788 42170452 42927512 43705496 44502424 
1304.161 45316224 46144300 46982708 47826476 48671144 49514156 50354376 
1307.536 51192648 52028844 52860704 53683508 54489620 55270024 56016772 
1310.912 56722480 57380480 57983920 58523972 58990068 59372212 59661624 
1314.287 59852952 59944268 59935864 59828420 59622132 59316868 58914204 
1317.662 58419720 57845196 57207664 56527056 55824340 55117080 54418444 
1321.037 53738064 53081964 52455416 51863860 51312628 50806944 50351696 
1324.413 49951012 49609084 49330892 49122552 48991120 48943240 48982592 
1327.788 49108676 49316012 49594676 49931052 50310884 50719724 51142924 
1331.163 51565900 51973720 52350332 52681784 52956476 53167116 53310940 
1334.538 53389096 53404608 53360660 53260376 53106752 52902768 52652644 
1337.914 52361844 52036204 51681956 51304984 50910536 50503568 50087980 
1341.289 49667036 49242188 48813236 48378520 47936244 47485848 47029344 
1344.664 46571988 46121492 45686444 45275176 44893368 44545008 44233276 
1348.039 43961292 43734004 43558072 43440032 43385396 43396528 43471344 
1351.415 43603456 43783660 44001704 44247328 44511160 44785544 45062708 
1354.790 45336196 45600500 45852080 46090800 46318884 46540236 46757484 
1358.165 46970008 47172372 47355500 47507504 47616824 47676392 47684048 
1361.540 47644960 47570388 47477940 47387980 47320288 47292872 47317000 
1364.916 47397368 47530796 47707824 47914156 48130984 48340036 48524180 
1368.291 48667996 48759700 48788060 48741388 48608144 48376260 48036160 
1371.666 47583512 47021480 46362496 45627220 44845532 44051128 43275056 
1375.041 42542424 41866116 41246460 40673932 40134428 39614100 39103684 
1378.417 38601940 38114988 37655212 37235852 36868688 36560292 36311116 
1381.792 36115268 35960244 35828564 35696240 35535000 35315780 35008736 
1385.167 34590196 34048588 33390452 32644358 31855862 31080756 30366296 
1388.542 29741282 29214260 28776978 28413320 28104788 27835298 27591682 
1391.917 27362596 27138640 26912754 26682160 26450280 26227780 26029176 
1395.293 25866812 25746732 25665910 25614874 25581416 25555516 25533692 
1398.668 25518688 25518302 25540720 25590272 25664786 25756752 25855348 
1402.043 25950766 26036176 26109290 26172524 26231792 26295222 26369646 
1405.418 26460352 26569710 26698086 26843912 27004844 27178286 27361290 
1408.794 27551186 27746920 27949174 28160996 28387674 28635526 28910082 
1412.169 29214542 29549860 29914436 30305432 30719360 31153372 31604778 
1415.544 32070528 32547280 33031386 33519752 34012468 34514604 35036464 
1418.919 35588656 36179220 36806544 37457924 38114772 38757248 39369812 
1422.295 39941272 40467412 40950344 41396416 41814308 42211496 42592128 
1425.670 42955276 43295224 43602908 43868400 44081532 44233756 44320012 
1429.045 44339244 44294804 44193000 44043392 43857328 43646760 43424652 
1432.420 43201592 42983624 42770224 42554224 42323904 42068084 41785124 
1435.796 41490608 41223144 41031984 40960428 41027940 41224524 41519664 
1439.171 41872104 42242320 42592784 42891596 43116656 43253128 43293612 
1442.546 43236584 43083248 42836340 42499776 42079840 41584820 41024080 
1445.921 40408896 39751952 39069676 38385976 37730456 37134132 36622796 
1449.297 36208860 35890748 35656204 35490056 35379328 35317144 35301728 
1452.672 35332132 35402224 35498144 35593832 35654188 35641848 35523708 
1456.047 35289184 34961940 34601104 34273660 34022212 33852500 33742476 
1459.422 33662984 33590052 33511698 33423800 33325442 33212472 33075076 
1462.798 32899086 32671650 32388460 32061004 31714120 31379942 31084066 
1466.173 30837268 30635902 30468076 30321454 30186142 30055738 29923098 
1469.548 29776412 29596608 29358736 29037876 28620804 28116914 27561600 
1472.923 27002940 26483102 26022316 25617406 25252308 24912044 24592174 
1476.299 24300362 24052028 23860576 23731916 23660742 23634816 23639504 
1479.674 23664240 23705600 23767016 23856306 23981818 24150026 24364456 
1483.049 24627030 24940222 25307692 25733794 26220530 26765530 27358220 
1486.424 27977656 28595782 29175702 29675220 30052540 30266778 30286708 
1489.800 30098882 29713252 29163122 28494156 27753842 26975966 26175904 
1493.175 25354478 24502526 23610640 22679770 21726230 20784824 19904176 
1496.550 19130942 18497916 18015920 17677688 17464674 17355824 17332582 
1499.925 17377586 17474158 17606292 17757346 17911146 18053188 18166944 
1503.301 18232696 18224680 18106556 17834636 17367238 16684713 15815081 
1506.676 14841299 13874142 12998814 12245469 11596257 11014212 10464036 
1510.051 9924895 9391299 8870902 8377544 7923618 7516720 7156954 6838751 
1513.908 6553812 6294307 6054678 5831704 5626030 5441220 5283723 5159779 
1517.766 5072542 5018942 4989513 4969169 4939777 4887131 4807588 4713321 
1521.623 4628318 4578053 4575408 4615726 4681334 4750503 4806884 4842499 
1525.481 4860861 4873526 4895039 4934582 4993635 5066542 5145596 5225603 
1529.338 5305491 5387339 5472995 5561319 5647143 5723281 5784490 5833148 
1533.196 5881240 5947779 6047858 6186138 6353612 6533529 6705949 6853764 
1537.053 6965533 7034225 7058606 7041970 6992268 6920519 6839727 6764033 
1540.910 6705983 6673613 6667893 6682530 6704738 6719611 6715809 6689192 
1544.768 6645452 6596635 6556066 6531141 6519738 6511464 6492764 6452675 
1548.625 6387875 6304526 6216320 6138718 6081323 6044162 6018896 5994741 
1552.483 5963869 5924904 5884128 5851954 5837614 5843122 5862029 5879662 
1556.340 5877646 5835431 5734629 5566185 5340845 5097350 4889812 4763199 
1560.198 4729131 4770066 4855198 4955126 5047132 5114448 5148311 5148345 
1564.055 5121992 5083504 5047937 5026886 5022629 5029500 5035735 5030338 
1567.912 5006104 4963605 4911124 4863340 4835396 4836803 4869974 4930225 
1571.770 5009758 5098926 5187677 5265914 5322061 5346648 5334606 5291471 
1575.627 5234960 5192170 5189890 5240594 5340376 5472693 5619384 5765250 
1579.485 5901358 6025683 6140432 6249799 6356874 6463370 6568613 6671561 
1583.342 6771167 6867396 6960213 7048873 7131152 7203846 7263579 7308932 
1587.199 7341618 7366590 7390856 7421357 7464569 7523800 7601212 7697591 
1591.057 7813154 7947240 8097030 8256767 8416731 8564318 8687379 8775852 
1594.914 8824710 8834652 8811692 8764863 8703368 8635967 8569319 8508730 
1598.772 8459029 8424433 8408049 8411122 8432237 8467745 8513528 8566345 
1602.629 8625422 8692212 8768886 8856565 8953731 9055621 9155404 9245597 
1606.487 9320303 9375859 9410632 9424244 9416693 9387337 9335808 9263130 
1610.344 9173204 9073045 8972538 8880947 8804456 8744173 8695593 8649689 
1614.201 8595645 8523767 8428487 8311747 8184707 8065771 7974541 7924158 
1618.059 7917713 7948758 8005623 8074109 8140275 8192541 8221850 8224450 
1621.916 8202940 8166981 8131025 8108879 8110162 8136359 8182242 8238801 
1625.774 8297495 8351873 8398691 8437778 8471056 8502242 8534952 8573240 
1629.631 8620622 8679165 8749109 8828294 8911723 8990804 9054877 9092229 
1633.489 9091620 9045979 8956267 8836275 8711008 8609942 8555430 8553673 
1637.346 8596119 8664866 8742481 8813620 8868739 8904993 8925150 8936751 
1641.203 8947811 8965231 8990804 9021046 9047197 9058294 9042697 8991074 
1645.061 8899379 8771659 8621940 8472070 8346604 8266256 8240050 8265344 
1648.918 8329344 8413893 8495721 8547556 8538534 8435717 8214927 7881440 
1652.776 7491874 7142807 6914863 6831077 6858308 6944456 7042980 7124719 
1656.633 7176222 7194447 7183903 7152036 7105958 7049917 6983917 6905100 
1660.490 6809569 6695013 6562525 6418172 6272556 6139323 6029983 5951776 
1664.348 5904751 5883289 5876538 5871400 5854674 5813772 5739598 5628278 
1668.205 5483666 5317097 5145864 4989714 4863910 4776297 4725916 4704679 
1672.063 4699990 4696473 4679291 4635785 4559235 4452937 4332676 4222386 
1675.920 4142997 4104664 4102490 4121790 4144068 4155475 4150457 4132393 
1679.778 4111855 4099245 4099847 4108644 4110316 4082053 4003326 3864501 
1683.635 3680641 3490111 3341534 3266346 3265712 3317827 3393959 3471407 
1687.492 3534771 3577598 3599581 3604593 3598712 3588823 3582509 3586485 
1691.350 3605461 3640109 3685720 3731537 3761315 3757939 3708110 3611275 
1695.207 3485068 3363572 3282738 3259836 3287145 3335824 3370751 3357628 
1699.065 3274926 3126289 2947411 2794350 2712522 2714456 2779277 2872458 
1702.922 2959053 3014902 3027081 2994050 2924960 2836737 2748499 2674147 
1706.780 2619109 2581876 2556911 2538413 2522250 2506853 2492190 2478860 
1710.637 2467163 2456800 2446804 2436075 2424012 2410452 2395359 2378367 
1714.494 2357645 2330062 2291221 2236864 2166929 2087316 2010581 1953230 
1718.352 1929200 1943678 1991974 2061847 2138858 2209488 2264042 2297950 
1722.209 2311674 2309875 2299182 2286691 2277398 2273301 2274234 2278431 
1726.067 2283893 2288257 2289356 2285459 2275300 2259745 2241360 2225207 
1729.924 2215616 2214650 2219146 2219779 2202328 2150845 2055455 1920114 
1733.781 1768879 1638417 1563257 1556873 1609183 1695094 1786745 1862243 
1737.639 1905837 1911861 1884372 1836255 1783884 1741999 1718280 1712092 
1741.496 1717448 1727162 1736077 1742531 1747521 1753309 1762026 1773936 
1745.354 1788242 1803115 1816756 1828069 1836754 1842843 1846104 1845771 
1749.211 1840713 1830698 1817522 1805943 1802582 1815093 1848200 1902210 
1753.069 1971869 2048864 2122043 2180649 2216815 2226872 2214250 2187875 
1756.926 2160302 2142354 2139457 2149713 2165630 2177785 2177019 2158537 
1760.783 2123208 2077561 2032385 1998265 1983053 1988612 2012246 2047133 
1764.641 2085585 2120012 2143786 2153043 2147582 2131233 2110922 2094941 
1768.498 2088981 2093675 2103730 2109324 2100334 2069604 2017339 1952764 
1772.356 1892359 1852360 1841412 1858815 1895288 1939052 1980190 2013444 
1776.213 2038211 2056987 2072501 2085552 2094208 2095074 2085818 2066874 
1780.071 2042838 2021267 2009316 2010515 2023397 2042206 2059517 2069338 
1783.928 2069205 2061015 2049962 2042173 2042173 2051660 2070137 2094641 
1787.785 2122609 2150179 2173289 2186643 2184245 2159803 2110323 2037479 
1791.643 1950800 1865271 1796660 1756803 1748552 1766783 1800952 1839649 
1795.500 1874489 1900080 1914923 1919881 1916420 1905771 1888599 1865105 
1799.358 1836587 1805943 1777396 1755173 1742531 1740601 1747953 1762026 
1803.215 1779991 1799422 1819252 1838850 1857983 1876053 1892292 1905637 
1807.073 1915089 1919848 1919582 1914190 1904007 1889730 1873124 1856153 
1810.930 1842111 1833726 1832461 1838151 1848134 1858549 1865238 1865271 
1814.787 1857884 1844840 1829800 1817355 1811067 1812730 1821880 1836221 
1818.645 1853025 1870329 1886868 1902975 1918717 1933926 1947073 1955726 
1822.502 1956326 1946806 1926371 1897983 1867201 1841612 1828269 1830232 
1826.360 1845771 1868199 1888532 1897085 1887367 1858582 1816457 1772506 
1830.217 1739537 1727794 1740335 1773038 1816357 1860080 1895920 1919549 
1834.074 1931064 1934026 1933260 1933094 1935490 1940516 1947039 1954162 
1837.932 1961784 1971636 1985350 2004190 2027492 2052259 2073400 2085352 
1841.789 2082555 2061748 2022865 1971004 1915355 1867168 1837120 1830665 
1845.647 1847502 1882109 1926205 1971869 2012445 2045202 2070170 2089813 
1849.504 2106927 2123208 2138392 2149980 2155274 2152410 2141755 2126272 
1853.362 2110123 2097271 2089747 2087283 2087483 2087383 2084819 2079326 
1857.219 2071769 2063745 2056221 2049563 2042372 2033917 2023564 2011813 
1861.076 2000062 1990010 1982354 1977328 1974365 1972568 1971969 1972468 
1864.934 1973833 1974266 1970438 1957757 1932096 1891827 1839582 1783385 
1868.791 1733549 1700350 1689572 1700749 1727893 1762591 1797392 1826971 
1872.649 1849798 1866735 1879913 1891128 1901245 1909565 1915422 1918583 
1876.506 1919349 1918717 1917485 1915621 1912393 1906836 1898382 1887401 
1880.364 1875587 1864439 1855754 1849565 1845439 1842444 1840048 1838883 
1884.221 1840314 1845605 1854390 1864972 1873124 1873956 1864006 1841612 
1888.078 1808804 1770276 1733116 1704242 1688275 1687045 1698886 1719810 
1891.936 1744660 1768047 1785747 1794131 1792401 1781156 1762991 1741666 
1895.793 1721706 1706471 1698155 1697190 1702978 1713822 1728193 1744527 
1899.651 1761194 1776764 1789241 1797359 1800653 1799056 1794531 1789407 
1903.508 1785547 1783618 1783252 1782054 1777662 1767848 1752145 1731353 
1907.365 1707934 1683785 1661233 1641144 1624049 1609848 1598873 1592089 
1911.223 1590094 1593685 1602698 1616167 1632596 1650058 1665757 1676733 
1915.080 1679461 1670114 1646299 1608252 1560131 1510421 1469559 1447417 
1918.938 1448548 1470656 1504835 1539581 1562958 1567115 1551286 1520130 
1922.795 1482459 1447351 1420889 1404733 1396623 1392966 1390639 1389742 
1926.653 1391603 1398351 1411049 1428302 1447417 1465037 1478336 1486881 
1930.510 1490970 1491702 1489308 1483390 1473017 1457923 1439672 1421720 
1934.367 1407825 1401077 1402506 1410717 1422518 1434884 1445788 1455064 
1938.225 1462777 1469193 1471587 1466800 1450709 1421354 1379304 1329814 
1942.082 1280894 1239455 1210547 1194632 1188419 1186858 1186093 1184598 
1945.940 1183236 1183602 1187422 1194632 1202839 1210182 1214667 1216362 
1949.797 1216595 1217691 1220781 1226131 1232145 1236531 1237063 1231780 
1953.655 1219353 1198287 1167023 1123868 1067863 1000308 925391 849459 
1957.512 779913 722757 681040 653729 637303 627315 621276 619053 623068 
1961.852 635976 658209 686980 716584 738854 746189 732813 697501 642612 
1966.191 574891 503697 439115 390494 363334 358525 372619 396895 420873 
1970.531 436263 437954 425815 404257 379152 354679 331035 305802 275033 
1974.870 238895 201899 175215 171767 202330 270292 369004 483927 599145 
1979.210 701782 785390 850687 903045 948502 991573 1033088 1072314 1106727 
1983.550 1135794 1158983 1177787 1193469 1207092 1219818 1233740 1250620 
1987.407 1273151 1302628 1337657 1374053 1404667 1423050 1425443 1413410 
1991.264 1393697 1375748 1369167 1378773 1403636 1437145 1471188 1498152 
1995.122 1514078 1518833 1515741 1507927 1497686 1485950 1471554 1453767 
1998.979 1432358 1408290 1382030 1353611 1320707 1280030 1229022 1167421 
2002.837 1097725 1026179 958996 903178 862506 838039 829307 834553 852513 
2007.176 881597 919215 961520 1002566 1037638 1062947 1078824 1088656 
2011.034 1097160 1108388 1122838 1136824 1143734 1137854 1116493 1081216 
2014.891 1038236 995857 962117 941097 934224 939869 956240 980747 1012695 
2019.231 1049528 1088092 1124267 1153402 1172471 1182206 1186226 1190147 
2023.088 1198387 1212475 1229354 1242479 1245337 1233807 1208122 1173634 
2026.946 1137920 1109683 1095134 1098190 1119649 1158651 1213106 1280329 
2030.803 1355040 1431194 1501510 1558835 1599472 1623849 1637452 1647364 
2034.660 1662198 1687244 1724833 1772738 1827304 1884605 1942047 1998365 
2038.518 2053192 2106794 2157805 2205292 2248021 2285326 2316970 2343387 
2042.375 2364575 2381199 2393226 2401856 2409186 2418748 2434642 2460366 
2046.233 2497855 2546779 2604009 2665413 2727226 2784713 2835036 2874826 
2050.090 2902244 2915453 2915453 2905413 2891203 2880663 2880630 2896073 
2053.948 2926995 2968561 3012901 3050838 3075931 3085375 3081304 3069024 
2057.805 3054809 3044131 3040894 3046433 3061382 3084507 3115109 3150552 
2061.662 3187733 3222949 3252559 3274158 3288046 3296493 3303438 3311851 
2065.520 3322802 3334355 3342969 3345040 3339163 3327510 3315357 3309113 
2069.377 3313788 3330949 3358062 3389351 3417970 3438142 3447760 3447226 
2073.235 3439344 3428523 3418805 3412794 3412760 3419740 3434334 3455809 
2077.092 3482529 3512023 3540650 3565070 3583177 3594169 3598980 3599615 
2080.949 3598245 3596307 3594703 3593768 3594102 3596207 3600851 3608669 
2084.807 3619260 3630720 3640744 3646591 3646257 3639408 3627379 3611876 
2088.664 3595138 3578400 3562231 3545995 3529259 3511990 3494687 3478655 
2092.522 3464994 3454640 3448094 3446190 3449230 3457913 3472442 3492349 
2096.379 3516132 3541085 3564168 3583010 3596808 3605929 3612578 3618659 
2100.237 3626076 3635465 3646090 3656950 3667342 3677132 3686522 3696180 
2104.094 3705537 3714092 3721410 3727627 3733876 3742398 3755165 3773013 
2107.951 3794939 3817601 3836488 3848221 3850963 3846182 3837290 3829201 
2111.809 3825490 3828031 3835920 3846984 3858819 3869683 3879245 3888572 
2115.666 3898434 3909167 3920066 3929361 3935480 3937051 3933574 3925516 
2119.524 3913479 3898267 3880649 3861626 3842773 3826092 3813925 3807908 
2123.381 3808376 3813691 3820008 3823418 3819841 3806538 3782906 3749617 
2127.239 3708745 3662329 3612945 3562565 3513225 3466664 3425050 3389818 
2131.096 3361234 3339430 3323136 3311484 3303671 3299765 3299331 3302002 
2134.953 3305608 3307043 3302736 3290116 3268216 3238538 3204423 3169543 
2138.811 3136634 3106665 3079769 3054341 3029583 3005660 2983507 2963724 
2142.668 2946076 2929263 2911150 2889235 2862986 2833102 2801753 2771341 
2146.526 2744131 2719857 2698319 2678315 2659512 2641543 2623909 2603875 
2150.383 2576609 2536080 2475828 2392394 2285959 2162000 2029056 1896353 
2154.240 1772206 1661865 1569542 1499415 1458721 1456327 1502674 1602831 
2158.098 1753409 1938286 2133863 2314105 2457267 2552445 2600008 2608842 
2161.955 2591709 2562577 2533214 2512152 2506053 2519084 2553012 2605842 
2165.813 2672114 2743231 2809290 2861718 2896173 2912251 2912885 2902878 
2169.670 2886633 2865987 2841640 2813826 2783112 2752500 2726192 2708554 
2173.528 2701919 2706554 2719824 2737596 2755235 2769707 2778477 2779177 
2177.385 2770107 2749166 2716623 2674748 2630209 2591942 2568810 2567477 
2181.242 2588675 2627576 2674381 2719090 2754868 2779710 2796384 2809557 
2185.100 2823664 2840072 2855948 2866588 2867522 2856949 2836471 2810124 
2188.957 2783579 2761704 2746798 2739729 2739630 2745498 2756335 2770940 
2192.815 2787547 2803688 2817227 2826098 2830334 2831768 2833602 2838505 
2196.672 2848244 2862785 2878762 2893105 2902911 2907047 2906714 2904946 
2200.530 2905179 2910283 2921724 2939638 2962689 2988712 3014469 3037324 
2204.387 3053040 3059147 3054475 3039827 3018806 2996018 2976401 2962990 
2208.244 2956885 2956851 2960454 2966226 2974399 2987144 3007295 3036090 
2212.102 3072995 3113674 3152454 3184296 3206125 3218810 3225552 3230894 
2215.959 3238404 3249154 3262173 3275226 3286577 3296593 3306843 3319363 
2219.817 3335290 3353855 3372020 3385544 3391855 3390553 3384275 3377530 
2223.674 3375660 3382205 3398067 3421577 3449497 3478721 3507213 3534738 
2227.531 3561596 3589057 3617055 3644921 3671285 3694843 3714827 3731403 
2231.389 3746476 3761382 3778360 3798415 3822348 3849458 3878743 3908264 
2235.246 3936182 3961025 3981556 3997708 4009947 4019311 4027170 4034461 
2239.104 4041651 4048942 4056634 4065196 4075865 4089813 4107941 4130086 
2242.961 4155241 4180298 4202780 4219910 4230683 4235735 4236940 4236907 
2246.819 4237977 4241056 4245940 4251629 4256547 4259693 4261132 4261934 
2250.676 4264076 4269731 4281108 4299312 4325280 4358011 4395765 4436066 
2254.533 4475634 4510954 4539514 4559201 4569414 4570619 4564459 4552773 
2258.391 4537739 4521735 4506769 4494549 4486380 4482932 4484238 4489427 
2262.248 4497495 4507405 4518186 4529770 4542426 4556690 4572796 4590443 
2266.106 4608727 4626408 4642349 4656483 4668841 4680095 4690913 4701129 
2269.963 4710038 4716570 4719987 4720020 4717977 4715766 4715264 4718111 
2273.821 4724341 4733017 4742262 4750201 4755427 4758140 4759246 4760619 
2277.678 4763768 4770133 4779949 4792478 4806884 4821324 4834492 4845615 
2281.535 4854394 4861497 4868232 4876040 4886595 4900568 4917357 4935319 
2285.393 4951908 4964276 4970208 4968364 4959081 4944200 4925702 4905930 
2289.250 4886662 4869103 4853523 4839886 4828159 4818242 4810301 4804003 
2293.108 4799111 4794623 4789832 4783701 4775996 4766683 4756365 4746617 
2296.965 4738443 4733486 4732749 4737104 4746048 4758241 4771908 4784304 
2300.823 4793014 4796298 4793584 4785811 4775158 4764070 4754891 4748493 
2304.680 4744942 4742765 4739951 4734725 4725949 4713421 4697679 4679626 
2308.537 4660167 4640240 4620380 4601293 4583679 4568276 4555953 4547014 
2312.395 4541087 4537438 4534960 4532583 4529570 4526255 4522304 4518487 
2316.252 4514402 4510184 4504995 4498500 4490632 4481928 4473760 4468135 
2320.110 4466629 4470479 4479384 4491436 4503388 4510552 4508343 4493511 
2323.967 4464520 4422710 4371733 4317048 4264076 4217133 4178792 4148918 
2327.824 4125369 4104965 4085097 4064728 4044360 4025966 4011853 4003794 
2331.682 4002222 4006168 4014060 4024427 4036334 4049677 4064527 4080949 
2335.539 4098074 4114632 4129015 4140020 4147313 4151260 4152966 4153936 
2339.397 4155241 4157649 4161697 4167619 4175413 4184580 4194182 4202245 
2343.254 4207096 4207966 4206259 4206226 4214389 4238178 4283617 4352924 
2347.112 4443631 4548855 4659463 4765443 4857376 4928651 4975168 4995881 
2350.969 4992395 4969068 4931365 4885455 4837507 4792512 4753518 4721795 
2354.826 4696674 4675941 4656315 4635116 4610669 4583277 4555050 4528933 
2358.684 4507874 4494047 4487485 4486582 4489159 4492708 4495520 4497194 
2362.541 4498634 4500776 4504794 4511121 4519626 4530105 4542125 4555887 
2366.399 4571926 4591079 4614319 4642618 4675975 4714493 4757470 4803836 
2370.256 4852216 4901507 4950568 4998898 5046697 5094769 5144355 5196630 
2374.114 5252432 5311931 5374726 5439811 5506114 5573300 5641101 5710053 
2377.971 5780495 5852861 5926650 6000621 6073293 6142885 6207783 6267749 
2381.828 6322782 6373686 6421770 6467708 6512070 6554586 6594819 6631893 
2385.686 6665437 6695013 6720722 6743302 6763158 6781028 6797721 6814012 
2389.543 6830303 6846830 6863324 6878808 6892206 6902474 6908433 6910183 
2393.401 6908264 6904326 6900084 6897222 6896818 6899343 6904494 6911867 
2397.258 6920889 6931360 6943345 6956813 6971829 6987856 7004490 7021294 
2401.115 7037895 7054598 7072077 7090836 7111482 7134218 7159042 7185688 
2404.973 7214289 7245048 7278505 7315199 7355199 7398371 7443839 7490694 
2408.830 7538094 7586038 7634628 7684236 7735299 7787684 7840514 7892507 
2412.688 7942515 7989626 8033536 8074379 8112862 8149492 8184471 8217865 
2416.545 8249607 8279764 8308606 8336572 8364033 8391159 8417879 8443893 
2420.403 8468759 8492106 8514407 8535830 8557018 8578409 8600073 8621669 
2424.260 8643233 8664494 8685452 8706748 8728486 8751001 8774634 8799351 
2428.117 8825387 8853285 8883720 8917439 8955117 8996419 9040397 9085936 
2431.975 9131107 9174524 9215880 9255412 9294339 9334251 9376571 9422551 
2435.832 9472803 9527430 9586061 9648494 9713784 9781183 9849813 9919335 
2439.690 9989242 10059905 10131869 10205779 10282212 10361543 10443705 
2443.065 10528462 10615851 10705974 10799784 10897964 11001060 11108904 
2446.440 11220108 11332701 11444268 11552836 11657380 11757933 11855580 
2449.815 11951512 12047125 12143270 12239436 12334771 12428116 12518344 
2453.191 12604871 12687391 12766207 12841248 12912310 12978500 13038385 
2456.566 13090286 13132085 13162208 13179421 13183246 13174025 13152269 
2459.941 13118766 13074715 13020630 12957130 12884662 12803572 12714138 
2463.316 12617219 12513023 12402545 12286778 12166849 12044059 11919634 
2466.692 11794939 11670960 11548344 11427497 11308962 11193452 11081813 
2470.067 10976014 10877409 10787964 10708692 10639586 10579997 10528225 
2473.442 10482603 10441499 10404132 10370569 10341250 10316921 10297378 
2476.817 10281703 10268471 10255681 10241433 10225149 10206457 10186241 
2480.193 10165787 10145911 10127359 10110503 10094937 10080490 10067197 
2483.568 10054887 10043561 10033219 10023555 10013926 10004093 9994124 
2486.943 9984394 9975647 9968934 9964560 9962560 9962254 9962797 9963306 
2490.801 9963407 9963068 9963170 9964153 9966560 9969984 9974053 9977681 
2494.658 9980461 9982325 9983851 9986190 9990768 9997888 10007280 10017621 
2498.515 10026980 10033050 10034575 10030981 10023148 10012874 10002770 
2501.891 9994870 9990768 9990395 9993310 9997718 10001990 10004940 10006059 
2505.748 10005482 10004329 10003855 10005381 10010026 10018266 10030066 
2509.123 10044781 10061126 10077472 10091715 10102092 10107044 10105993 
2512.499 10099040 10087239 10072249 10055667 10039051 10023385 10009314 
2515.874 9997074 9986767 9978427 9971951 9966696 9961678 9955644 9947405 
2519.731 9936388 9922590 9907132 9891708 9877810 9866252 9856897 9848355 
2523.589 9839340 9828528 9815955 9803110 9792333 9786300 9786605 9793722 
2527.446 9806702 9823275 9840527 9856592 9869879 9879980 9887233 9892318 
2531.303 9895640 9897844 9899471 9900928 9902623 9904861 9907709 9910861 
2535.161 9913675 9915539 9916420 9916387 9916658 9918183 9922149 9928997 
2539.018 9938761 9951202 9965712 9982054 10000668 10021283 10044036 10068519 
2542.876 10093105 10115997 10135600 10150388 10160326 10166262 10169960 
2546.251 10173894 10179931 10189294 10202251 10218331 10236072 10253747 
2549.626 10269931 10283298 10293408 10300466 10305250 10309118 10313258 
2553.001 10319025 10326626 10336025 10346544 10357098 10366837 10375286 
2556.377 10382209 10388012 10393035 10397616 10401519 10404505 10405727 
2559.752 10404845 10401757 10396496 10389946 10383261 10377593 10374234 
2563.127 10374030 10377221 10383431 10391881 10400908 10408781 10413804 
2566.502 10414958 10412006 10405761 10397446 10388996 10382413 10378782 
2569.878 10378985 10383057 10390285 10400093 10411531 10423748 10436170 
2573.253 10448796 10461694 10475134 10489527 10505039 10521435 10538273 
2576.628 10554738 10569880 10583664 10596158 10608347 10621997 10638465 
2580.003 10658703 10682575 10709031 10736540 10763100 10787488 10809296 
2583.379 10828828 10847241 10865280 10883763 10902788 10921850 10940538 
2586.754 10958513 10976082 10993618 11012275 11032768 11055914 11082051 
2590.129 11110944 11141708 11173495 11204808 11234287 11260912 11284036 
2593.504 11303862 11321239 11337496 11354161 11372392 11392767 11415388 
2596.880 11439710 11464986 11490706 11516326 11541777 11566651 11591254 
2600.255 11615416 11639239 11663370 11688761 11716810 11748707 11785100 
2603.630 11825752 11869507 11914321 11958153 11999571 12038098 12073833 
2607.005 12108142 12142077 12176288 12210911 12245605 12279619 12312308 
2610.381 12343668 12373839 12403363 12432924 12462554 12492289 12521890 
2613.756 12550878 12578778 12605349 12630147 12652730 12672892 12690359 
2617.131 12705166 12717891 12729219 12740274 12751807 12764432 12778218 
2620.506 12793164 12808691 12824424 12840020 12855479 12870770 12886027 
2623.882 12901386 12916679 12932108 12947571 12963172 12978774 12994443 
2627.257 13009738 13024692 13038896 13052247 13065154 13077958 13091584 
2630.632 13106609 13123616 13143014 13164803 13188985 13215114 13243194 
2634.007 13272845 13304036 13336358 13369502 13403092 13436889 13470485 
2637.383 13503809 13536658 13569133 13601235 13632997 13664590 13696117 
2640.758 13727510 13758871 13789653 13819718 13848520 13875989 13902127 
2644.133 13927546 13952900 13979281 14007307 14037387 14069010 14101867 
2647.508 14134795 14167075 14198605 14229042 14259000 14288961 14319438 
2650.884 14350807 14383069 14416533 14450889 14486276 14522865 14560314 
2654.259 14598622 14637174 14675798 14713877 14751376 14788056 14824190 
2657.634 14860225 14896262 14932509 14969032 15005697 15042501 15079549 
2661.009 15116804 15154442 15192632 15231682 15271732 15312986 15355651 
2664.385 15399626 15445253 15492053 15539509 15587590 15635606 15683353 
2667.760 15731243 15779380 15828378 15878864 15930934 15984660 16039666 
2671.135 16095504 16151795 16208164 16264608 16321162 16377896 16435085 
2674.510 16492523 16549898 16607076 16663607 16719457 16774589 16828970 
2677.885 16882878 16936482 16989816 17042952 17096264 17149654 17203634 
2681.261 17258726 17315444 17374480 17436422 17501650 17570306 17642696 
2684.636 17718448 17797422 17879346 17964082 18051080 18140064 18230864 
2688.011 18323066 18416394 18510606 18605910 18702066 18799418 18897970 
2691.386 18998030 19099538 19202278 19306012 19410430 19515152 19619966 
2694.762 19724944 19829846 19935222 20041214 20148134 20256332 20366152 
2698.137 20477634 20590914 20705964 20822538 20940500 21059500 21179162 
2701.512 21299308 21419452 21539594 21659250 21778378 21896600 22013600 
2704.887 22128990 22242320 22353202 22461460 22566608 22668670 22767264 
2708.263 22862216 22953240 23039602 23120738 23195914 23264390 23325990 
2711.638 23380638 23428684 23471142 23508634 23541306 23569814 23593428 
2715.013 23611864 23624704 23631316 23631912 23626978 23616868 23602278 
2718.388 23583562 23560892 23534484 23504298 23470302 23432986 23392806 
2721.764 23350462 23306864 23262956 23219680 23178018 23138946 23102882 
2725.139 23070594 23042116 23017556 22996488 22978706 22963824 22951528 
2728.514 22942028 22935040 22930604 22929102 22930360 22934552 22942028 
2731.889 22952960 22967422 22986044 23008542 23034990 23064828 23097708 
2735.265 23132760 23169314 23206608 23243696 23280190 23315814 23350394 
2738.640 23384274 23417878 23451276 23484570 23517588 23549246 23578628 
2742.015 23604622 23626558 23644088 23658118 23669734 23680686 23692652 
2745.390 23706826 23723796 23743918 23766772 23791726 23817906 23844650 
2748.766 23871324 23897508 23922962 23947400 23970858 23993232 24014628 
2752.141 24035534 24056230 24077384 24099906 24124352 24151464 24182010 
2755.516 24216026 24253584 24294336 24337892 24383452 24430840 24479352 
2758.891 24528186 24576782 24624224 24669640 24712672 24752764 24789984 
2762.267 24824294 24856254 24885588 24912116 24935064 24953804 24967492 
2765.642 24975808 24978862 24977458 24972194 24964016 24953174 24940154 
2769.017 24924784 24907272 24888360 24868534 24849098 24831170 24815276 
2772.392 24801524 24789528 24778478 24767672 24756764 24745854 24735506 
2775.768 24726912 24720600 24717688 24718004 24721616 24727474 24734454 
2779.143 24740980 24745610 24746976 24744276 24737366 24726352 24711936 
2782.518 24694856 24675882 24655296 24633308 24610092 24585442 24559636 
2785.893 24532816 24505504 24478266 24451590 24426178 24402062 24379878 
2789.269 24359970 24342378 24327518 24315534 24306318 24299906 24296086 
2792.644 24294860 24296122 24299976 24306354 24315008 24325522 24337296 
2796.019 24349422 24361442 24372902 24383312 24392738 24400904 24407810 
2799.394 24413314 24417170 24419762 24421164 24421654 24421234 24420044 
2802.770 24417484 24412754 24405532 24395474 24382960 24369152 24355098 
2806.145 24342238 24331410 24323104 24317498 24314412 24314098 24317006 
2809.520 24323594 24334318 24349386 24368626 24391056 24415660 24441564 
2812.895 24467996 24494882 24522754 24552450 24584532 24619632 24658172 
2816.271 24700080 24745118 24793034 24843202 24895202 24948400 25002798 
2819.646 25058536 25116248 25176706 25241000 25309906 25383774 25462362 
2823.021 25545008 25631112 25720082 25811708 25906096 26003634 26104398 
2826.396 26207788 26312858 26418622 26523144 26625334 26724302 26819876 
2829.771 26912260 27001670 27088664 27173454 27256214 27337224 27416414 
2833.147 27494278 27571062 27646940 27722478 27798102 27874550 27952320 
2836.522 28032328 28115004 28200772 28289562 28381058 28474946 28571012 
2839.897 28669682 28771526 28877678 28988922 29106290 29230702 29362634 
2843.272 29502728 29652408 29813000 29986714 30175736 30381398 30604190 
2846.648 30843030 31094034 31351592 31607840 31853546 32078662 32274522 
2850.023 32433302 32549996 32622996 32653612 32646288 32607534 32545600 
2853.398 32469400 32387640 32308642 32239832 32186910 32154050 32143916 
2856.773 32156654 32191266 32245326 32315530 32397992 32489002 32585602 
2860.149 32685154 32786156 32887756 32989412 33091024 33192444 33293244 
2863.524 33393242 33491224 33586688 33678808 33767400 33852464 33934500 
2866.899 34014044 34091736 34168192 34243796 34318952 34394152 34469832 
2870.274 34546136 34622636 34698356 34771756 34840608 34903012 34957844 
2873.650 35005108 35046340 35084128 35121524 35161512 35206532 35257772 
2877.025 35315888 35380548 35451660 35528276 35610128 35696488 35786504 
2880.400 35879556 35974968 36072672 36173168 36277112 36385476 36498804 
2883.775 36617244 36739936 36865620 36992604 37119336 37244696 37367708 
2887.151 37487796 37604412 37717228 37825840 37930324 38030784 38128188 
2890.526 38223556 38318148 38412940 38508984 38606936 38706824 38808912 
2893.901 38913524 39020412 39129896 39242020 39356640 39473396 39591672 
2897.276 39709576 39823888 39930304 40023012 40094924 40139876 40152196 
2900.652 40129120 40070252 39978436 39858460 39716584 39558932 39391356 
2904.027 39218156 39042668 38867068 38692736 38521116 38352784 38188932 
2907.402 38030132 37877684 37732624 37596496 37470348 37355180 37251340 
2910.777 37158136 37074404 36997760 36925536 36854116 36779460 36697496 
2914.153 36603440 36492712 36361264 36205760 36024288 35816796 35584880 
2917.528 35331844 35061248 34777608 34484716 34185756 33883128 33578348 
2920.903 33271886 32963532 32652966 32339626 32023586 31705848 31388704 
2924.278 31075668 30771144 30479948 30206282 29952952 29721198 29510422 
2927.654 29318890 29144060 28983360 28835220 28698600 28573312 28459804 
2931.029 28358422 28269192 28191722 28124974 28067532 28017802 27974476 
2934.404 27936666 27903840 27876174 27853918 27837382 27826538 27820356 
2937.779 27817282 27815376 27812054 27805696 27795418 27780968 27763484 
2941.155 27744236 27724350 27704044 27682676 27657994 27626600 27585220 
2944.530 27530038 27457886 27367360 27257694 27129752 26985558 26827770 
2947.905 26659718 26484510 26305326 26124772 25945032 25767792 25594172 
2951.280 25425016 25260770 25101432 24946926 24797140 24651788 24511008 
2954.656 24374970 24244194 24118958 23999674 23886482 23779408 23678236 
2958.031 23582862 23493384 23410256 23333960 23265368 23204756 23152504 
2961.406 23108122 23070978 23040370 23015772 22996838 22983598 22975842 
2964.781 22972908 22973606 22975598 22976436 22972942 22962426 22942794 
2968.156 22912232 22869900 22815560 22749142 22671324 22582976 22485538 
2971.532 22380936 22271512 22159674 22047900 21938174 21831964 21730270 
2974.907 21633722 21542206 21455342 21372464 21292452 21213570 21134216 
2978.282 21052440 20966612 20875900 20779818 20678928 20574030 20466866 
2981.657 20358826 20251644 20146954 20046036 19950314 19860644 19777340 
2985.033 19700606 19630122 19565578 19506522 19452982 19405200 19363760 
2988.408 19328806 19299536 19274422 19250418 19223714 19190190 19146384 
2991.783 19089876 19020566 18940054 18851666 18759734 18668686 18582220 
2995.158 18502930 18432192 18369762 18314668 18265940 18222088 18182250 
2998.534 18145904 18112740 18082584 18055502 18031220 18009634 17990398 
3001.909 17973372 17958142 17944502 17932002 17919848 17907590 17894712 
3005.284 17880934 17866950 17853452 17841782 17833150 17828458 17827766 
3008.659 17830840 17836706 17844130 17852036 17860046 17868298 17877412 
3012.035 17888530 17902478 17919848 17940910 17965258 17992366 18021376 
3015.410 18051804 18083238 18115744 18149634 18185290 18223332 18264074 
3018.785 18307514 18353310 18401114 18449858 18498606 18546566 18592802 
3022.160 18636690 18678058 18716490 18752192 18785198 18815506 18843396 
3025.536 18869142 18893124 18915930 18938116 18960026 18981866 19003328 
3028.911 19023682 19042030 19057262 19068722 19075958 19079490 19080078 
3032.286 19079144 19078208 19078208 19080042 19083920 19089496 19096316 
3035.661 19103934 19111794 19119550 19127270 19135026 19143060 19151718 
3039.037 19161412 19172426 19185066 19199610 19216164 19234522 19254366 
3042.412 19275288 19296936 19319036 19341450 19364176 19387320 19410638 
3045.787 19434270 19457900 19481500 19504996 19528598 19552616 19577434 
3049.162 19603604 19631476 19661046 19692492 19725396 19759620 19794992 
3052.538 19830920 19867234 19903308 19938448 19972342 20004434 20034448 
3055.913 20062278 20088304 20112804 20136370 20159832 20183782 20208530 
3059.288 20234636 20261608 20289104 20316326 20342608 20367298 20390182 
3062.663 20411922 20433004 20454606 20477772 20502816 20530084 20559058 
3066.039 20588762 20618780 20648278 20676668 20703914 20729874 20754514 
3069.414 20778046 20800568 20822258 20843602 20865122 20887268 20910354 
3072.789 20934762 20960630 20988380 21018080 21050180 21085064 21122806 
3076.164 21162950 21204768 21247182 21288904 21329028 21367276 21403858 
3079.540 21439782 21476230 21514248 21554674 21597678 21642776 21689238 
3082.915 21735878 21781444 21825168 21866284 21904440 21939954 21973654 
3086.290 22006140 22038662 22071954 22106398 22142102 22179026 22217002 
3089.665 22256062 22296696 22339528 22384738 22432710 22482608 22533312 
3093.041 22583428 22631668 22677258 22720618 22762516 22804454 22848036 
3096.416 22894138 22942900 22994076 23046588 23099456 23151630 23202764 
3099.791 23252924 23302740 23353328 23405570 23460230 23517870 23578174 
3103.166 23640308 23703222 23765442 23825958 23884276 23940466 23995264 
3106.542 24049682 24104598 24160500 24217532 24275344 24333092 24390742 
3109.917 24448258 24505996 24564510 24624436 24685562 24747748 24809840 
3113.292 24870920 24930186 24987250 25042004 25095218 25147880 25201074 
3116.667 25255784 25313348 25374570 25440088 25509904 25583596 25659830 
3120.042 25737132 25813502 25887456 25958010 26024920 26088986 26151410 
3123.418 26213560 26276248 26340212 26405102 26470670 26536704 26603174 
3126.793 26670710 26740194 26812192 26887058 26964508 27043032 27121040 
3130.168 27196840 27269408 27338530 27405226 27471086 27538052 27607676 
3133.543 27680628 27756740 27835052 27914298 27993136 28070818 28147068 
3136.919 28222058 28296354 28370342 28444308 28518464 28592880 28667346 
3140.294 28742354 28818120 28895348 28974576 29056582 29141260 29229180 
3143.669 29319634 29412164 29505564 29598594 29689800 29778434 29864496 
3147.044 29948584 30032302 30117630 30206318 30299108 30396004 30495552 
3150.420 30595692 30694290 30790030 30882482 30972782 31062640 31153976 
3153.795 31248572 31346892 31448222 31551256 31654064 31754754 31852368 
3157.170 31946868 32038852 32129966 32221668 32315280 32411914 32512036 
3160.545 32615568 32721986 32830682 32940618 33051048 33161256 33270526 
3163.921 33378500 33485212 33590664 33695352 33799704 33904368 34009744 
3167.296 34116648 34224832 34334904 34447092 34561312 34677608 34795880 
3170.671 34915328 35035172 35154400 35272184 35388028 35502028 35614620 
3174.046 35726564 35838636 35951068 36063816 36176772 36289360 36401404 
3177.422 36513364 36625428 36737988 36851408 36965328 37079240 37193112 
3180.797 37306652 37420580 37536128 37654096 37774840 37898252 38022828 
3184.172 38146712 38268536 38387420 38503772 38619284 38735768 38855364 
3187.547 38978800 39106184 39236580 39368864 39501772 39634904 39768144 
3190.923 39901828 40036312 40171788 40308432 40446168 40584936 40724984 
3194.298 40866024 41008056 41150864 41293716 41436184 41578292 41720268 
3197.673 41863052 42007200 42153512 42301812 42451764 42602176 42752128 
3201.048 42900668 43047612 43192884 43337108 43480864 43624524 43769036 
3204.424 43915356 44064036 44215888 44371096 44528960 44688648 44848396 
3207.799 45006916 45163840 45319348 45474656 45631228 45789964 45950888 
3211.174 46113056 46274948 46434984 46592796 46748812 46904264 47060984 
3214.549 47220612 47383696 47550536 47720624 47892992 48067356 48243312 
3217.925 48420148 48597320 48773936 48948728 49121184 49291364 49460164 
3221.300 49629328 49800712 49975400 50154176 50336668 50521732 50708216 
3224.675 50895000 51081272 51266620 51450848 51634072 51816260 51997880 
3228.050 52179360 52361356 52544556 52728960 52914408 53100200 53285808 
3231.426 53470744 53655840 53841948 54030424 54222400 54417956 54616304 
3234.801 54816468 55017064 55217604 55417936 55618848 55821140 56025216 
3238.176 56230824 56437280 56643876 56850608 57058120 57267276 57479412 
3241.551 57694636 57912284 58130832 58348504 58564728 58779544 58995116 
3244.927 59214172 59439644 59673028 59914944 60164260 60419092 60677272 
3248.302 60937512 61199132 61461900 61726240 61992080 62258920 62526196 
3251.677 62793440 63060164 63326516 63592948 63860208 64129120 64399964 
3255.052 64673252 64948872 65226620 65505752 65786248 66067084 66347948 
3258.427 66628024 66907012 67184080 67458936 67731016 67999512 68264176 
3261.803 68524704 68780880 69033240 69282528 69529344 69774208 70017736 
3265.178 70259600 70499648 70737416 70971880 71202016 71426656 71644144 
3268.553 71853016 72052496 72242000 72421960 72593536 72758088 72917056 
3271.928 73071888 73223328 73371880 73518080 73662256 73804792 73945920 
3275.304 74085088 74221384 74353640 74480512 74601320 74716376 74826624 
3278.679 74933624 75038648 75141968 75242984 75340632 75433408 75520816 
3282.054 75602832 75680960 75756416 75831328 75906616 75982752 76059128 
3285.429 76134736 76208056 76277800 76342776 76401840 76454504 76501368 
3288.805 76543056 76582032 76620288 76659976 76702312 76747464 76794520 
3292.180 76841656 76887656 76931680 76973768 77014584 77054832 77094712 
3295.555 77134168 77172200 77207664 77240560 77270920 77299184 77326536 
3298.930 77353184 77378528 77401968 77421928 77437448 77447664 77453088 
3302.306 77454360 77453176 77451504 77452016 77457448 77470440 77492976 
3305.681 77526000 77568832 77619136 77673936 77730048 77785648 77840424 
3309.056 77895880 77953880 78016296 78084544 78157928 78235712 78317176 
3312.431 78401744 78490544 78585312 78687560 78798464 78918096 79045432 
3315.807 79179168 79318744 79463824 79614888 79772680 79937224 80107888 
3319.182 80283616 80462704 80644112 80827504 81012656 81199768 81388632 
3322.557 81578616 81768688 81958440 82147632 82337080 82527480 82719016 
3325.932 82910744 83100560 83285320 83462200 83629600 83786968 83935488 
3329.308 84076720 84211776 84340704 84462640 84576072 84679224 84770808 
3332.683 84850272 84916424 84967920 85003016 85019536 85016600 84994720 
3336.058 84956560 84905752 84846888 84782680 84714336 84640568 84558728 
3339.433 84465544 84358896 84237952 84103336 83956584 83799552 83633568 
3342.809 83459392 83276808 83085632 82885320 82674960 82453400 82220144 
3346.184 81974768 81718176 81452576 81181512 80908656 80637528 80370000 
3349.559 80106256 79844992 79583840 79320496 79053464 78782296 78506976 
3352.934 78228056 77945992 77660384 77371600 77080344 76787720 76495800 
3356.310 76206872 75922480 75643248 75369240 75099184 74832448 74568472 
3359.685 74307320 74049952 73796936 73548336 73303544 73061224 72819720 
3363.060 72577368 72333344 72087192 71839064 71590032 71340896 71093280 
3366.435 70848992 70609688 70377048 70152264 69935600 69726352 69523672 
3369.811 69325744 69131056 68938128 68745624 68552288 68357096 68158648 
3373.186 67956344 67749496 67538624 67324464 67108864 66893020 66677936 
3376.561 66464312 66252412 66041968 65833672 65628016 65425768 65227544 
3379.936 65033300 64841756 64651452 64460232 64266444 64069056 63867264 
3383.312 63661656 63453004 63242568 63031660 62821508 62613756 62409884 
3386.687 62210856 62017492 61829376 61645504 61464648 61285164 61105448 
3390.062 60924968 60743384 60560924 60378540 60197452 60019136 59845228 
3393.437 59676716 59514156 59356792 59202896 59049772 58894584 58735468 
3396.813 58571668 58404176 58235160 58066968 57901300 57738916 57578784 
3400.188 57419652 57259528 57097568 56933364 56767300 56599372 56429436 
3403.563 56256660 56079880 55898460 55712672 55523312 55332420 55141980 
3406.938 54952948 54765496 54578580 54390916 54200856 54007348 53809956 
3410.313 53608604 53403672 53195240 52983912 52770408 52555776 52341700 
3413.689 52129556 51920392 51714016 51509976 51306216 51100728 50892284 
3417.064 50679468 50462144 50240724 50015476 49787448 49557124 49325436 
3420.439 49093280 48862360 48633864 48408520 48186664 47968216 47752464 
3423.814 47538856 47327124 47117448 46909728 46704276 46500256 46296692 
3427.190 46092240 45885920 45677424 45467520 45257272 45048300 44841604 
3430.565 44637824 44436792 44237976 44040936 43845160 43651012 43458380 
3433.940 43267256 43077464 42888376 42699300 42510048 42320180 42129780 
3437.315 41938952 41747768 41556012 41363540 41170024 40975832 40781140 
3440.691 40586716 40393404 40201628 40012044 39824068 39636968 39449552 
3444.066 39259720 39065980 38866888 38661768 38451568 38238680 38026588 
3447.441 37819588 37621176 37433040 37254696 37084112 36917636 36751872 
3450.816 36584440 36413760 36240016 36063924 35885528 35704800 35520980 
3454.192 35333028 35140744 34944920 34747096 34549692 34354524 34162780 
3457.567 33974412 33788604 33604300 33420474 33236972 33053766 32871102 
3460.942 32688904 32506782 32324418 32141096 31956672 31771544 31586320 
3464.317 31401380 31217238 31033636 30850536 30667870 30486274 30306426 
3467.693 30128464 29952668 29778434 29604696 29430494 29255054 29079042 
3471.068 28902962 28728406 28556078 28386330 28218414 28051132 27883028 
3474.443 27713332 27542112 27369900 27197616 27026282 26856214 26687868 
3477.818 26521138 26355950 26192162 26029386 25866530 25702646 25536398 
3481.194 25367018 25195350 25022698 24851728 24685106 24524400 24369574 
3484.569 24219144 24070556 23920790 23768592 23613544 23457466 23302530 
3487.944 23151316 23005048 22863962 22726902 22592364 22458880 22325436 
3491.319 22191544 22057312 21923050 21788412 21653328 21517382 21380190 
3494.695 21242206 21104404 20967654 20833590 20703218 20577192 20455682 
3498.070 20337748 20222242 20107286 19991216 19872054 19748940 19621698 
3501.445 19491030 19358600 19226172 19095832 18968852 18846408 18728736 
3504.820 18615352 18505766 18398556 18292550 18186500 18078954 17969192 
3508.196 17857214 17744092 17631516 17521796 17416764 17317892 17224870 
3511.571 17137038 17052670 16970626 16890216 16810888 16732644 16655138 
3514.946 16577195 16497169 16413027 16323123 16226839 16125420 16020825 
3518.321 15916565 15815459 15719356 15628118 15540128 15452429 15362140 
3521.697 15266789 15166039 15060612 14953016 14845893 14741538 14640841 
3525.072 14542874 14445580 14346218 14243010 14135274 14024041 13911603 
3528.447 13800837 13693689 13590876 13491061 13392259 13291704 13187550 
3531.822 13079188 12967337 12853705 12740172 12628101 12517798 12408921 
3535.198 12300378 12191282 12081430 11970926 11860994 11752928 11648258 
3538.573 11548174 11453657 11364638 11280601 11199708 11119680 11037526 
3541.948 10950936 10858078 10758379 10652659 10542653 10430231 10317125 
3545.323 10204796 10093953 9986055 9882590 9786063 9698435 9620478 9551173 
3549.181 9486925 9422584 9352668 9272912 9181834 9081097 8975480 8871173 
3553.038 8773384 8685621 8608387 8539074 8474300 8410144 8343733 8273381 
3556.896 8198382 8119175 8036304 7951221 7865177 7779622 7696074 7616183 
3560.753 7540758 7470300 7404606 7342562 7282851 7222711 7159042 7087906 
3564.610 7004558 6905739 6789307 6657463 6516543 6377115 6251480 6149640 
3568.468 6077056 6032739 6010565 6001091 5994271 5981740 5957386 5918958 
3572.325 5866362 5801985 5729560 5652984 5576388 5503229 5436054 5376269 
3576.183 5323973 5277955 5235530 5194383 5152033 5107005 5059301 5010093 
3580.040 4961292 4914542 4871449 4832146 4796163 4762060 4727524 4690008 
3583.897 4645967 4591280 4522070 4435129 4329129 4206493 4073524 3940662 
3587.755 3819540 3721043 3650868 3609838 3592331 3589759 3591930 3589759 
3591.612 3576061 3547031 3502002 3443385 3376428 3306676 3239973 3180390 
3595.470 3130527 3089913 3057111 3029450 3003959 2977769 2949112 2916787 
3599.327 2880296 2840072 2796584 2750733 2703453 2655345 2607508 2560577 
3603.185 2515584 2473228 2434075 2397391 2361077 2321734 2275333 2218213 
3607.042 2148914 2069504 1986082 1906370 1838850 1787876 1753842 1731353 
3610.899 1712724 1690105 1658306 1616799 1569875 1524485 1487612 1463375 
3614.757 1451673 1448182 1445523 1436414 1414573 1376346 1321605 1253146 
3618.614 1177455 1101977 1034781 982474 948436 932696 931733 939736 949997 
3622.954 956206 954778 943754 924362 897766 865195 824394 771150 698828 
3627.293 602695 483694 352788 229712 137262 91525 95105 137262 200009 265683 
3632.115 320623 356933 372984 372254 361145 345758 330571 316877 303414 
3636.455 288361 270457 249571 226861 204087 182176 161326 140743 119729 
3640.794 97822 76181 56464 40922 31180 26971 26474 26408 22465 10404 -13187 
3646.098 -50526 -102869 -169348 -248169 -335418 -426225 -513737 -589915 
3649.956 -646394 -676401 -676699 -649206 -600404 -540576 -480839 -432746 
3653.813 -405073 -403484 -428774 -476570 -537068 -597360 -646295 -676996 
3657.671 -688542 -685135 -672861 -658602 -646394 -638917 -636469 -638255 
3661.528 -642722 -648048 -652978 -656220 -656948 -654434 -648942 -641034 
3665.385 -632796 -626609 -625716 -633789 -654467 -690858 -743685 -810265 
3669.243 -883316 -950634 -998108 -1015265 -999133 -956585 -900708 -849719 
3673.100 -821212 -828488 -878521 -966636 -1075589 -1178138 -1248615 -1274319 
3676.958 -1258263 -1215047 -1161813 -1112771 -1075060 -1049973 -1033941 
3680.333 -1022802 -1012257 -1000389 -988091 -975826 -964057 -951395 -935789 
3684.190 -915554 -891946 -868898 -853621 -854018 -876768 -924184 -993050 
3688.048 -1073408 -1151140 -1214055 -1254034 -1269462 -1264606 -1245146 
3691.423 -1216236 -1181574 -1143803 -1104277 -1065078 -1027991 -995463 
3694.798 -969016 -949146 -935029 -925209 -918332 -914067 -913438 -918563 
3698.656 -931987 -955527 -989513 -1031429 -1076812 -1119777 -1154543 
3702.031 -1176618 -1183656 -1176419 -1157319 -1129328 -1096081 -1060352 
3705.406 -1024752 -991496 -962140 -938401 -921275 -911785 -910959 -920084 
3709.264 -940517 -973115 -1017413 -1071028 -1128304 -1180814 -1219441 
3712.639 -1236523 -1228626 -1197402 -1148760 -1091950 -1035693 -987662 
3716.014 -953048 -933442 -927590 -932185 -943294 -957180 -971694 -985645 
3719.872 -999199 -1011629 -1022537 -1030272 -1033644 -1031826 -1025876 
3723.247 -1017876 -1011133 -1008389 -1011265 -1018571 -1026570 -1030537 
3726.622 -1024124 -1003001 -966371 -916943 -861028 -806892 -763068 -736607 
3730.479 -731116 -746067 -776596 -815689 -855969 -894095 -931888 -974074 
3734.337 -1026504 -1090396 -1160161 -1223604 -1267117 -1279307 -1257932 
3737.712 -1208901 -1142812 -1069673 -997381 -928416 -862748 -800211 -743421 
3741.570 -699327 -679709 -697739 -761812 -868237 -994373 -1104740 -1162210 
3745.427 -1149983 -1075358 -963892 -844857 -742693 -675309 -649603 -665087 
3749.284 -712823 -780268 -855043 -927524 -991331 -1041445 -1072284 -1079093 
3753.142 -1059625 -1016951 -958569 -896112 -840624 -799913 -777423 -771536 
3756.999 -777291 -788271 -800079 -810761 -820319 -828488 -832787 -828223 
3760.857 -808909 -771701 -718215 -654996 -592132 -540411 -507317 -495071 
3764.714 -500135 -514399 -528993 -538193 -541768 -544713 -553979 -575223 
3768.572 -610429 -655856 -703792 -744347 -770080 -777787 -769220 -749639 
3772.429 -725294 -702271 -684076 -672464 -667072 -666608 -669156 -673126 
3776.286 -678055 -683977 -691883 -702403 -714643 -726055 -732902 -730057 
3780.144 -714576 -686226 -648545 -607385 -569598 -541337 -525949 -523500 
3784.001 -530913 -543687 -557023 -567612 -574495 -578267 -580716 -582867 
3787.859 -585183 -587532 -589485 -591139 -592694 -594713 -597095 -598948 
3791.716 -599213 -596996 -592330 -587102 -584323 -586440 -594646 -607187 
3795.573 -618701 -622308 -611157 -582403 -538557 -487360 -439929 -408284 
3799.431 -402855 -429271 -485705 -561556 -639380 -698665 -724732 -714179 
3803.288 -674416 -620190 -567314 -531840 -524195 -548419 -599841 -665550 
3807.146 -728238 -771635 -787676 -776762 -746729 -706373 -663267 -621712 
3811.003 -581378 -540775 -498447 -455817 -417222 -390143 -382132 -397823 
3814.861 -436156 -487988 -537267 -567347 -568175 -539385 -491364 -439433 
3818.718 -401299 -390971 -416394 -475676 -557288 -640207 -701973 -728139 
3822.575 -716660 -676897 -624128 -574330 -539484 -525618 -531873 -551629 
3826.433 -575587 -593521 -599676 -593356 -578896 -562384 -550140 -545705 
3830.290 -549048 -556924 -563840 -564468 -555037 -534686 -504603 -468759 
3834.148 -432283 -400803 -379947 -375014 -389514 -424206 -475974 -538293 
3838.005 -601066 -654367 -691023 -707828 -706108 -690494 -667237 -641861 
3841.863 -619098 -602422 -592992 -590411 -592032 -594415 -592992 -583429 
3845.720 -563012 -531111 -488617 -438274 -383456 -327075 -271812 -220020 
3849.577 -174548 -140233 -124400 -136954 -187994 -283965 -421359 -582767 
3853.435 -736243 -848892 -899584 -887184 -826007 -737136 -640141 -547856 
3857.292 -468031 -403881 -355117 -320718 -298733 -287773 -286051 -291845 
3861.150 -303170 -318731 -338233 -362500 -392063 -426589 -461444 -488617 
3865.007 -498182 -482759 -440095 -376438 -304163 -239890 -198228 -189187 
3868.865 -213761 -262574 -317506 -358792 -374816 -364321 -335981 -302143 
3872.722 -274296 -258269 -253136 -253004 -249692 -236678 -212767 -181006 
3876.579 -148415 -122843 -110984 -116848 -141525 -181735 -231478 -281150 
3880.437 -320917 -342139 -340120 -316116 -276581 -232141 -194353 -173852 
3884.294 -176204 -200050 -235452 -266580 -278303 -260653 -214224 -147984 
3888.152 -77029 -16036 22432 31312 10238 -33497 -87266 -137484 -173024 
3892.491 -188193 -183556 -163717 -135629 -105121 -77129 -54833 -39692 -32668 
3896.831 -34159 -43370 -59438 -79911 -102140 -122214 -137219 -145202 -146527 
3901.170 -143479 -139670 -138941 -143579 -153847 -166996 -178522 -183093 
3905.028 -176667 -157623 -127149 -88889 -47379 -7355 26905 53382 70713 79197 
3909.850 80291 76248 69189 61931 56530 54376 55735 59711 64549 67930 67664 
3915.154 62793 53249 40922 28330 18124 12856 13419 20046 32108 48411 67996 
3920.458 89404 111112 130866 146410 155824 157846 152609 141737 128280 
3924.797 115785 107135 104086 106572 113134 121850 130998 138853 144223 
3929.137 145979 143030 134047 118437 95999 68924 39795 13320 -6229 -15473 
3933.958 -13518 -1093 19118 44004 70647 97193 122845 147670 171800 195004 
3938.780 216651 235514 249869 258356 260180 255704 246322 234254 221988 
3943.120 211910 205313 202562 202827 204219 204584 201866 195004 183667 
3947.459 169016 153172 138654 127949 122546 123176 129639 141008 156155 
3951.799 173988 193347 213435 233359 251858 268137 281266 290848 297413 
3956.139 301757 305072 308488 312732 317374 321817 324437 323873 319397 
3960.478 310610 298607 285013 272281 262467 257527 258356 264722 275000 
3964.818 287002 298176 306133 309449 308123 303613 298076 294131 293998 
3969.157 298474 307128 317938 328847 337402 342442 343968 342940 341315 
3973.497 340585 342044 345891 351727 358393 365091 371094 376101 380280 
3977.837 383563 385519 385752 383198 377063 367048 353584 337933 322116 
3982.176 308156 298242 293666 294827 301226 311870 325365 340486 355773 
3986.516 370596 384359 396663 407375 416329 423294 428269 431420 432515 
3990.855 431918 429729 426279 421437 415600 409232 402964 397558 393479 
3995.195 391091 390229 390693 391920 393479 395469 398122 401836 407308 
3999.535 414273 422366 430392 
##END=
