
##TITLE=Z305_3_e
##JCAMP-DX=5.01  $$ Nicolet v. 1
##DATATYPE=INFRARED SPECTRUM
##ORIGIN=UniL
##OWNER=Nicolet
##LONGDATE=2011/09/09
##TIME=09:32:31
##SPECTROMETER/DATA SYSTEM=Nicolet iS5
##DATA PROCESSING=
Ratio against background
%Transmittance->Absorbance
Truncated
ElementMultiply or ElementDivide
##COMMENTS=
Number of sample scans: 32
Collection length: 51.15 sec
Sample gain: 2.0
Background collected on: Ven Sep 09 09:29:45 2011 (GMT+02:00);
Number of background scans: 32
Background gain: 2.0
Sample spacing:  1.000
Number of scan points: 12415
Resolution points: 8192
Number of FFT points: 65536
Apodization: N-B fort;
Phase correction: Mertz;
Laser frequency: 15798.0 cm-1
Number of rejected sample scans: 0
Number of rejected background scans: 0
Bench serial number: ASB1000141;
##RESOLUTION=4.000
##XUNITS=1/CM
##YUNITS=ABSORBANCE
##FIRSTX=649.893372
##LASTX=4000.122314
##FIRSTY=0.135002
##MAXX=4000.122314
##MINX=649.893372
##MAXY=0.284348
##MINY=-0.002059
##XFACTOR=1.000000
##YFACTOR=1.000000E-009
##NPOINTS=6950
##DELTAX=0.482117
##ZPD=6100
##XYDATA=(X++(Y..Y))
649.893 135001664 135059040 135234224 135529312 135914944 136349600 
652.786 136800432 137266272 137773392 138360880 139053632 139845520 
655.679 140696608 141553280 142370544 143130432 143844944 144540256 
658.571 145235888 145927440 146586800 147172592 147652960 148014384 
661.464 148264928 148424560 148514576 148549840 148541680 148505632 
664.357 148462528 148434464 148429840 148424752 148349488 148086144 
667.250 147513504 146564048 145281024 143807664 142317888 140934784 
670.142 139692384 138555632 137451952 136313456 135097712 133802968 
673.035 132457408 131100688 129758152 128430040 127097456 125738264 
675.928 124346656 122940976 121555312 120225840 118975968 117806824 
678.820 116704496 115652472 114645712 113694608 112820368 112041296 
681.713 111362816 110771240 110240904 109744272 109264312 108801112 
684.606 108367264 107979232 107645760 107363736 107120112 106899800 
687.498 106693664 106503032 106335984 106201064 106100288 106025800 
690.391 105965616 105911192 105864512 105839656 105856224 105931032 
693.284 106069456 106262432 106491048 106736784 106990928 107257472 
696.177 107549312 107878592 108246472 108638616 109028480 109383224 
699.069 109676792 109894808 110032704 110091496 110069416 109958520 
701.962 109747728 109429512 109005688 108489120 107900296 107259128 
704.855 106576672 105854832 105090416 104283064 103442104 102588248 
707.747 101745656 100935592 100167016 99434280 98722704 98017648 97312240 
711.122 96611080 95925184 95265080 94632152 94015768 93396032 92750712 
714.497 92064864 91334384 90565560 89769672 88957424 88135112 87306384 
717.872 86474672 85647608 84837304 84058104 83320712 82627704 81972728 
721.247 81342272 80722664 80102112 79474248 78835928 78184416 77514760 
724.621 76820264 76096000 75343112 74571144 73798192 73044688 72328408 
727.996 71660592 71043088 70472056 69942056 69450256 68997040 68585384 
731.371 68216840 67889824 67598984 67337312 67099928 66885984 66698528 
734.746 66543132 66423460 66338680 66284144 66253380 66241184 66246896 
738.121 66272676 66322044 66395120 66487172 66587424 66682456 66761428 
741.496 66817148 66848024 66854908 66837712 66792532 66712088 66588044 
744.870 66415780 66196032 65935128 65641388 65320700 64973532 64594896 
748.245 64177476 63715792 63210412 62667796 62098220 61511144 60913036 
751.620 60306316 59691200 59069096 58444696 57825440 57220060 56634816 
754.995 56071396 55527648 54999204 54483684 53982024 53498816 53040180 
758.370 52610828 52212504 51843396 51500240 51180796 50884460 50612076 
761.744 50363828 50137288 49925776 49721496 49517272 49311036 49107712 
765.119 48918392 48757256 48636384 48563156 48537964 48555748 48607624 
768.494 48683932 48776088 48877008 48981032 49084936 49188600 49295964 
771.869 49414160 49551556 49711204 49886712 50056672 50188056 50239720 
775.244 50173216 49965588 49614096 49140028 48579424 47978280 47379556 
778.619 46813652 46300124 45845820 45449344 45104796 44805452 44544416 
781.993 44315096 44111644 43930168 43769000 43629504 43514776 43428204 
785.368 43371300 43342012 43335312 43345524 43368152 43402532 43451968 
788.743 43522176 43618552 43744228 43898496 44078928 44282368 44507120 
792.118 44754652 45027828 45329280 45659388 46015496 46390588 46775600 
795.493 47159184 47527840 47866392 48156860 48378628 48513136 48545484 
798.867 48469976 48291484 48026348 47697988 47331188 46950444 46575936 
802.242 46222500 45902936 45627328 45403432 45237156 45130348 45081052 
805.617 45083588 45131484 45218844 45341600 45497208 45681620 45886364 
808.992 46097800 46295260 46454156 46552700 46572948 46505088 46347936 
812.367 46106828 45791768 45414432 44989420 44531680 44056996 43581736 
815.742 43120132 42682336 42275004 41900048 41556704 41243036 40957696 
819.116 40699840 40469408 40265384 40085584 39926960 39786372 39662308 
822.491 39555520 39468604 39405764 39370064 39361972 39379932 39419584 
825.866 39475716 39542348 39614136 39685324 39749260 39798392 39825192 
829.241 39823160 39789204 39723848 39631852 39520064 39395896 39266064 
832.616 39135188 39006420 38882436 38765584 38658036 38561380 38475716 
835.990 38398932 38328028 38259816 38192044 38125080 38061092 38003372 
839.365 37954880 37917380 37890916 37874464 37867164 37868572 37879164 
842.740 37899952 37931484 37973464 38025140 38085288 38153624 38230468 
846.115 38317244 38414932 38523832 38642860 38770512 38905372 39047092 
849.490 39196544 39355700 39525580 39705908 39894020 40086020 40278220 
852.865 40468100 40656028 40844364 41036680 41235604 41442780 41657640 
856.239 41879472 42107584 42342572 42586316 42840872 43107612 43386936 
859.614 43678344 43981608 44297448 44628168 44976232 45342960 45726568 
862.989 46121896 46520388 46911608 47286220 47637012 47959336 48250716 
866.364 48509988 48736344 48930188 49093912 49233204 49356620 49475536 
869.739 49601656 49743716 49908084 50097276 50311144 50548008 50805976 
873.113 51082280 51372632 51670084 51965836 52249160 52511056 52745680 
876.488 52952396 53135320 53301992 53461264 53621496 53789516 53971332 
879.863 54172704 54398876 54655416 54946440 55274164 55638020 56035848 
883.238 56463772 56918632 57397644 57897896 58416384 58948816 59489420 
886.613 60032872 60575704 61117004 61659364 62206148 62760396 63321920 
889.987 63886576 64446972 64995548 65525204 66032060 66514044 66970208 
893.362 67398680 67795616 68156360 68475976 68751760 68982320 69167384 
896.737 69305576 69392840 69422808 69388520 69284504 69109696 68868544 
900.112 68570096 68226024 67848336 67448560 67037052 66624312 66221968 
903.487 65840884 65491952 65182804 64917244 64694672 64512128 64365924 
906.862 64253188 64173444 64126932 64113952 64133496 64182892 64258492 
910.236 64357312 64478412 64622572 64791172 64984120 65198400 65427700 
913.611 65663784 65898604 66127576 66349880 66568696 66789368 67018032 
916.986 67260016 67519392 67801000 68109728 68450840 68829208 69246696 
920.361 69700992 70185048 70687864 71197608 71703000 72196064 72672096 
923.736 73129056 73566992 73987160 74392728 74787968 75179424 75574000 
927.110 75976200 76384928 76791112 77177656 77518360 77782272 77939648 
930.485 77962208 77830280 77534992 77080072 76483896 75777992 75007464 
933.860 74222528 73472752 72802752 72242904 71809744 71507240 71330200 
937.235 71269096 71313640 71455088 71684400 71989840 72356824 72764672 
940.610 73189096 73607296 73997696 74345232 74641848 74886104 75082440 
943.985 75240336 75373936 75500464 75638600 75806712 76019496 76285696 
947.359 76607912 76984088 77409576 77879864 78393056 78949488 79550408 
950.734 80196000 80884024 81610048 82369360 83158616 83977168 84826952 
954.109 85710888 86630088 87583248 88566312 89574312 90603816 91654000 
957.484 92726552 93823880 94946336 96091384 97253664 98426888 99607120 
960.859 100794032 101990656 103200448 104425728 105664400 106911920 
963.751 108162304 109412336 110662856 111919048 113187480 114473040 
966.644 115777208 117097936 118432352 119779824 121144808 122535360 
969.537 123962648 125436128 126962272 128545312 130188776 131899224 
972.429 133687912 135568752 137556496 139662176 141890656 144241280 
975.322 146710944 149298336 152005072 154834704 157788944 160861104 
978.215 164033520 167278256 170557280 173830896 177060288 180205312 
981.108 183225904 186077584 188709520 191073632 193129472 194854160 
984.000 196247392 197330256 198139984 198716896 199103040 199337568 
986.893 199456784 199500864 199513072 199534512 199603680 199747664 
989.786 199980208 200305872 200724224 201237024 201850112 202572496 
992.678 203410384 204361936 205415472 206550544 207743344 208974576 
995.571 210230480 211502016 212780240 214049920 215286928 216463536 
998.464 217551584 218531344 219395424 220146272 220791904 221338816 
1001.356 221790880 222150368 222422928 222623520 222775504 222907040 
1004.249 223045184 223207168 223399824 223623376 223878000 224171232 
1007.142 224520944 224950016 225481008 226127648 226890000 227756256 
1010.035 228707776 229726320 230795712 231902256 233031536 234164528 
1012.927 235278928 236355968 237386096 238375664 239346144 240328880 
1015.820 241351920 242431616 243569136 244753232 245968864 247205360 
1018.713 248462112 249746368 251067872 252432144 253839008 255285616 
1021.605 256772672 258309392 259913984 261605376 263395248 265278464 
1024.498 267232304 269218816 271197728 273135904 275008128 276796832 
1027.391 278482336 280033824 281411008 282567136 283458528 284056800 
1030.284 284348096 284329184 283997696 283344512 282352000 281003200 
1033.177 279290720 277227104 274844256 272189760 269314304 266261248 
1036.070 263068592 259771168 256407584 253030096 249699968 246480656 
1038.963 243433552 240604608 238026208 235722864 233714480 232023440 
1041.856 230674672 229687680 229071744 228818688 228905392 229297424 
1044.750 229958160 230859024 231977504 233295904 234795376 236446736 
1047.643 238211728 240048416 241914496 243777056 245612912 247401344 
1050.536 249118576 250731312 252195024 253465088 254504624 255293216 
1053.429 255828912 256121488 256181008 256008384 255591280 254906928 
1056.322 253931664 252645072 251032976 249085984 246793088 244141856 
1059.215 241123520 237741008 234019168 230006720 225776528 221409136 
1062.108 216980864 212559104 208192688 203918784 199769040 195770784 
1065.001 191948688 188321440 184895840 181665888 178615216 175723984 
1067.894 172974944 170357936 167870384 165512720 163282464 161171120 
1070.787 159162912 157238976 155382720 153581120 151826352 150112480 
1073.680 148430496 146767904 145108928 143438496 141748640 140040704 
1076.573 138326576 136623216 134950624 133327080 131767032 130284608 
1079.466 128894568 127612384 126454056 125431928 124550888 123807208 
1082.359 123189784 122684944 122279912 121967568 121746128 121617088 
1085.252 121582096 121639888 121786128 122015832 122325096 122713424 
1088.146 123183136 123736272 124371016 125080568 125852528 126672176 
1091.039 127527448 128410536 129319248 130254552 131217432 132206576 
1093.932 133219272 134252736 135308240 136390976 137510192 138673712 
1096.825 139883936 141134496 142410784 143693344 144960896 146194784 
1099.718 147378528 148494480 149523616 150442656 151227376 151859344 
1102.611 152330288 152645200 152820224 152878320 152842032 152728416 
1105.504 152550048 152316128 152035632 151719200 151375840 151008000 
1108.397 150606336 150148240 149599360 148917568 148063632 147003920 
1111.290 145712816 144174768 142381312 140332288 138038720 135526144 
1114.183 132837776 130027560 127160192 124300336 121500352 118802704 
1117.076 116235320 113813608 111545600 109433400 107473296 105655104 
1119.969 103961376 102368120 100845728 99364632 97898040 96422632 94921272 
1123.344 93380256 91788032 90136912 88423440 86651560 84833600 82990352 
1126.720 81148952 79335976 77577624 75894704 74301552 72808232 71419904 
1130.095 70137344 68955952 67865920 66852436 65896020 64977772 64082340 
1133.470 63200720 62332808 61486788 60677124 59921028 59236844 58642732 
1136.845 58154204 57785692 57549196 57451952 57496772 57680184 57993576 
1140.221 58423588 58954924 59573288 60265392 61019564 61825940 62672808 
1143.596 63547880 64438052 65330712 66216328 67089372 67948360 68794424 
1146.971 69630776 70461264 71290328 72124552 72973256 73846616 74755776 
1150.346 75708488 76707256 77748712 78824408 79925000 81041960 82170256 
1153.722 83308000 84454232 85606568 86759136 87902080 89023304 90110040 
1157.097 91148088 92122984 93016544 93804720 94460664 94953800 95253904 
1160.472 95336800 95183688 94781776 94122752 93200640 92011992 90558296 
1163.847 88848328 86900048 84739512 82399848 79915840 77320288 74645072 
1167.223 71918976 69169592 66426164 63716024 61065064 58496028 56025140 
1170.598 53663788 51418956 49294148 47291724 45412776 43657240 42023404 
1173.973 40507820 39105424 37810080 36616272 35518712 34512736 33593708 
1177.348 32756608 31995084 31302412 30672136 30099024 29580080 29114650 
1180.724 28703732 28348766 28050282 27807462 27618092 27479312 27388462 
1184.099 27344000 27345410 27392522 27485312 27622894 27803400 28024552 
1187.474 28283162 28575648 28897970 29244560 29608668 29982206 30356348 
1190.849 30723236 31077446 31416092 31739392 32049160 32348584 32639858 
1194.225 32925036 33205248 33481098 33752756 34019420 34279220 34528628 
1197.600 34762424 34975264 35161836 35318152 35442276 35533240 35590672 
1200.975 35613792 35601388 35551616 35463340 35335404 35167476 34957844 
1204.350 34703164 34397344 34031676 33596496 33083730 32488574 31811974 
1207.726 31060256 30246032 29386636 28501658 27613606 26745198 25916752 
1211.101 25147212 24451168 23837720 23312144 22874614 22522248 22249818 
1214.476 22051456 21921378 21854054 21844822 21889142 21982752 22121808 
1217.851 22302798 22523296 22781476 23076360 23406444 23769992 24164144 
1221.227 24585688 25031894 25500802 25991746 26505290 27041692 27600402 
1224.602 28179382 28774676 29381494 29995554 30612472 31229238 31842672 
1227.977 32448832 33043042 33619592 34171844 34694156 35181128 35627608 
1231.352 36028860 36379496 36674204 36908796 37081188 37193036 37249536 
1234.728 37259932 37235852 37190476 37138536 37095228 37076028 37097248 
1238.103 37173508 37317088 37536996 37836576 38214948 38666476 39183600 
1241.478 39756632 40375000 41028012 41702828 42384728 43058512 43707876 
1244.853 44318400 44879480 45384084 45829140 46214908 46543700 46819592 
1248.229 47047916 47235644 47389532 47515012 47614308 47684752 47718772 
1251.604 47704904 47631764 47489504 47272700 46981196 46618616 46191508 
1254.979 45706908 45172332 44595380 43983040 43342816 42681460 42004060 
1258.354 41314308 40614660 39907204 39195380 38485016 37783908 37102012 
1261.729 36448536 35831368 35256300 34726964 34245372 33813528 33432926 
1265.105 33105328 32831680 32611638 32443584 32324884 32252680 32224950 
1268.480 32240618 32299682 32401704 32545280 32727022 32941368 33181608 
1271.855 33441156 33713504 33993476 34276856 34559160 34836552 35105968 
1275.230 35366064 35617896 35865160 36112636 36363752 36618180 36870200 
1278.606 37108616 37318060 37481548 37585008 37618032 37575976 37460164 
1281.981 37277116 37037816 36756020 36447920 36129636 35815468 35517308 
1285.356 35242644 34995804 34778900 34593388 34441964 34328276 34256092 
1288.731 34228272 34244120 34299120 34385040 34491320 34608604 34729224 
1292.107 34849552 34969588 35092028 35221084 35361676 35519360 35700012 
1295.482 35909248 36153328 36437148 36763916 37135288 37551156 38010384 
1298.857 38512500 39057424 39645536 40276944 40950412 41663076 42410700 
1302.232 43189368 43996016 44829148 45688432 46572984 47480708 48407372 
1305.608 49346744 50293064 51241672 52190044 53136932 54080900 55018384 
1308.983 55943384 56847852 57722828 58560176 59353144 60094660 60777304 
1312.358 61390564 61921992 62359088 62690728 62909736 63013232 63001052 
1315.733 62874236 62633232 62279148 61815088 61248612 60593916 59870140 
1319.109 59099352 58304240 57503392 56711004 55937728 55191192 54478388 
1322.484 53806168 53181196 52609368 52095484 51642880 51255020 50936580 
1325.859 50693696 50533680 50463780 50488048 50606156 50812496 51097000 
1329.234 51446296 51846012 52281936 52738944 53201232 53651904 54072344 
1332.610 54445488 54757152 54997584 55163052 55253392 55271264 55219640 
1335.985 55101808 54921100 54681536 54388248 54047012 53663372 53242696 
1339.360 52788968 52306412 51799868 51275156 50738380 50195200 49649164 
1342.735 49101296 48551560 48000188 47449808 46906848 46381040 45883604 
1346.111 45425724 45015336 44657584 44355352 44110248 43925184 43804220 
1349.486 43752108 43772664 43866128 44028284 44250008 44518536 44820664 
1352.861 45142956 45474620 45806824 46132064 46444312 46738888 47013944 
1356.236 47270592 47513460 47748840 47981500 48212804 48438004 48648020 
1359.612 48829548 48969240 49057740 49090428 49069724 49004252 48908864 
1362.987 48802628 48705320 48636680 48611516 48638348 48718292 48845044 
1366.362 49005812 49182960 49357880 49512668 49631260 49701212 49711540 
1369.737 49651136 49509516 49276220 48943164 48507100 47970880 47345044 
1373.113 46645912 45896788 45124172 44353260 43606280 42896608 42228624 
1376.488 41597872 40994656 40407696 39828352 39253480 38686792 38137488 
1379.863 37616404 37132508 36690756 36290512 35926488 35589952 35270640 
1383.238 34955908 34631212 34280904 33887212 33434146 32911632 32320242 
1386.614 31675056 31003742 30342278 29722796 29166312 28680726 28262438 
1389.989 27902002 27588292 27311430 27062956 26834996 26620050 26411476 
1393.364 26205008 26001102 25806186 25631078 25486396 25378750 25307728 
1396.739 25266742 25245320 25233484 25225372 25220106 25222634 25240018 
1400.115 25278400 25339866 25421644 25517176 25618846 25720188 25816806 
1403.490 25907924 25995544 26084096 26177522 26279664 26393096 26518744 
1406.865 26657040 26807998 26971348 27146892 27334436 27534380 27747802 
1410.240 27977374 28226018 28497554 28794574 29118936 29470704 29849234 
1413.615 30253456 30682412 31135714 31612758 32111984 32631606 33168658 
1416.991 33720560 34286716 34869152 35472292 36099244 36750464 37419784 
1420.366 38095272 38763192 39410404 40028064 40609456 41152068 41655308 
1423.741 42120360 42549440 42945068 43309504 43643832 43946704 44213796 
1427.116 44437928 44609368 44717296 44753516 44713772 44599896 44419356 
1430.492 44183752 43907036 43603236 43286476 42968444 42656416 42352872 
1433.867 42053772 41750360 41433084 41097864 40753732 40427620 40157828 
1437.242 39980980 39917844 39966012 40105096 40304360 40532192 40758608 
1440.617 40958244 41114692 41217348 41262272 41248972 41177272 41046368 
1443.993 40855140 40603308 40292324 39925620 39508124 39046076 38548308 
1447.368 38029048 37508060 37008876 36554744 36161360 35834860 35572580 
1450.743 35367500 35212208 35102988 35039768 35023208 35050472 35111716 
1454.118 35186016 35242140 35243076 35150160 34939460 34616572 34222716 
1457.494 33817004 33447492 33134256 32870386 32637786 32419554 32207002 
1460.869 31998296 31794362 31592730 31385246 31157678 30895788 30591426 
1464.244 30249550 29888276 29534716 29211956 28931968 28694636 28491504 
1467.619 28312726 28150532 27999496 27854272 27705774 27538864 27333132 
1470.995 27067012 26727966 26320182 25868922 25410824 24979528 24592244 
1474.370 24247802 23934338 23639854 23360078 23100644 22874090 22691954 
1477.745 22560568 22477198 22432606 22414638 22412964 22422244 22442062 
1481.120 22476186 22529926 22609188 22719152 22864452 23050922 23284420 
1484.496 23570548 23912108 24307616 24749010 25220668 25702118 26166366 
1487.871 26582002 26916458 27135288 27208340 27117196 26860302 26456690 
1491.246 25938876 25344678 24704044 24033294 23336232 22607442 21839872 
1494.621 21035016 20207036 19386870 18618706 17945988 17401104 16997190 
1497.997 16729958 16583771 16538093 16572893 16667636 16801624 16955740 
1501.372 17110982 17250932 17362928 17433870 17448840 17386998 17217080 
1504.747 16899208 16393278 15677616 14774755 13760341 12740649 11803042 
1508.122 10986209 10282008 9660285 9088981 8546812 8025976 7530171 7069518 
1511.980 6653796 6289365 5976366 5710020 5482592 5285098 5108983 4945675 
1515.837 4789028 4636422 4490699 4358981 4249755 4168254 4112792 4074260 
1519.695 4037069 3985636 3910604 3815930 3719004 3643484 3605862 3608201 
1523.552 3639708 3682780 3721344 3744637 3751322 3747445 3743835 3749350 
1527.409 3767264 3796276 3833413 3877205 3929662 3994932 4076133 4172068 
1531.267 4276289 4377557 4463717 4527628 4571658 4608995 4656617 4728662 
1535.124 4829231 4953484 5090411 5227649 5354732 5462325 5543666 5593102 
1538.982 5607367 5586356 5535243 5466251 5394351 5333432 5290901 5265143 
1542.839 5247636 5225838 5189454 5134397 5064999 4992328 4929287 4884685 
1546.697 4859051 4845381 4832548 4811173 4776130 4729935 4680664 4638766 
1550.554 4611138 4598011 4594059 4591883 4585922 4575207 4564459 4562249 
1554.411 4576881 4612477 4667166 4732514 4796398 4841963 4848497 4796699 
1558.269 4675037 4493980 4289139 4107941 3983897 3925282 3921370 3952766 
1562.126 3999949 4045564 4078273 4093459 4093994 4088508 4088241 4102389 
1565.984 4133598 4177889 4226334 4268995 4297371 4307745 4301755 4286830 
1569.841 4273780 4272341 4290377 4331405 4395330 4479216 4577518 4681970 
1573.698 4781523 4863742 4918027 4939006 4932035 4912531 4901674 4915614 
1577.556 4959718 5029601 5115723 5208702 5301902 5393579 5484740 5578201 
1581.413 5676415 5780125 5888394 5998907 6109247 6217228 6321202 6419282 
1585.271 6509480 6589672 6658237 6715573 6763595 6806371 6848917 6895909 
1589.128 6951190 7016849 7094170 7183667 7285817 7400292 7525350 7657357 
1592.986 7789236 7912685 8019192 8102296 8158777 8189434 8198686 8192776 
1596.843 8177684 8158878 8140512 8125690 8117454 8118804 8132240 8159250 
1600.700 8199429 8251295 8312051 8379267 8451224 8527315 8607610 8691334 
1604.558 8776595 8860623 8939660 9010119 9070000 9118012 9153542 9176115 
1608.415 9184440 9176182 9149414 9103462 9040533 8966347 8890010 8820450 
1612.273 8765168 8727438 8705160 8692111 8678488 8653948 8609570 8541710 
1616.130 8454502 8361061 8279798 8226746 8211381 8233838 8287329 8360520 
1619.988 8440312 8514677 8572462 8606764 8616532 8606731 8588109 8573037 
1623.845 8571921 8589495 8624644 8672033 8724700 8776020 8820619 8855686 
1627.702 8880575 8897146 8909694 8923898 8946188 8981299 9032683 9099944 
1631.560 9180210 9266785 9350671 9421535 9467622 9479271 9451401 9387473 
1635.417 9301244 9214086 9147350 9113377 9113139 9138518 9177298 9216997 
1639.275 9248135 9266176 9271693 9270542 9270678 9279546 9300838 9333438 
1643.132 9371153 9404571 9423363 9417268 9379414 9307947 9208028 9092161 
1646.990 8978186 8885276 8828159 8814025 8842226 8905229 8989451 9074229 
1650.847 9133916 9134728 9041987 8836850 8538499 8210369 7926621 7732736 
1654.704 7628053 7586173 7574540 7568134 7552524 7521675 7476603 7421223 
1658.562 7360659 7297273 7230730 7157931 7074064 6974489 6856356 6720385 
1662.419 6571439 6418811 6273397 6145843 6042784 5965716 5910998 5870795 
1666.277 5834860 5791642 5730734 5645263 5533296 5399283 5253405 5109553 
1670.134 4980765 4876341 4800318 4750971 4721997 4702703 4680563 4641311 
1673.991 4572997 4471249 4342917 4206460 4083859 3992391 3937085 3911574 
1677.849 3902981 3898000 3889107 3875300 3862730 3859922 3872792 3899538 
1681.706 3928926 3940662 3912042 3825490 3680942 3501835 3328913 3199583 
1685.564 3128825 3110570 3126322 3157093 3187333 3207594 3214136 3207293 
1689.421 3190504 3169376 3151086 3143276 3151987 3180357 3226621 3283640 
1693.279 3338328 3375392 3380401 3346542 3281336 3207494 3154156 3140706 
1697.136 3169376 3223917 3278765 3303671 3272723 3175684 3027114 2866054 
1700.993 2735762 2662312 2645010 2665946 2700819 2728593 2734395 2710821 
1704.851 2659045 2587342 2508552 2433675 2369705 2318103 2276632 2241593 
1708.708 2210054 2180682 2153809 2131000 2113886 2103531 2100035 2102499 
1712.566 2109357 2118813 2129402 2139657 2147382 2149413 2140590 2114718 
1716.423 2066775 1995635 1907668 1815459 1736010 1681323 1656676 1658872 
1720.281 1679427 1707335 1732917 1749716 1755206 1750681 1740002 1727960 
1724.138 1718280 1713024 1711959 1714354 1719244 1725631 1732517 1739271 
1727.995 1744993 1750249 1756836 1768680 1790505 1824975 1871660 1924008 
1731.853 1969706 1991874 1974599 1909465 1804346 1683918 1580616 1518766 
1735.710 1504403 1528276 1572967 1620823 1656277 1669781 1658872 1628672 
1739.568 1589262 1551419 1523022 1506398 1499448 1498052 1498418 1498850 
1743.425 1499116 1500446 1504070 1510620 1520030 1531601 1544503 1558036 
1747.282 1571338 1583110 1591291 1592521 1583077 1560065 1522756 1474280 
1751.140 1421787 1375050 1342876 1330645 1338522 1361754 1391803 1418928 
1754.997 1434652 1433588 1415869 1386983 1356669 1334533 1326025 1330911 
1758.855 1343607 1355340 1357168 1342344 1309142 1261453 1207690 1158086 
1762.712 1122307 1105299 1107524 1125695 1153966 1185595 1213305 1232079 
1766.570 1238791 1234504 1223672 1213837 1211710 1220648 1238425 1257765 
1770.427 1268930 1261653 1230883 1178917 1116427 1058297 1016216 995758 
1774.284 994429 1005256 1020434 1034881 1046539 1056537 1066734 1078160 
1778.142 1089620 1098123 1100449 1095366 1084438 1072314 1064043 1063013 
1781.999 1069059 1078093 1084737 1083707 1072447 1052285 1027707 1004592 
1785.857 988053 981146 984234 996688 1016448 1041789 1070454 1098887 1122440 
1790.196 1134930 1130878 1106727 1063844 1009042 952520 904738 872599 858057 
1794.536 858555 869146 885481 903676 921440 937511 950594 959062 961055 
1798.875 955044 940666 919315 894479 870109 850189 837076 831200 831432 
1803.215 835847 842487 849924 857393 864299 870806 876915 883024 889233 
1807.555 896039 902813 908789 912442 911977 905967 894346 878243 860282 
1811.894 843450 830104 821705 817954 817821 819780 822867 827050 833258 
1816.234 842487 855401 871769 890295 909221 927317 943986 959992 976463 
1820.573 995060 1016581 1040394 1064242 1084438 1097293 1099784 1091181 
1824.431 1074108 1054045 1038435 1033154 1041258 1061320 1088058 1113105 
1828.288 1127722 1126061 1106627 1073742 1036044 1003861 984732 981511 
1832.146 992005 1010869 1032423 1051820 1066866 1077828 1086099 1093573 
1836.003 1100681 1106827 1110780 1111677 1110182 1109584 1113902 1127854 
1839.861 1154033 1192406 1239256 1288338 1331077 1358597 1364480 1346498 
1843.718 1308211 1259127 1211744 1176026 1157953 1157255 1169182 1186658 
1847.575 1203005 1214335 1219685 1221114 1221745 1224702 1231115 1239688 
1851.433 1247995 1253478 1254741 1252548 1248660 1245138 1243410 1243410 
1855.290 1243709 1243177 1241117 1238193 1236266 1237229 1241748 1249325 
1859.148 1258164 1265873 1271057 1273317 1273550 1273217 1273815 1275809 
1863.005 1279166 1284051 1290764 1300501 1314293 1332074 1352016 1369765 
1866.863 1380135 1378440 1362087 1333038 1296712 1261055 1233208 1217060 
1870.720 1212707 1217425 1227394 1239123 1250587 1261487 1271755 1281193 
1874.577 1289301 1294984 1297078 1295649 1291196 1285679 1280561 1277338 
1878.435 1276274 1277371 1279930 1283320 1287341 1291561 1295250 1297377 
1882.292 1296579 1292126 1284184 1274746 1266903 1263879 1267933 1279265 
1886.150 1295881 1313662 1328351 1336461 1336029 1327454 1312997 1296347 
1890.007 1281126 1270858 1267402 1271057 1281326 1295848 1312000 1326490 
1893.865 1336993 1341845 1341779 1338156 1333769 1331044 1330645 1332473 
1897.722 1334633 1335431 1333503 1329116 1323399 1317982 1314625 1313562 
1901.579 1314260 1315456 1315689 1314625 1312365 1309541 1307547 1307148 
1905.437 1308377 1311535 1316154 1322469 1329980 1338621 1347761 1356503 
1909.294 1364015 1369665 1373986 1376911 1379836 1383293 1387747 1393465 
1913.152 1400744 1410085 1421587 1435616 1451074 1465636 1476408 1479998 
1917.009 1475277 1463375 1448348 1436513 1432990 1439871 1455363 1474147 
1920.866 1489142 1494262 1486515 1466700 1439372 1410451 1385554 1368302 
1924.724 1359494 1358431 1363682 1374784 1390872 1411581 1435317 1459120 
1928.581 1480198 1496090 1505766 1511219 1515741 1522790 1534228 1549757 
1932.439 1567015 1582744 1594750 1602764 1608551 1615335 1625712 1641277 
1936.296 1661632 1684716 1708400 1731153 1752079 1771075 1787377 1799654 
1940.154 1806442 1806043 1798124 1784316 1768447 1754906 1747288 1747854 
1944.011 1755838 1769345 1786046 1803813 1821781 1839582 1856652 1872026 
1947.868 1883973 1890928 1891760 1886768 1877118 1865371 1853525 1842910 
1951.726 1834358 1827770 1823544 1822745 1827038 1837419 1854290 1876053 
1955.583 1899647 1921712 1938685 1948337 1950401 1945209 1934059 1918750 
1959.441 1899447 1876685 1850995 1824043 1798024 1775966 1760662 1754507 
1963.298 1758765 1773670 1798789 1833027 1874023 1917552 1958922 1992406 
1967.156 2012346 2015907 2002559 1975797 1941015 1905405 1875820 1857917 
1971.013 1854223 1865171 1888965 1921812 1959854 1998531 2034516 2066375 
1974.870 2095373 2124407 2158371 2201129 2253717 2314105 2375735 2430143 
1978.728 2469896 2490357 2490790 2474528 2446904 2414217 2380733 2349450 
1982.585 2320301 2291921 2263875 2235165 2207190 2181881 2162933 2153776 
1986.443 2157938 2177352 2212052 2259512 2313772 2367307 2411451 2439040 
1990.300 2447137 2437207 2414383 2387196 2363908 2349683 2346718 2352648 
1994.157 2363575 2374936 2384164 2390395 2395192 2399923 2405821 2412984 
1998.015 2420481 2427045 2430677 2430743 2425845 2414883 2396691 2370638 
2001.872 2337524 2299616 2260778 2226140 2200030 2184711 2179883 2182280 
2005.730 2187375 2191605 2193136 2193037 2194435 2200463 2213251 2232967 
2009.587 2257980 2285459 2313106 2339256 2362576 2383631 2402189 2418082 
2013.445 2431543 2442405 2450869 2457100 2461032 2462265 2461299 2457133 
2017.302 2450502 2442805 2435808 2432043 2433076 2439407 2450369 2464531 
2021.159 2479526 2494222 2507353 2517984 2525982 2530681 2531581 2529382 
2025.017 2526216 2524449 2527249 2536547 2552178 2571976 2592009 2607809 
2028.874 2617709 2622376 2625009 2630076 2641410 2660212 2685516 2714856 
2032.732 2744431 2772675 2799919 2827032 2855715 2886934 2919589 2952715 
2036.589 2985342 3016304 3046133 3075497 3103528 3129226 3149450 3161499 
2040.447 3164102 3158729 3148449 3138837 3134298 3137402 3147782 3161666 
2044.304 3174349 3181392 3181158 3174215 3165204 3158896 3160231 3172513 
2048.161 3195377 3224985 3255596 3279667 3290951 3285810 3263675 3228156 
2052.019 3185731 3143610 3108835 3085975 3075864 3075364 3079769 3082705 
2055.876 3080202 3070725 3055910 3038792 3023377 3012534 3008029 3010498 
2059.734 3019173 3033454 3052039 3073662 3095920 3116711 3133030 3143410 
2063.591 3147515 3147047 3145078 3144211 3146614 3152287 3159797 3166773 
2067.448 3171612 3173915 3174750 3175684 3178221 3182593 3187600 3192039 
2071.306 3194543 3195444 3196212 3198949 3206025 3217875 3233030 3248987 
2075.163 3262674 3271921 3276161 3276361 3274659 3272990 3273023 3274792 
2079.021 3278097 3282037 3285609 3288480 3290450 3291185 3290918 3289816 
2082.878 3287779 3285376 3282404 3278698 3273691 3265645 3253660 3236602 
2086.736 3214837 3189369 3162367 3136101 3111938 3090747 3072261 3055910 
2090.593 3041395 3029650 3022009 3020408 3025946 3038759 3057478 3080336 
2094.450 3104596 3128391 3150452 3169977 3187033 3200951 3211232 3217908 
2098.308 3221847 3224484 3228390 3235300 3246383 3261172 3277163 3291619 
2102.165 3301835 3306743 3306209 3302202 3296727 3291352 3287045 3283640 
2106.023 3281002 3279233 3279433 3283072 3292286 3308045 3330515 3358563 
2109.880 3389985 3422779 3454774 3484633 3511121 3533602 3551507 3564502 
2113.738 3572687 3576830 3578032 3577598 3576997 3576462 3576228 3575928 
2117.595 3575393 3574758 3574692 3576295 3580237 3586418 3593601 3600149 
2121.452 3604158 3604927 3602120 3596975 3591429 3587019 3584480 3583478 
2125.310 3582877 3580939 3576095 3568010 3556618 3543156 3529092 3515497 
2129.167 3503105 3491714 3480625 3468935 3455709 3441114 3425985 3412894 
2133.025 3404311 3403410 3411625 3428958 3453238 3480458 3505877 3526186 
2136.882 3539615 3546296 3548868 3549737 3551173 3554814 3560560 3567709 
2140.740 3576061 3584981 3594737 3605628 3615919 3623837 3626310 3621165 
2144.597 3607533 3587387 3563901 3543022 3529059 3524650 3529860 3541719 
2148.454 3555850 3566373 3568946 3559892 3536942 3499831 3449731 3389852 
2152.312 3324305 3258935 3200217 3154557 3126722 3119547 3134432 3171746 
2156.169 3231928 3315190 3421710 3549169 3691936 3839664 3980085 4101820 
2160.027 4195587 4259157 4295530 4311861 4315776 4314873 4313434 4312865 
2163.884 4311794 4308347 4300282 4287064 4268158 4244167 4216832 4186621 
2167.741 4154773 4122057 4089177 4056935 4025632 3994865 3964503 3934577 
2171.599 3905255 3877774 3853704 3834683 3821713 3814660 3811284 3809212 
2175.456 3804699 3794638 3777491 3752792 3722079 3687993 3654210 3624639 
2179.314 3602789 3591329 3591329 3602254 3621365 3645021 3668879 3689329 
2183.171 3703465 3710583 3710015 3702562 3689062 3670449 3648028 3624238 
2187.029 3600817 3580438 3565571 3556017 3550371 3546496 3541552 3533502 
2190.886 3522745 3511088 3501835 3497894 3499931 3506845 3514762 3519873 
2194.743 3518370 3509651 3494587 3476617 3459416 3445790 3436706 3431596 
2198.601 3428390 3424449 3418838 3410289 3398968 3385978 3371653 3357428 
2202.458 3343637 3331083 3320131 3311317 3303938 3297795 3291552 3284741 
2206.316 3277330 3270319 3266079 3266246 3273023 3286544 3305674 3327610 
2210.173 3348946 3366544 3378732 3384576 3384809 3381503 3376928 3373055 
2214.031 3371853 3374224 3380201 3389484 3400338 3411191 3420274 3425885 
2217.888 3426920 3423547 3416200 3406182 3395061 3384743 3376928 3373155 
2221.745 3374457 3381704 3394660 3412259 3432798 3453906 3472876 3488141 
2225.603 3498495 3504441 3507079 3507781 3507681 3507614 3507981 3508583 
2229.460 3510152 3513593 3520541 3533001 3552443 3578567 3610206 3643852 
2233.318 3675662 3701527 3717734 3722480 3715796 3699087 3675528 3649432 
2237.175 3624739 3605862 3596508 3598546 3612578 3637403 3670316 3706539 
2241.032 3741930 3772445 3795440 3810615 3819273 3824521 3829435 3836755 
2244.890 3847352 3861125 3875868 3888973 3898702 3904285 3906893 3908231 
2248.747 3911507 3918695 3930765 3946714 3964704 3982025 3996571 4006938 
2252.605 4013793 4018341 4022287 4027304 4034059 4042119 4050112 4056366 
2256.462 4059543 4059143 4054661 4046902 4036869 4025465 4013525 4001487 
2260.320 3989682 3978447 3968381 3959955 3954104 3951328 3951997 3955575 
2264.177 3961627 3969017 3976808 3984834 3993294 4002992 4014663 4028976 
2268.034 4045330 4061918 4076267 4085498 4087705 4081752 4068574 4050547 
2271.892 4030581 4011385 3994798 3981556 3971425 3963767 3958016 3954237 
2275.749 3952766 3953836 3957648 3963266 3969218 3974133 3976541 3976674 
2279.607 3975839 3975738 3978815 3986505 3999246 4015900 4034126 4051149 
2283.464 4063958 4070948 4071116 4065196 4054761 4041785 4028407 4016569 
2287.322 4007171 4000617 3996136 3992926 3989616 3985602 3980085 3973197 
2291.179 3965807 3958517 3952399 3947818 3945076 3944140 3944808 3946748 
2295.036 3949991 3954672 3960791 3968348 3977310 3987308 3998310 4010114 
2298.894 4022923 4036734 4051885 4068039 4084829 4101453 4117073 4130888 
2302.751 4143132 4154204 4164909 4176751 4190669 4207664 4227538 4249789 
2306.609 4273746 4298275 4322770 4347268 4372135 4398476 4426995 4458595 
2310.466 4493344 4531009 4570519 4610903 4650856 4689506 4726284 4761088 
2314.323 4794623 4827924 4862335 4899597 4941218 4988575 5041836 5100837 
2318.181 5164071 5229795 5296167 5361710 5425720 5487357 5545915 5599882 
2322.038 5646472 5682390 5704212 5709785 5699713 5676751 5646472 5616228 
2325.896 5592398 5580516 5583470 5601426 5631870 5670910 5714048 5757326 
2329.753 5797385 5831972 5860115 5881744 5897462 5908983 5918656 5928867 
2333.611 5942236 5960443 5983991 6012244 6043557 6076048 6107768 6138315 
2337.468 6167283 6195583 6223648 6251849 6279515 6305838 6328867 6346989 
2341.325 6358756 6362254 6355932 6337608 6304325 6252858 6181097 6088010 
2345.183 5975761 5850476 5722173 5603272 5506786 5445280 5427129 5457191 
2349.040 5535209 5656609 5813301 5993330 6184962 6375871 6556268 6720217 
2352.898 6865310 6992503 7104578 7204924 7296363 7380273 7457221 7526901 
2356.755 7588600 7641643 7685720 7720323 7745587 7761946 7770143 7771054 
2360.613 7765657 7754795 7738638 7717659 7692195 7662618 7629637 7594602 
2364.470 7557885 7520529 7482199 7442322 7399820 7354053 7304416 7250944 
2368.327 7193941 7133746 7070393 7003716 6933144 6858678 6780355 6698782 
2372.185 6614937 6529964 6444840 6359866 6275582 6192020 6109347 6028438 
2376.042 5950331 5876303 5807895 5745843 5690682 5642208 5599782 5562326 
2379.900 5529269 5499604 5473196 5449810 5429679 5413206 5400792 5392372 
2383.757 5387876 5386937 5389051 5393781 5400792 5410086 5421794 5436221 
2387.615 5452997 5471552 5490377 5508228 5523229 5534571 5542022 5546217 
2391.472 5548499 5550378 5553298 5558298 5565715 5575817 5588404 5603172 
2395.329 5619820 5638013 5657146 5676617 5695819 5714552 5732615 5750275 
2399.187 5767533 5784456 5800910 5816323 5830092 5842316 5853533 5864951 
2403.044 5878318 5895246 5916507 5942202 5971898 6004248 6038047 6072486 
2406.902 6107399 6142751 6178845 6215749 6253160 6290743 6327858 6364237 
2410.759 6399711 6434246 6468044 6501105 6533529 6565216 6596434 6627721 
2414.616 6659684 6692961 6727957 6763864 6800179 6835587 6869080 6900185 
2418.474 6928801 6955802 6981896 7007925 7034191 7060795 7087434 7114042 
2422.331 7140718 7167733 7195289 7223452 7251820 7279684 7306034 7330599 
2426.189 7353211 7374881 7396922 7420818 7447682 7478188 7511629 7547669 
2430.046 7584891 7622657 7660629 7699277 7739246 7781308 7826007 7873275 
2433.904 7922505 7972617 8022195 8070058 8115630 8158912 8200678 8242448 
2437.761 8286147 8333363 8385111 8441629 8502344 8566177 8631437 8696607 
2441.618 8761009 8824170 8886155 8947372 9008157 9068681 9129415 9190599 
2445.476 9253077 9317934 9386017 9457937 9533425 9610891 9687897 9761291 
2449.333 9828528 9887844 9939642 9985750 10029252 10073775 10122203 10175929 
2453.191 10234579 10296123 10357505 10415263 10466615 10509317 10542381 
2456.566 10565840 10580133 10586414 10585226 10577553 10563633 10543467 
2459.941 10516853 10483722 10443807 10397820 10346273 10290321 10231153 
2463.316 10169417 10105450 10039492 9971171 9900623 9828257 9754683 9681019 
2467.174 9608452 9537659 9468943 9402472 9337907 9275214 9214797 9157333 
2471.031 9103361 9053862 9009003 8968648 8932658 8900258 8871105 8845303 
2474.889 8822918 8804152 8789511 8779131 8772843 8770205 8770442 8772437 
2478.746 8775344 8777441 8777069 8772978 8763950 8749852 8731055 8708675 
2482.604 8684336 8659458 8635459 8613254 8593348 8575943 8561512 8550394 
2486.461 8542757 8538534 8537216 8537689 8538499 8538331 8536270 8532180 
2490.318 8526470 8519880 8513156 8507040 8501634 8496870 8492680 8488998 
2494.176 8486261 8484875 8485686 8488896 8494538 8502310 8511602 8521638 
2498.033 8531505 8540358 8547354 8551713 8553064 8551442 8547657 8543264 
2501.891 8540290 8540730 8545765 8555768 8569690 8585439 8600006 8611090 
2505.748 8617073 8617478 8613254 8606494 8599160 8593686 8591827 8593686 
2509.605 8599295 8607677 8617140 8626131 8633127 8636913 8637115 8633702 
2513.463 8626638 8616431 8603723 8588819 8572327 8554652 8536370 8518158 
2517.320 8500654 8484470 8470347 8458724 8449906 8444028 8441089 8440548 
2521.178 8441798 8443893 8445616 8445987 8444501 8441055 8436291 8431798 
2525.035 8428453 8427406 8428960 8432102 8435785 8438623 8439196 8436798 
2528.893 8431561 8424061 8415413 8406393 8397982 8390922 8386260 8384300 
2532.750 8385449 8389976 8397543 8407271 8418082 8428690 8438183 8446291 
2536.607 8452981 8458589 8463860 8469198 8474806 8480551 8486767 8493491 
2540.465 8501262 8510656 8522009 8535154 8549584 8564216 8577801 8589360 
2544.322 8598113 8604027 8607576 8609503 8610719 8612038 8614133 8617343 
2548.180 8621804 8627145 8633161 8639076 8644518 8649081 8652833 8655875 
2552.037 8658883 8662026 8665880 8670139 8675209 8681159 8688021 8696404 
2555.895 8706884 8719358 8733287 8747553 8760062 8769427 8774093 8773722 
2559.752 8769224 8762463 8755464 8750325 8748195 8749447 8753402 8758946 
2563.609 8764593 8769326 8772065 8772301 8769698 8764863 8758135 8750866 
2567.467 8744443 8740453 8739980 8743632 8750968 8760941 8771659 8781565 
2571.324 8789173 8794076 8796544 8797964 8800027 8804456 8812639 8825725 
2575.182 8843781 8866372 8892581 8920820 8949435 8976766 9001121 9021147 
2579.039 9036270 9046216 9051426 9053118 9052813 9052137 9053219 9057617 
2582.896 9066110 9079440 9097339 9119061 9143594 9169718 9196318 9222616 
2586.754 9247797 9271151 9292511 9311671 9328564 9343797 9358017 9372033 
2590.611 9386796 9402641 9419605 9437043 9454415 9470974 9486484 9501013 
2594.469 9515576 9531020 9548193 9567770 9589754 9613635 9638738 9664249 
2598.326 9689693 9714664 9738723 9761969 9784538 9806193 9827410 9848355 
2602.184 9869608 9891607 9914827 9939574 9965882 9993548 10022232 10051666 
2606.041 10081406 10111317 10141231 10171316 10201403 10231595 10261687 
2609.416 10291271 10319907 10346985 10372062 10394969 10416112 10436034 
2612.792 10456026 10477002 10499609 10523676 10548628 10573241 10596294 
2616.167 10617039 10635103 10651029 10665766 10679859 10693647 10707333 
2619.542 10720204 10731922 10742653 10752911 10763711 10776177 10790987 
2622.917 10808073 10826892 10846154 10864499 10881316 10896231 10909652 
2626.292 10922223 10934728 10947232 10960314 10973466 10987126 11001536 
2629.668 11017032 11034094 11053093 11073962 11096124 11118933 11141912 
2633.043 11164621 11187366 11210724 11235613 11262510 11291482 11322396 
2636.418 11354332 11386134 11416986 11446037 11473083 11498055 11521667 
2639.793 11544737 11567978 11592377 11618343 11646318 11676202 11707619 
2643.169 11740060 11772775 11805017 11836342 11866136 11894570 11922019 
2646.544 11948958 11976069 12003931 12032681 12062455 12092844 12123201 
2649.919 12153083 12182081 12210161 12237732 12265304 12293390 12322431 
2653.294 12352566 12383418 12414478 12445164 12475069 12503713 12531439 
2656.670 12558245 12584611 12611181 12638300 12666410 12695954 12726967 
2660.045 12759450 12793164 12827699 12862477 12897290 12931800 12965903 
2663.420 12999632 13033194 13066690 13100429 13134134 13168151 13202511 
2666.795 13237796 13274314 13312339 13352075 13393421 13436070 13479440 
2670.171 13523259 13567561 13612586 13658743 13706752 13756717 13808670 
2673.546 13862135 13916393 13970590 14023938 14075957 14125998 14174265 
2676.921 14220824 14265985 14310329 14355054 14400776 14448354 14498197 
2680.296 14550378 14604482 14659792 14715727 14771841 14828373 14885942 
2683.672 14945129 15006828 15071384 15138899 15208725 15280345 15352768 
2687.047 15425340 15497821 15569833 15641583 15713241 15785083 15857281 
2690.422 15930006 16003121 16077109 16151726 16227253 16303789 16381681 
2693.797 16461171 16542086 16624289 16707025 16789604 16871200 16951366 
2697.173 17029856 17107188 17184400 17262552 17342822 17425868 17511792 
2700.548 17600254 17690250 17780750 17870680 17959386 18046382 18131810 
2703.923 18215454 18297872 18379234 18459574 18539132 18617496 18694420 
2707.298 18769386 18842152 18912402 18980100 19045146 19107916 19168236 
2710.674 19226208 19281730 19334452 19384270 19431184 19474986 19515776 
2714.049 19553344 19587312 19617262 19642568 19662918 19678554 19690064 
2717.424 19698558 19705182 19710972 19716450 19721756 19726506 19729938 
2720.799 19731638 19731046 19728378 19723938 19718428 19712358 19706464 
2724.175 19701298 19697172 19694504 19693358 19693776 19695752 19699080 
2727.550 19703622 19709238 19716034 19724044 19733440 19744640 19757402 
2730.925 19771756 19787916 19805570 19824782 19845902 19868900 19893734 
2734.300 19920236 19947918 19976088 20004020 20031082 20056864 20081674 
2737.676 20105654 20129046 20152508 20176352 20200650 20225400 20250500 
2741.051 20275460 20300284 20324554 20348096 20370666 20392058 20412200 
2744.426 20430918 20448110 20464122 20478640 20492360 20505490 20518378 
2747.801 20531614 20545232 20559404 20573960 20588690 20603318 20617876 
2751.177 20632574 20647724 20663882 20681568 20700682 20721568 20743496 
2754.552 20766124 20788890 20811170 20832584 20853200 20873050 20892796 
2757.927 20913274 20935214 20959796 20987650 21018948 21053136 21089030 
2761.302 21125206 21159818 21191546 21219484 21243318 21263466 21280378 
2764.677 21294298 21305328 21313298 21317892 21319074 21317508 21313540 
2768.053 21308948 21304494 21301256 21299796 21300318 21302370 21305642 
2771.428 21309852 21314586 21319632 21324748 21329270 21332856 21335084 
2774.803 21335884 21335328 21334284 21333518 21334040 21336892 21342114 
2778.178 21349700 21358784 21368252 21377056 21384124 21388752 21390806 
2781.554 21390352 21387882 21383532 21377998 21371836 21365640 21360074 
2784.929 21355930 21353912 21354192 21357044 21361534 21366930 21372148 
2788.304 21376256 21378692 21379842 21380538 21381826 21384890 21390352 
2791.679 21398254 21408174 21419556 21431984 21445562 21460112 21476510 
2795.055 21495274 21516198 21538760 21561846 21584098 21604330 21621986 
2798.430 21636890 21649742 21661618 21673390 21685616 21698608 21712018 
2801.805 21725080 21737272 21747968 21757094 21765002 21772318 21780086 
2805.180 21788936 21799284 21811476 21825308 21840292 21856144 21873080 
2808.556 21891304 21911410 21933958 21959330 21987736 22018584 22051246 
2811.931 22085062 22119472 22154410 22190324 22227778 22267432 22309810 
2815.306 22355016 22402986 22453296 22505604 22559662 22615330 22672650 
2818.681 22731510 22791848 22853624 22916702 22981220 23047394 23115706 
2822.057 23186510 23260650 23338190 23419034 23503004 23589544 23677746 
2825.432 23766666 23855606 23943826 24031050 24117452 24203274 24289114 
2828.807 24375846 24463894 24553464 24644670 24737190 24830468 24924432 
2832.182 25018872 25113966 25210132 25307832 25407450 25509340 25613820 
2835.558 25720822 25830346 25942604 26057320 26174566 26293990 26415490 
2838.933 26538890 26664298 26791962 26922698 27057524 27197440 27344068 
2842.308 27498196 27660994 27833038 28015010 28207314 28410206 28624236 
2845.683 28849528 29085986 29332892 29588378 29848808 30109392 30364022 
2849.059 30605220 30825956 31020040 31183060 31313020 31410180 31477328 
2852.434 31518408 31538464 31542920 31537286 31527136 31517480 31512850 
2855.809 31516980 31531944 31559344 31598292 31647828 31705816 31770404 
2859.184 31839888 31912952 31989132 32067354 32147482 32228698 32310784 
2862.560 32393672 32477430 32562922 32650680 32741316 32834650 32930430 
2865.935 33027132 33123456 33217516 33307876 33393708 33474724 33551286 
2869.310 33624312 33694776 33763640 33831224 33896668 33958972 34016228 
2872.685 34066972 34110444 34147220 34179516 34210132 34242720 34280152 
2876.061 34324112 34375144 34432780 34496164 34564292 34637308 34715764 
2879.436 34800544 34892456 34991892 35098320 35210340 35326848 35446300 
2882.811 35568084 35691704 35817048 35943940 36072024 36201152 36330428 
2886.186 36459560 36588332 36716320 36843512 36969620 37094180 37216612 
2889.562 37336292 37452904 37566260 37676676 37784560 37890736 37995920 
2892.937 38100916 38206444 38313264 38421992 38532844 38645612 38759824 
2896.312 38873988 38986336 39093968 39193532 39281300 39352868 39404056 
2899.687 39431416 39432140 39405000 39350548 39270780 39168840 39048432 
2903.063 38913632 38768152 38615156 38457432 38297448 38137344 37978856 
2906.438 37823420 37672232 37525472 37383380 37245636 37111936 36981600 
2909.813 36854620 36730632 36608992 36489256 36370668 36252116 36132228 
2913.188 36009384 35881536 35746744 35602680 35447236 35278832 35096416 
2916.563 34900104 34690712 34470228 34240748 34005084 33765252 33523474 
2919.939 33280686 33037606 32794196 32549888 32303788 32055474 31804520 
2923.314 31551256 31296678 31042354 30790278 30542546 30301204 30068200 
2926.689 29845188 29633394 29433792 29246972 29072914 28911002 28759842 
2930.064 28617760 28482694 28352906 28227042 28104682 27986208 27872076 
2933.440 27763484 27661490 27566682 27479560 27399968 27327838 27262352 
2936.815 27202802 27148234 27097376 27049274 27003150 26958338 26914482 
2940.190 26871196 26827910 26783610 26736882 26685578 26628080 26562278 
2943.565 26486800 26401016 26304092 26195928 26076214 25944820 25801968 
2946.941 25648160 25484604 25313138 25135872 24955314 24773426 24592034 
2950.316 24412332 24235156 24061310 23891382 23725966 23565792 23411374 
2953.691 23262780 23120144 22983212 22851600 22725402 22604580 22489656 
2957.066 22381180 22279778 22186070 22100436 22023116 21954278 21893744 
2960.442 21841476 21797262 21760856 21731734 21709440 21693104 21681540 
2963.817 21673634 21667818 21662732 21656916 21648802 21637274 21620906 
2967.192 21598096 21567242 21526712 21474734 21409984 21332090 21241370 
2970.567 21139294 21028096 20910388 20788752 20665514 20542348 20420570 
2973.943 20301012 20184856 20072722 19965542 19863904 19767908 19677098 
2977.318 19590398 19506452 19423596 19340652 19256756 19171524 19084822 
2980.693 18997166 18909148 18821388 18734582 18649660 18567108 18487752 
2984.068 18412452 18341696 18275856 18215212 18159792 18109458 18063928 
2987.444 18022862 17985942 17952618 17922334 17894228 17867434 17840194 
2990.819 17810574 17776848 17737120 17690492 17637036 17577964 17515796 
2994.194 17453498 17394070 17339686 17291652 17249762 17213044 17180158 
2997.569 17149792 17121216 17094610 17070176 17048602 17030098 17014660 
3000.945 17001738 16990816 16981098 16972520 16965422 16960116 16957154 
3004.320 16956672 16958290 16961218 16964802 16967904 16970108 16971486 
3007.695 16972624 16974450 16977964 16984028 16993090 17005288 17020450 
3011.070 17038092 17057700 17078998 17101502 17124974 17149102 17173576 
3014.446 17198152 17222768 17247760 17273446 17300928 17330926 17364272 
3017.821 17401518 17442492 17486474 17532458 17579378 17626340 17672650 
3021.196 17717894 17762178 17805294 17847308 17887804 17926720 17963770 
3024.571 17998962 18032498 18064688 18095880 18126176 18155716 18184080 
3027.947 18211066 18235980 18258474 18278312 18295488 18310348 18323170 
3031.322 18334646 18345186 18355140 18364544 18373390 18381306 18388324 
3034.697 18394340 18399938 18405712 18412522 18421200 18432088 18444984 
3038.072 18459538 18474992 18490656 18506214 18521704 18537716 18554694 
3041.448 18572952 18592836 18613968 18636068 18658758 18681760 18705142 
3044.823 18729254 18753956 18779384 18804988 18830420 18855162 18878832 
3048.198 18901466 18923718 18946354 18970340 18996614 19025932 19058128 
3051.573 19093028 19129592 19166676 19203038 19237672 19270266 19301024 
3054.948 19330780 19360574 19391582 19424636 19459842 19496922 19535148 
3058.324 19573864 19612236 19650334 19688158 19725916 19763538 19800366 
3061.699 19835534 19868032 19896996 19921936 19943444 19962628 19980878 
3065.074 20000272 20021922 20046800 20074838 20105412 20137238 20168890 
3068.449 20198844 20226128 20250186 20271642 20291154 20310282 20330526 
3071.825 20352956 20378166 20406122 20436094 20467108 20498508 20529634 
3075.200 20560516 20591784 20623852 20657418 20692862 20730186 20768870 
3078.575 20808356 20847984 20886990 20924854 20961606 20997388 21032756 
3081.950 21068438 21105100 21143190 21182780 21223452 21264718 21305886 
3085.326 21346570 21386906 21427320 21468710 21511846 21557006 21604470 
3088.701 21653676 21704006 21754760 21805204 21855168 21904336 21952848 
3092.076 22000422 22047028 22092556 22136870 22180316 22223314 22266908 
3095.451 22311866 22359238 22409684 22463382 22520050 22578788 22638230 
3098.827 22697088 22753962 22808016 22859388 22908844 22957886 23008296 
3102.202 23061334 23117768 23177354 23238904 23301130 23362420 23421482 
3105.577 23478346 23533154 23586536 23639608 23693178 23747840 23804082 
3108.952 23862048 23921840 23983254 24046074 24109816 24174056 24238414 
3112.328 24302640 24367014 24431610 24496530 24561950 24627380 24692402 
3115.703 24756448 24819206 24880922 24942294 25004306 25067804 25133274 
3119.078 25200654 25269024 25337758 25405904 25473220 25539738 25606052 
3122.453 25672626 25739946 25808508 25877890 25948162 26019042 26090744 
3125.829 26163304 26236860 26311556 26387180 26463274 26539312 26614976 
3129.204 26689488 26762606 26834220 26904188 26972688 27040422 27108026 
3132.579 27176382 27246546 27319264 27395098 27474370 27556832 27642068 
3135.954 27729366 27817812 27906488 27994514 28081036 28165770 28248718 
3139.330 28330198 28411020 28492282 28574798 28659204 28745894 28834724 
3142.705 28925416 29017826 29111320 29205860 29301096 29396564 29492016 
3146.080 29587066 29681568 29775596 29869358 29963176 30056980 30150588 
3149.455 30243652 30335846 30427062 30517554 30608206 30700442 30795152 
3152.831 30893048 30993956 31097058 31201538 31306506 31411390 31516410 
3156.206 31621848 31728126 31835220 31942728 32050050 32156474 32261814 
3159.581 32365826 32469400 32573170 32678116 32785084 32894366 33006358 
3162.956 33120848 33237688 33356282 33475694 33594996 33713324 33830112 
3166.332 33945320 34059304 34173208 34288112 34404660 34523176 34643484 
3169.707 34764792 34886208 35007336 35127668 35247316 35366564 35485956 
3173.082 35606028 35726924 35848676 35971656 36095208 36218872 36341992 
3176.457 36464280 36585524 36706148 36827280 36950248 37076100 37205168 
3179.833 37337124 37470784 37604412 37736776 37867232 37996212 38124680 
3183.208 38253988 38385104 38518360 38653760 38790872 38929184 39069092 
3186.583 39210576 39353740 39498396 39643756 39788912 39932700 40074540 
3189.958 40214784 40354096 40493740 40634668 40777428 40922308 41069020 
3193.333 41217420 41367624 41519956 41674564 41831164 41989424 42147996 
3196.709 42305572 42461560 42615516 42767736 42919136 43070660 43223112 
3200.084 43377200 43533568 43692560 43854872 44020436 44189220 44360488 
3203.459 44533512 44707272 44881464 45056280 45232048 45409576 45588244 
3206.834 45766952 45943820 46117072 46286004 46452020 46617652 46786492 
3210.210 46961556 47144076 47332588 47523884 47714004 47899652 48079760 
3213.585 48255496 48429560 48605552 48785724 48971168 49161364 49354872 
3216.960 49550216 49746204 49942352 50138256 50333764 50527876 50720208 
3220.335 50910836 51100056 51289776 51481548 51677252 51877412 52081664 
3223.711 52288736 52497072 52705500 52913844 53122064 53330908 53540420 
3227.086 53749988 53958572 54165044 54368792 54569752 54768504 54966336 
3230.461 55164028 55362492 55562324 55764020 55968260 56175840 56387516 
3233.836 56603564 56823604 57046820 57271848 57497868 57724080 57950596 
3237.212 58177232 58404216 58631128 58857588 59083484 59309460 59537036 
3240.587 59768188 60004792 60247844 60496664 60749408 61003588 61257272 
3243.962 61509616 61761300 62014012 62269820 62530100 62795392 63065336 
3247.337 63339324 63617156 63899584 64187272 64481100 64781100 65085836 
3250.713 65393300 65700664 66006132 66308380 66607900 66905848 67203768 
3254.088 67503448 67806152 68112640 68423496 68738952 69058608 69381792 
3257.463 69707216 70033344 70358552 70682048 71003128 71322040 71639072 
3260.838 71954248 72266848 72575792 72879552 73177328 73468752 73754720 
3264.214 74036160 74314600 74590232 74862720 75130896 75393480 75648968 
3267.589 75896872 76137144 76370352 76597240 76818600 77034808 77246096 
3270.964 77452136 77652376 77845696 78031160 78208104 78376224 78536392 
3274.339 78690504 78840576 78988480 79134752 79279248 79420024 79555264 
3277.715 79683984 79806400 79924200 80039800 80155152 80271488 80388096 
3281.090 80503104 80614624 80721192 80822440 80918912 81011864 81101864 
3284.465 81188976 81272872 81352904 81429032 81502024 81572976 81643312 
3287.840 81713136 81781888 81848448 81911904 81971928 82029240 82085712 
3291.216 82142592 82200928 82260232 82319056 82375776 82429080 82478728 
3294.591 82524920 82568192 82608672 82645344 82677368 82703624 82724744 
3297.966 82742344 82758896 82777144 82798144 82821280 82844296 82863784 
3301.341 82877136 82883160 82882312 82876816 82869600 82863624 82861616 
3304.717 82865352 82876816 82896944 82926704 82965728 83012416 83063768 
3308.092 83116888 83169088 83219368 83269176 83321360 83379896 83447624 
3311.467 83526168 83614896 83712032 83815024 83922416 84033816 84150312 
3314.842 84273520 84405176 84546368 84697952 84859864 85031864 85213576 
3318.218 85404000 85601808 85805272 86012144 86220744 86429920 86639752 
3321.593 86850592 87063304 87277952 87494120 87711256 87928448 88145472 
3324.968 88362720 88580488 88798648 89016352 89231032 89439944 89640784 
3328.343 89832088 90014024 90187888 90354712 90514712 90666520 90807432 
3331.719 90934336 91044648 91137216 91212056 91269976 91311440 91336504 
3335.094 91344688 91334992 91308168 91265320 91209232 91142360 91066880 
3338.469 90983080 90889928 90785504 90667736 90535360 90388288 90227400 
3341.844 90053736 89868440 89672264 89465632 89249496 89024568 88791656 
3345.219 88551160 88302744 88045344 87777800 87499352 87211280 86915792 
3348.595 86616656 86317288 86020352 85726552 85435056 85144000 84851608 
3351.970 84556712 84259560 83960608 83660808 83360264 83058592 82754768 
3355.345 82448392 82139432 81829448 81519648 81211984 80908336 80609288 
3358.720 80315824 80028408 79747800 79474176 79207320 78945992 78687480 
3362.096 78428856 78166928 77900160 77628488 77354016 77080112 76809776 
3365.471 76545864 76288976 76038920 75794048 75553104 75314776 75078976 
3368.846 74846104 74616664 74390920 74168792 73949136 73730768 73512040 
3372.221 73291648 73068368 72841696 72611704 72379064 72144968 71910648 
3375.597 71677368 71445800 71216232 70988424 70761832 70535976 70310896 
3378.972 70086728 69863752 69642056 69421840 69202552 68983912 68765584 
3382.347 68547240 68329088 68111288 67893576 67675952 67458232 67240208 
3385.722 67022444 66805592 66590904 66379064 66170676 65965748 65763772 
3389.098 65564624 65367988 65174804 64986156 64803676 64628228 64460464 
3392.473 64300096 64146252 63997216 63851296 63706436 63560268 63410288 
3395.848 63254336 63090972 62920272 62743744 62564692 62386664 62212880 
3399.223 62045164 61883708 61726736 61571464 61415104 61255592 61091604 
3402.599 60922912 60749596 60571932 60389848 60203312 60012516 59817924 
3405.974 59620304 59420496 59218960 59015764 58810616 58603216 58393072 
3409.349 58180376 57965592 57748640 57529152 57306708 57080448 56850004 
3412.724 56615604 56378500 56140584 55903508 55668716 55436572 55206472 
3416.100 54977576 54748396 54518356 54286712 54053504 53818096 53580640 
3419.475 53340652 53098140 52853816 52608696 52364016 52120960 51879988 
3422.850 51640940 51403368 51166632 50930508 50695220 50461400 50229044 
3426.225 49998412 49768720 49539336 49309552 49079296 48849200 48620076 
3429.601 48392632 48167044 47942908 47719436 47495940 47272296 47049468 
3432.976 46828672 46610864 46396972 46186052 45977372 45769564 45561492 
3436.351 45353112 45144684 44936764 44730040 44524300 44318916 44113256 
3439.726 43906488 43698316 43488996 43279008 43069560 42861092 42654192 
3443.102 42448952 42245200 42042204 41838644 41633536 41425320 41213488 
3446.477 40998116 40780628 40563400 40348788 40138640 39933244 39731760 
3449.852 39532476 39333280 39133016 38931864 38730664 38530604 38332480 
3453.227 38135676 37938752 37739780 37536960 37330120 37120492 36910132 
3456.603 36701356 36496028 36294584 36096828 35901184 35705952 35509940 
3459.978 35311824 35110820 34906424 34698712 34488304 34276568 34065720 
3463.353 33858052 33655248 33457514 33263694 33071856 32879644 32685474 
3466.728 32489288 32292154 32095396 31900686 31707988 31516802 31325556 
3470.104 31133010 30939264 30745110 30551752 30361074 30173746 29989412 
3473.479 29806896 29624914 29442410 29259094 29074968 28890250 28705080 
3476.854 28518996 28331436 28142686 27953556 27765322 27579394 27397004 
3480.229 27217548 27040106 26862664 26683922 26503670 26323244 26144512 
3483.604 25969758 25800068 25635048 25473256 25312646 25151390 24988478 
3486.980 24824294 24659328 24494390 24330252 24166386 24002476 23838208 
3490.355 23673444 23508810 23345078 23183156 23023704 22866860 22712588 
3493.730 22560708 22411044 22263874 22118950 21976514 21836250 21698154 
3497.105 21562194 21428330 21296768 21167576 21040128 20913518 20786388 
3500.481 20657278 20525152 20389452 20250638 20109646 19967868 19826724 
3503.856 19687950 19553102 19423632 19300712 19184234 19073292 18965702 
3507.231 18858138 18747382 18630810 18507874 18379924 18249836 18120788 
3510.606 17995578 17874788 17757898 17642938 17528422 17413522 17298616 
3513.982 17185398 17075344 16969696 16868134 16769527 16672283 16574889 
3517.357 16476657 16377518 16278401 16179824 16082266 15985245 15887523 
3520.732 15787935 15685003 15577664 15465819 15349953 15231305 15111693 
3524.107 14993349 14877711 14765465 14656503 14549041 14441195 14331047 
3527.483 14217606 14101730 13985372 13870687 13759863 13653580 13550571 
3530.858 13448919 13346198 13240734 13132324 13021962 12910910 12800638 
3534.233 12691417 12582428 12472409 12360202 12245400 12128993 12012583 
3537.608 11898044 11787211 11681070 11579752 11483289 11391508 11303590 
3540.984 11218748 11135488 11051767 10964766 10872551 10773630 10667600 
3544.359 10555995 10440650 10324047 10208018 10094394 9984563 9879539 
3547.734 9780268 9687592 9601339 9520114 9441514 9362215 9278768 9189245 
3551.592 9092974 8991581 8887812 8784947 8685182 8589461 8497410 8408488 
3555.449 8321677 8236808 8154287 8074345 7997592 7923281 7850771 7778644 
3559.306 7706158 7633212 7560110 7487660 7416908 7348324 7282312 7218433 
3563.164 7155708 7092857 7027691 6957486 6879145 6789846 6687981 6574836 
3567.021 6454189 6332868 6217833 6114825 6027262 5954665 5894540 5842484 
3570.879 5794598 5747086 5697363 5644155 5586625 5524538 5457896 5387575 
3574.736 5314246 5239789 5166250 5095171 5028260 4965750 4907170 4851311 
3578.594 4796699 4742430 4688300 4634848 4583445 4535529 4493110 4457055 
3582.451 4427731 4404166 4384452 4365039 4341645 4309150 4262738 4198799 
3586.308 4116270 4017471 3908431 3797078 3692704 3602087 3529293 3474179 
3590.166 3434000 3403810 3377830 3351451 3320298 3281836 3235300 3180757 
3594.023 3120015 3055309 2989146 2924260 2862552 2805689 2754234 2708154 
3597.881 2666179 2626409 2586842 2545512 2500587 2452402 2401556 2350183 
3601.738 2300248 2253917 2212052 2174754 2141655 2111388 2082089 2051926 
3605.595 2018271 1978360 1929566 1870595 1801451 1725764 1648627 1576659 
3609.453 1515508 1467464 1431028 1401509 1372358 1337691 1294718 1244141 
3613.310 1190413 1139847 1098356 1069158 1051554 1041723 1033486 1020135 
3617.168 996024 957435 903776 837607 763914 689503 621177 563511 519023 
3621.507 487708 467043 454240 446578 442498 442365 447573 459082 476496 
3625.847 496300 511095 510597 483562 421702 325166 204452 78634 -30581 
3630.187 -109262 -154609 -173653 -178224 -180377 -189949 -211078 -243764 
3634.044 -283468 -324228 -361308 -392262 -417751 -440988 -465019 -492126 
3637.901 -522673 -555104 -587268 -617245 -644144 -668395 -691222 -713518 
3641.759 -735218 -754270 -767765 -772363 -765847 -747787 -720134 -687384 
3645.616 -655294 -630116 -617874 -622639 -646990 -690957 -753079 -829877 
3649.474 -915918 -1004290 -1086529 -1153816 -1200111 -1222514 -1222514 
3652.849 -1205663 -1180979 -1157584 -1144927 -1150247 -1176056 -1220036 
3656.224 -1274880 -1330973 -1380024 -1417015 -1441322 -1455555 -1464174 
3659.599 -1470679 -1478307 -1488280 -1500662 -1514266 -1527836 -1539954 
3662.975 -1548637 -1553061 -1551972 -1544873 -1532030 -1513804 -1491681 
3666.350 -1468202 -1446737 -1432075 -1429961 -1445549 -1482336 -1539095 
3669.725 -1608161 -1674806 -1723620 -1741540 -1724115 -1675830 -1609085 
3673.100 -1541142 -1489468 -1470316 -1493068 -1555769 -1643449 -1733488 
3676.476 -1806383 -1851355 -1870425 -1872602 -1869237 -1868577 -1874582 
3679.851 -1886854 -1901205 -1912982 -1918194 -1915225 -1904504 -1887118 
3683.226 -1863991 -1835584 -1801764 -1763453 -1722861 -1684180 -1653021 
3686.601 -1635692 -1637111 -1658699 -1697712 -1747151 -1798365 -1843305 
3689.977 -1877881 -1901304 -1915159 -1921856 -1923109 -1919448 -1911300 
3693.352 -1899391 -1884842 -1870161 -1857261 -1848353 -1843668 -1842018 
3696.727 -1840764 -1837696 -1830998 -1820968 -1810013 -1802226 -1801599 
3700.102 -1811696 -1833242 -1864024 -1899555 -1933137 -1958570 -1971302 
3703.478 -1969224 -1952995 -1924594 -1887745 -1845845 -1802688 -1761473 
3706.853 -1725039 -1694907 -1672364 -1657973 -1652196 -1655827 -1669888 
3710.228 -1695996 -1735600 -1788235 -1850464 -1916083 -1976843 -2024106 
3713.603 -2052237 -2058898 -2045773 -2017378 -1979745 -1938976 -1900215 
3716.979 -1866400 -1838653 -1816381 -1797936 -1781866 -1767512 -1755137 
3720.354 -1745402 -1739098 -1736326 -1735996 -1736623 -1736227 -1733521 
3723.729 -1728802 -1723389 -1719495 -1719957 -1726161 -1737448 -1751012 
3727.104 -1761737 -1764674 -1756160 -1735303 -1704412 -1668502 -1634272 
3730.479 -1607435 -1592117 -1588453 -1593041 -1600205 -1605058 -1605850 
3733.855 -1605124 -1608590 -1621993 -1648499 -1686160 -1728175 -1765763 
3737.230 -1791535 -1802424 -1798200 -1781503 -1754015 -1716327 -1667743 
3740.605 -1608161 -1539954 -1469788 -1409749 -1375367 -1381775 -1437557 
3743.980 -1536289 -1655596 -1761935 -1827105 -1840995 -1810508 -1752266 
3747.356 -1685434 -1627605 -1589740 -1577360 -1589245 -1619451 -1660877 
3750.731 -1706722 -1752761 -1796550 -1834297 -1862210 -1875934 -1873559 
3754.106 -1856238 -1828391 -1796121 -1765367 -1740649 -1724214 -1715799 
3757.481 -1713851 -1717284 -1725237 -1737712 -1754477 -1773254 -1789753 
3760.857 -1798860 -1796814 -1782526 -1759526 -1734247 -1714313 -1705798 
3764.232 -1711013 -1726987 -1746953 -1761902 -1764872 -1754015 -1732234 
3767.607 -1706656 -1685203 -1674641 -1678305 -1695270 -1720452 -1747811 
3770.982 -1771802 -1788862 -1798299 -1801302 -1799421 -1794174 -1785925 
3774.358 -1774409 -1758701 -1738537 -1714346 -1687943 -1662891 -1643449 
3777.733 -1633216 -1634867 -1647839 -1669162 -1693059 -1713026 -1724676 
3781.108 -1726326 -1719924 -1709396 -1699858 -1695105 -1696623 -1703785 
3784.483 -1713521 -1722696 -1728637 -1730551 -1728835 -1725138 -1720914 
3787.859 -1716921 -1713125 -1709363 -1705270 -1700848 -1696359 -1691672 
3791.234 -1685731 -1676754 -1663254 -1643581 -1618494 -1590632 -1564022 
3794.609 -1543487 -1532591 -1531667 -1537808 -1544807 -1545963 -1536553 
3797.984 -1515818 -1487817 -1460706 -1445185 -1450436 -1482138 -1537940 
3801.360 -1607171 -1671869 -1714709 -1725270 -1702498 -1655035 -1595682 
3804.735 -1540284 -1502577 -1491945 -1511228 -1554679 -1609977 -1661439 
3808.110 -1697943 -1714445 -1712432 -1697448 -1674938 -1648862 -1619979 
3811.485 -1587462 -1550024 -1508191 -1465429 -1428508 -1405621 -1403904 
3814.861 -1426295 -1468368 -1517568 -1557254 -1573200 -1558080 -1514431 
3818.236 -1452979 -1389107 -1338307 -1315184 -1328034 -1376490 -1449611 
3821.611 -1528662 -1595022 -1635593 -1647410 -1634834 -1607699 -1576436 
3824.986 -1549000 -1530478 -1521662 -1519780 -1520374 -1519087 -1513540 
3828.362 -1504096 -1492803 -1482534 -1475104 -1471340 -1470415 -1469854 
3831.737 -1467179 -1460211 -1447398 -1428508 -1404201 -1375929 -1346367 
3835.112 -1319214 -1298567 -1288921 -1293777 -1313268 -1345375 -1384087 
3838.487 -1421705 -1451988 -1471703 -1480850 -1482501 -1481312 -1480982 
3841.863 -1483987 -1491516 -1502346 -1515058 -1527440 -1537808 -1544609 
3845.238 -1547019 -1544312 -1535695 -1520969 -1499143 -1469424 -1431216 
3848.613 -1383063 -1324730 -1257569 -1184845 -1113531 -1054501 -1020322 
3851.988 -1024818 -1076548 -1173478 -1298468 -1425073 -1527275 -1589839 
3855.364 -1611924 -1602450 -1573762 -1536421 -1498318 -1463414 -1433164 
3858.739 -1407470 -1385936 -1368398 -1354822 -1345078 -1338406 -1333715 
3862.114 -1329950 -1326944 -1325556 -1327175 -1332130 -1338505 -1342237 
3865.489 -1338108 -1321989 -1293348 -1256545 -1220168 -1194032 -1187258 
3868.865 -1204308 -1242008 -1289549 -1332163 -1358126 -1362783 -1350165 
3872.240 -1329421 -1311253 -1303523 -1308775 -1323871 -1341147 -1352147 
3875.615 -1350231 -1333550 -1304547 -1268835 -1233483 -1205134 -1189141 
3878.990 -1188513 -1202689 -1227536 -1255818 -1279010 -1289317 -1283305 
3882.365 -1261930 -1231137 -1200012 -1178534 -1174932 -1192280 -1226347 
3885.741 -1266192 -1298303 -1310955 -1299030 -1265696 -1219738 -1172553 
3889.116 -1135112 -1116076 -1119216 -1143010 -1181211 -1225124 -1265696 
3892.491 -1296354 -1313631 -1317562 -1309403 -1291333 -1265531 -1234607 
3895.866 -1200574 -1166010 -1133757 -1105632 -1083422 -1067260 -1056683 
3899.242 -1049642 -1044585 -1039792 -1034735 -1030537 -1029082 -1032917 
3902.617 -1043759 -1062368 -1087653 -1116935 -1146645 -1172950 -1193866 
3905.992 -1207976 -1215575 -1217624 -1215245 -1209562 -1201664 -1192379 
3909.367 -1182632 -1173776 -1166671 -1161153 -1156757 -1151602 -1143671 
3912.743 -1131344 -1114258 -1093701 -1072416 -1053973 -1041379 -1036321 
3916.118 -1039065 -1047527 -1059459 -1072581 -1085505 -1097634 -1109103 
3919.493 -1118951 -1126024 -1128205 -1124173 -1113267 -1097469 -1079754 
3922.868 -1064483 -1055063 -1053311 -1058104 -1066632 -1074432 -1077473 
3926.244 -1073970 -1063756 -1048618 -1031066 -1013480 -997546 -983794 
3929.619 -972983 -965148 -960817 -960652 -964586 -972421 -982868 -993645 
3933.476 -1002802 -1008786 -1011166 -1010604 -1008521 -1006273 -1004455 
3936.852 -1003695 -1003265 -1002406 -1000620 -997447 -993414 -989744 -987166 
3940.709 -986802 -989381 -994472 -1001414 -1008753 -1014472 -1017149 
3944.084 -1015397 -1008885 -998207 -984819 -970504 -957280 -946964 -940352 
3947.942 -937674 -938699 -942270 -947229 -952585 -957643 -962040 -965809 
3951.799 -968917 -971463 -973876 -976455 -979562 -983331 -987761 -992224 
3955.656 -996125 -998042 -997017 -992488 -984356 -973149 -960222 -947427 
3959.514 -936120 -927590 -922366 -920216 -920150 -920613 -920216 -917737 
3963.371 -912612 -905073 -895980 -886887 -879017 -873693 -871808 -873296 
3967.229 -877992 -885233 -894095 -903684 -913141 -921605 -928218 -932285 
3971.086 -933376 -930797 -924945 -916083 -905172 -893037 -881199 -870651 
3974.944 -862384 -856961 -854480 -854480 -856035 -858217 -859970 -860830 
3978.801 -860532 -859738 -859077 -859507 -861524 -865129 -869791 -874619 
3982.658 -878653 -881299 -882224 -881861 -880670 -879381 -878422 -877562 
3986.516 -876438 -875247 -872866 -869626 -865393 -860069 -854018 -847404 
3990.373 -840393 -833084 -826073 -819393 -813672 -808645 -804477 -800542 
3994.231 -797069 -793762 -790884 -788801 -787941 -788338 -790057 -792373 
3998.088 -794489 -795779 -796044 -795019 -793398 -791744 
##END=
