
##TITLE=Z305_3_a
##JCAMP-DX=5.01  $$ Nicolet v. 1
##DATATYPE=INFRARED SPECTRUM
##ORIGIN=UniL
##OWNER=Nicolet
##LONGDATE=2011/09/08
##TIME=16:22:44
##SPECTROMETER/DATA SYSTEM=Nicolet iS5
##DATA PROCESSING=
Ratio against background
%Transmittance->Absorbance
Truncated
ElementMultiply or ElementDivide
##COMMENTS=
Number of sample scans: 32
Collection length: 51.18 sec
Sample gain: 2.0
Background collected on: Jeu Sep 08 16:10:46 2011 (GMT+02:00);
Number of background scans: 32
Background gain: 2.0
Sample spacing:  1.000
Number of scan points: 12415
Resolution points: 8192
Number of FFT points: 65536
Apodization: N-B fort;
Phase correction: Mertz;
Laser frequency: 15798.0 cm-1
Number of rejected sample scans: 0
Number of rejected background scans: 0
Bench serial number: ASB1000141;
##RESOLUTION=4.000
##XUNITS=1/CM
##YUNITS=ABSORBANCE
##FIRSTX=649.893372
##LASTX=4000.122314
##FIRSTY=0.161481
##MAXX=4000.122314
##MINX=649.893372
##MAXY=0.365732
##MINY=-0.001907
##XFACTOR=1.000000
##YFACTOR=1.000000E-009
##NPOINTS=6950
##DELTAX=0.482117
##ZPD=6100
##XYDATA=(X++(Y..Y))
649.893 161481408 161673360 162033840 162562832 163218976 163947280 
652.786 164707744 165498464 166351600 167309760 168390480 169572800 
655.679 170795888 171992000 173116192 174166448 175175952 176187856 
658.571 177221696 178254720 179227424 180070880 180741056 181233856 
661.464 181582784 181834416 182026992 182172736 182260144 182267104 
664.357 182173536 181963456 181614272 181085008 180310288 179222016 
667.250 177804656 176156096 174491360 173039344 171926416 171126688 
670.142 170512928 169914912 169180688 168218208 167000288 165570736 
673.035 164010400 162406720 160812160 159232848 157643920 156019968 
675.928 154361168 152701760 151093952 149582432 148184464 146883136 
678.820 145641840 144426704 143229312 142070176 140989328 140022640 
681.713 139187232 138473760 137856320 137307008 136810608 136369280 
684.606 135993984 135691600 135454352 135258048 135072656 134877744 
687.498 134671984 134475552 134317344 134221824 134194256 134219488 
690.391 134270896 134328304 134388544 134470096 134601792 134810544 
693.284 135106208 135479056 135906576 136367968 136857280 137386208 
696.177 137975392 138638288 139366800 140124208 140853936 141489584 
699.069 141977120 142286304 142407664 142346912 142113376 141713696 
701.962 141153152 140442928 139607696 138682096 137707184 136717216 
704.855 135728400 134739824 133739400 132715824 131667448 130606216 
707.747 129549888 128515336 127509088 126525968 125555384 124590656 
710.640 123634768 122701648 121808976 120967656 120174968 119413432 
713.533 118657064 117879928 117067480 116217480 115336696 114433880 
716.425 113513016 112572160 111607760 110620152 109620112 108626448 
719.318 107662360 106746744 105887768 105081216 104314832 103574232 
722.211 102846528 102122720 101395128 100653264 99884096 99074496 98216664 
725.586 97314600 96385408 95456872 94556512 93706032 92915616 92183904 
728.961 91504224 90870936 90284512 89750440 89276240 88865400 88514472 
732.335 88213464 87952016 87723088 87527320 87371664 87264912 87211480 
735.710 87207760 87242304 87301328 87373808 87456104 87551560 87667336 
739.085 87808296 87972712 88152656 88336856 88516904 88690080 88859832 
742.460 89031360 89207672 89384256 89550536 89691208 89791552 89841264 
745.835 89832088 89755408 89598872 89342496 88964288 88445088 87776624 
749.209 86965336 86032712 85010832 83931176 82823448 81711456 80612352 
752.584 79542096 78514632 77540776 76626528 75770896 74965760 74199368 
755.959 73461768 72748488 72062232 71411072 70802232 70239424 69721064 
759.334 69240472 68790856 68369464 67978048 67621672 67304160 67023448 
762.709 66770816 66534132 66301048 66065848 65831548 65609364 65413868 
766.083 65256924 65145044 65078212 65052280 65061668 65102392 65171608 
769.458 65265940 65379508 65504596 65633372 65762000 65893552 66035800 
772.833 66196032 66372424 66546916 66685164 66739792 66662252 66420332 
776.208 66004396 65434212 64749980 64005696 63253836 62533580 61871096 
779.583 61277112 60751580 60288764 59880980 59520008 59198184 58909044 
782.958 58648268 58414752 58210876 58041632 57912240 57825664 57780696 
786.332 57771916 57792696 57837096 57902208 57989864 58103860 58248004 
789.707 58424232 58631088 58865328 59123840 59406632 59715988 60057180 
793.082 60434896 60850864 61302908 61784028 62283396 62787392 63278564 
796.457 63737088 64138836 64456584 64665220 64744360 64684100 64488172 
799.832 64173176 63766488 63297836 62799452 62300184 61823340 61390064 
803.206 61016632 60714424 60490116 60344996 60274908 60272472 60330188 
806.581 60440876 60598904 60798952 61031844 61282568 61531032 61751028 
809.956 61915188 62001172 61992536 61881716 61668988 61359688 60962752 
813.331 60489012 59952752 59370956 58762020 58146172 57541028 56959544 
816.706 56410188 55896992 55421440 54984760 54588688 54235356 53926008 
820.081 53659776 53433348 53241348 53079004 52942216 52829308 52740556 
823.455 52676472 52636936 52620700 52625412 52648792 52689004 52744556 
826.830 52812356 52886900 52958088 53013228 53039244 53025432 52967408 
830.205 52867624 52734456 52578704 52410776 52238732 52067280 51899180 
833.580 51736744 51582728 51440032 51310616 51193804 51086828 50985092 
836.955 50884868 50784520 50685352 50591492 50507588 50437172 50381468 
840.329 50340164 50311964 50296560 50295184 50309284 50340312 50387568 
843.704 50448188 50518568 50595472 50678276 50769288 50872388 50990944 
847.079 51126000 51274860 51432384 51592840 51752608 51911464 52072696 
850.454 52240828 52419412 52609896 52810932 53020192 53235500 53456804 
853.829 53685980 53925972 54179196 54445748 54724756 55013980 55311684 
857.204 55618132 55934864 56264052 56607336 56965324 57337560 57724308 
860.578 58127116 58549488 58995532 59467912 59965456 60482192 61007824 
863.953 61528588 62030716 62502356 62933832 63318424 63651912 63932412 
867.328 64161384 64344556 64492868 64621000 64746060 64884536 65049156 
870.703 65248304 65486604 65764888 66082672 66437596 66824764 67235104 
874.078 67655120 68068064 68455496 68802728 69101376 69351088 69558520 
877.452 69734720 69893056 70045336 70203080 70377016 70577680 70816040 
880.827 71102064 71441888 71837776 72286336 72781672 73315664 73881376 
884.202 74474216 75090328 75725768 76375600 77032824 77691008 78346304 
887.577 78998968 79653416 80316016 80992176 81682896 82383784 83086072 
890.952 83779936 84456680 85110584 85738104 86336328 86900568 87424008 
894.327 87898712 88317888 88678008 88978688 89220736 89403720 89523376 
897.701 89571832 89539744 89418976 89207752 88910008 88536080 88099528 
901.076 87614752 87097112 86560848 86021152 85495248 84999024 84546928 
904.451 84148824 83807704 83521512 83284752 83092248 82941224 82832552 
907.826 82769000 82753568 82786880 82867152 82990520 83153000 83352112 
911.201 83586656 83854928 84153416 84473584 84804240 85131784 85444424 
914.575 85735632 86005000 86258200 86503944 86753072 87015976 87302344 
917.950 87622208 87986024 88402440 88878288 89414344 90005016 90637608 
921.325 91295248 91960640 92617696 93255096 93865920 94446328 94995656 
924.700 95515360 96010320 96489128 96963776 97447448 97949432 98471360 
928.075 99002696 99521400 99993704 100378840 100636848 100728384 100622440 
931.450 100300360 99757960 99009904 98090152 97054248 95968168 94901976 
934.824 93922712 93079144 92402208 91904216 91582728 91426592 91421560 
938.199 91553312 91806984 92164080 92603136 93096184 93611816 94120776 
941.574 94596512 95019816 95380296 95674712 95906672 96085720 96227456 
944.949 96352480 96483536 96645104 96857120 97132896 97478632 97893760 
948.324 98374064 98915312 99515520 100174776 100893464 101670328 102501104 
951.698 103378872 104297048 105251416 106241688 107271000 108343416 
954.591 109460888 110621864 111821344 113053552 114314664 115604392 
957.484 116924544 118277656 119662840 121075488 122507504 123950920 
960.377 125401840 126861584 128336088 129831416 131350888 132892024 
963.269 134447920 136010480 137575040 139142640 140719280 142312608 
966.162 143927088 145562416 147214528 148878784 150555392 152251344 
969.055 153979696 155756192 157593344 159498128 161473056 163520096 
971.947 165645360 167862496 170190384 172650320 175260176 178029264 
974.840 180960704 184053712 187308736 190729504 194321312 198085744 
977.733 202014016 206083376 210259264 214495904 218746272 222964864 
980.625 227103056 231109296 234923088 238472368 241687776 244509664 
983.518 246903040 248864368 250419136 251612336 252492016 253106000 
986.411 253498640 253710656 253791904 253799520 253790944 253822768 
989.304 253937328 254158976 254500176 254966432 255564272 256305280 
992.196 257202864 258264752 259486832 260851024 262328832 263888656 
995.089 265507632 267170992 268870336 270595712 272325824 274025600 
997.982 275653920 277169440 278543264 279764960 280837472 281770688 
1000.874 282571232 283240544 283777472 284186528 284485952 284707328 
1003.767 284889824 285071072 285275008 285510912 285778656 286079232 
1006.660 286424928 286843392 287369312 288036640 288865696 289857120 
1009.552 290994496 292251968 293605472 295034784 296524384 298058112 
1012.445 299612864 301160480 302675968 304145536 305576800 306996128 
1015.338 308442816 309950496 311536256 313194720 314904288 316637536 
1018.231 318373696 320106432 321840672 323585952 325348064 327128000 
1021.123 328926624 330753184 332631776 334599392 336692448 338935264 
1024.016 341325248 343833376 346407712 348992128 351539520 354011808 
1026.909 356378496 358604000 360635168 362406432 363847808 364899392 
1029.802 365529344 365732288 365519904 364903776 363883008 362441056 
1032.695 360557888 358224640 355457600 352298752 348809696 345054720 
1035.588 341087296 336953184 332695232 328361984 324021920 319755520 
1038.481 315644928 311768224 308181568 304923072 302021536 299502624 
1041.374 297396864 295740032 294559520 293867200 293649120 293868544 
1044.267 294471168 295399552 296607936 298060640 299731072 301594720 
1047.160 303617024 305755232 307964480 310202560 312439520 314656640 
1050.053 316834912 318947040 320948672 322778272 324374048 325686272 
1052.947 326688096 327379040 327773184 327883872 327709760 327231392 
1055.840 326415232 325228128 323640832 321632064 319184288 316273920 
1058.733 312872800 308958368 304525888 299605824 294267136 288616768 
1061.626 282775104 276857280 270966208 265176688 259544784 254116032 
1064.519 248925664 244002848 239365824 235016128 230939008 227107248 
1067.412 223491584 220067120 216819536 213743872 210837872 208094752 
1070.305 205499376 203027728 200654032 198357328 196124048 193948288 
1073.198 191827040 189753136 187713328 185689248 183662704 181623392 
1076.091 179573232 177526624 175504096 173528912 171621536 169797440 
1078.984 168070352 166454592 164964576 163615376 162416352 161368784 
1081.877 160464176 159687504 159023488 158461472 158000080 157645488 
1084.770 157407904 157295664 157311280 157451616 157711232 158085424 
1087.663 158573344 159176864 159896752 160728352 161659680 162671648 
1090.556 163742752 164856224 166001504 167175840 168380480 169616112 
1093.449 170879856 172166976 173473824 174803056 176164752 177575200 
1096.343 179049008 180592640 182199296 183849056 185513440 187159648 
1099.236 188758960 190284864 191711104 193010288 194151552 195103904 
1102.129 195845792 196369632 196686832 196822848 196812208 196688480 
1105.022 196476752 196196592 195862240 195487520 195088064 194676864 
1107.915 194256912 193815520 193321232 192727408 191976464 191014000 
1110.808 189792928 188274816 186433888 184253152 181726304 178863232 
1113.701 175695136 172277904 168684144 165001824 161318480 157705792 
1116.594 154222496 150906960 147780848 144855952 142134912 139613184 
1119.487 137276960 135103536 133062496 131116688 129230272 127370728 
1122.380 125510040 123626624 121701712 119718096 117662176 115526088 
1125.273 113312064 111034216 108719688 106404224 104123816 101913464 
1128.166 99801200 97805304 95938408 94206584 92609536 91141016 89788288 
1131.542 88532144 87347920 86211040 85101512 84007000 82926904 81870576 
1134.917 80856480 79906000 79042488 78289040 77665336 77189496 76876296 
1138.292 76735088 76769728 76976616 77345696 77860952 78503880 79256864 
1141.667 80102992 81027744 82017752 83057792 84131816 85223224 86315432 
1145.042 87396824 88460152 89503624 90528752 91538992 92538560 93533104 
1148.418 94530688 95543560 96586368 97675296 98823072 100035416 101310392 
1151.793 102638816 104008528 105407824 106828520 108266496 109718976 
1154.686 111182152 112648984 114108120 115546064 116948360 118298152 
1157.579 119577440 120762128 121819680 122712408 123397952 123834480 
1160.472 123989712 123839240 123368112 122568928 121437240 119971824 
1163.365 118175776 116059856 113644024 110956992 108036336 104921968 
1166.258 101653488 98271968 94816728 91327304 87845896 84411328 81059136 
1169.634 77819296 74711648 71749432 68939952 66286496 63790888 61453808 
1173.009 59274328 57249356 55373556 53639116 52037512 50560408 49200848 
1176.384 47952896 46811028 45769860 44822312 43960636 43177180 42465100 
1179.759 41820036 41240628 40727680 40283344 39909420 39606516 39373764 
1183.135 39209128 39110280 39075584 39103792 39194260 39346156 39558168 
1186.510 39827628 40151508 40525532 40944880 41403304 41891988 42399960 
1189.885 42914128 43419672 43903260 44355056 44769456 45145936 45488232 
1193.260 45802964 46097248 46378128 46651888 46923236 47195640 47470620 
1196.635 47747432 48022980 48291524 48546520 48780720 48987672 49162180 
1200.011 49299604 49395860 49446912 49448840 49398604 49294964 49138360 
1203.386 48930000 48670148 48355740 47980240 47532756 47000212 46371088 
1206.761 45637600 44798764 43860848 42837760 41750104 40621644 39480364 
1210.136 38354992 37271700 36255108 35324836 34493940 33770228 33155822 
1213.512 32648500 32243114 31933528 31713762 31578086 31521682 31539674 
1216.887 31626978 31778284 31988166 32251288 32564100 32923390 33327230 
1220.262 33773668 34260540 34785612 35346292 35940704 36567464 37225672 
1223.637 37914452 38631852 39375072 40139804 40921688 41716328 42519836 
1227.013 43328652 44138492 44943304 45736100 46508112 47250200 47954340 
1230.388 48613144 49219476 49766456 50246120 50650464 50972680 51209392 
1233.763 51362116 51437940 51449876 51414668 51351152 51280488 51224116 
1237.138 51203088 51238916 51350592 51553404 51858408 52270236 52788108 
1240.514 53406144 54115724 54905832 55763380 56673852 57618772 58575536 
1243.889 59520352 60427620 61274632 62045244 62729156 63323140 63829264 
1247.264 64253420 64603888 64890384 65124444 65316848 65475852 65604932 
1250.639 65700592 65752172 65743344 65657228 65479436 65201020 64820604 
1254.015 64342716 63775964 63130280 62416580 61645424 60827000 59971584 
1257.390 59088420 58184508 57265576 56335076 55396256 54453676 53514072 
1260.765 52586628 51682364 50811860 49984028 49205636 48481088 47813756 
1264.140 47207092 46664468 46189772 45786136 45454972 45195680 45005744 
1267.516 44881756 44820292 44818640 44875328 44988580 45155828 45373048 
1270.891 45633884 45930816 46255820 46600872 46958936 47323240 47687228 
1274.266 48045040 48391928 48725856 49047948 49363044 49677584 49996404 
1277.641 50320000 50641492 50947532 51218408 51432160 51569784 51616312 
1281.017 51564820 51415896 51177852 50865164 50496160 50092780 49675912 
1284.392 49263788 48871112 48507360 48177668 47885336 47632944 47424568 
1287.767 47265644 47161364 47114828 47124948 47185816 47286848 47415216 
1291.142 47559556 47710416 47862844 48016064 48172224 48335520 48511468 
1294.518 48707208 48930964 49191492 49498004 49857720 50275096 50751636 
1297.893 51286344 51877152 52522792 53223220 53979472 54792488 55661448 
1301.268 56583028 57552152 58563404 59612512 60697276 61816924 62970372 
1304.643 64154968 65365532 66595308 67837528 69087664 70343432 71603592 
1308.019 72865520 74122376 75363288 76573096 77735672 78837512 79867968 
1311.394 80818800 81683504 82453400 83117968 83666072 84087536 84375032 
1314.769 84524872 84534976 84403760 84128680 83707616 83142088 82439784 
1318.144 81618080 80701560 79718816 78699680 77668312 76643456 75639152 
1321.520 74665416 73731944 72848592 72025040 71269480 70589032 69987992 
1324.895 69470752 69043032 68712216 68488464 68381872 68399128 68541616 
1328.270 68803432 69172824 69632288 70163512 70747792 71364760 71994216 
1331.645 72613544 73198000 73724568 74173512 74531104 74790920 74952480 
1335.021 75018368 74992576 74878664 74680608 74402840 74052000 73637088 
1338.396 73167560 72653736 72104480 71526656 70925608 70304432 69664816 
1341.771 69005976 68326216 67623024 66895836 66147604 65386980 64628884 
1345.146 63891448 63194044 62554092 61982944 61487816 61072192 60738204 
1348.521 60489240 60330412 60267296 60304564 60442740 60677312 60997600 
1351.897 61388580 61833044 62312344 62808908 63305700 63786136 64235708 
1355.272 64643032 65002128 65314308 65587476 65834016 66064960 66286644 
1358.647 66497444 66688016 66843316 66947056 66987568 66960276 66870332 
1362.022 66731872 66568160 66406860 66274872 66196300 66186420 66250524 
1365.398 66384160 66574104 66801116 67041696 67273792 67477896 67637776 
1368.773 67741672 67777416 67730712 67585392 67323152 66928072 66390796 
1372.148 65711728 64904236 63992532 63013084 62007824 61015984 60069584 
1375.523 59185692 58365748 57598832 56867564 56155176 55450312 54751328 
1378.899 54066036 53409664 52798024 52244264 51755672 51332732 50970408 
1382.274 50658768 50384256 50127248 49861400 49555676 49172828 48676744 
1385.649 48041304 47258072 46345652 45348112 44328012 43346184 42446324 
1389.024 41650748 40960284 40363404 39843460 39384176 38970716 38589116 
1392.400 38227248 37874900 37527208 37187336 36867424 36585524 36357156 
1395.775 36189952 36079800 36013668 35974180 35946356 35923248 35907016 
1399.150 35907628 35936960 36003548 36107308 36240124 36388176 36537584 
1402.525 36677164 36801064 36910784 37013316 37119444 37239500 37381648 
1405.901 37550036 37744548 37962724 38200836 38454860 38721208 38997356 
1409.276 39282536 39578348 39889148 40221108 40581880 40977724 41412344 
1412.651 41885892 42395652 42937132 43505256 44096460 44708044 45337884 
1416.026 45985144 46648788 47329116 48029348 48757180 49524000 50338456 
1419.402 51203908 52112260 53044900 53978608 54891472 55767600 56596200 
1422.777 57373484 58100904 58782544 59423572 60027352 60593836 61118648 
1426.152 61593228 62005112 62341032 62587576 62734096 62776400 62717676 
1429.527 62568784 62345200 62065308 61747244 61407700 61061860 60721092 
1432.903 60390344 60066692 59737924 59385204 58988892 58539704 58051632 
1436.278 57569892 57160416 56886980 56786708 56858012 57069492 57373444 
1439.653 57722300 58071364 58384508 58638448 58819116 58921264 58943840 
1443.028 58886692 58747720 58524312 58214740 57819684 57342928 56791996 
1446.404 56178100 55518572 54840188 54177468 53568080 53045724 52628744 
1449.779 52319536 52106428 51971700 51898064 51873604 51892944 51952992 
1453.154 52046660 52158284 52257420 52299648 52233688 52010468 51607876 
1456.529 51051052 50418640 49807996 49288060 48878416 48556820 48287376 
1459.905 48038896 47795516 47552864 47310828 47064976 46802800 46504276 
1463.280 46150784 45734260 45267456 44782568 44322032 43921152 43595292 
1466.655 43340180 43139380 42974588 42830812 42698132 42567856 42427068 
1470.030 42255352 42025560 41709032 41288508 40769824 40186108 39585356 
1473.406 39010152 38481036 37994512 37534284 37086064 36648392 36234824 
1476.781 35867680 35565928 35338348 35179368 35073604 35003024 34955296 
1480.156 34927072 34924952 34960648 35045944 35189428 35394460 35661636 
1483.531 35991704 36387028 36851340 37386056 37987532 38643008 39328456 
1486.906 40012152 40652936 41204560 41620884 41856412 41874800 41658556 
1490.282 41214728 40576640 39792800 38913996 37976936 36997004 35973060 
1493.657 34892632 33743692 32529030 31273138 30026266 28858944 27839150 
1497.032 27015740 26407004 26003986 25780554 25704932 25747364 25878558 
1500.407 26069636 26293602 26523076 26733428 26904366 27014434 27039612 
1503.783 26947868 26693506 26220740 25476382 24438516 23150442 21730342 
1507.158 20333548 19078764 18008908 17099710 16299970 15560046 14848841 
1510.533 14156018 13487711 12859030 12282858 11766648 11309133 10902924 
1513.908 10538239 10206254 9900691 9617599 9356257 9118588 8909356 8734469 
1517.766 8597809 8497952 8426595 8368728 8305263 8220465 8109014 7983451 
1521.623 7869866 7796860 7779824 7814571 7882014 7957903 8023917 8071071 
1525.481 8103613 8135008 8181736 8254335 8353427 8471394 8598113 8726627 
1529.338 8855144 8986305 9123663 9267970 9415846 9561064 9699112 9831375 
1533.196 9968730 10127868 10321571 10552735 10811096 11079706 11338176 
1536.571 11569135 11760928 11906046 12002365 12051689 12059798 12034385 
1539.946 11984243 11921030 11856431 11799978 11756197 11721576 11686277 
1543.321 11637061 11563486 11462979 11343210 11218918 11105947 11012819 
1546.697 10936767 10865722 10783209 10676973 10543399 10391304 10237532 
1550.072 10101685 9994870 9916623 9856354 9800500 9739129 9670720 9602220 
1553.929 9546025 9512968 9505721 9517066 9531393 9529429 9489973 9393770 
1557.787 9229451 9003252 8747857 8513697 8347111 8266458 8260987 8305668 
1561.644 8372985 8440717 8491464 8515893 8513089 8490754 8462711 8443588 
1565.501 8443420 8462643 8493221 8521942 8536945 8531910 8508460 8476767 
1569.359 8451900 8448420 8474570 8530964 8613085 8714050 8826773 8943617 
1573.216 9056603 9154998 9228301 9268715 9276838 9265363 9257477 9278734 
1577.074 9344068 9453230 9594225 9751701 9912793 10070181 10223114 10374573 
1580.931 10528530 10687432 10851012 11016421 11180532 11340694 11495673 
1584.306 11644889 11787040 11919430 12038370 12140510 12225088 12294889 
1587.682 12356623 12418807 12490004 12576902 12682853 12808861 12954365 
1591.057 13118493 13299527 13494137 13696357 13896858 14083521 14244962 
1594.432 14372520 14462673 14517349 14544278 14553324 14554180 14555414 
1597.807 14563363 14582894 14618463 14674015 14752232 14853539 14975480 
1601.183 15112276 15256185 15400347 15538479 15666727 15783297 15886322 
1604.558 15974313 16045097 16096741 16128343 16140413 16135462 16116306 
1607.933 16084706 16040836 15982563 15907595 15815288 15709084 15596725 
1611.308 15489236 15397155 15326887 15278801 15246918 15220632 15186695 
1614.684 15134062 15055776 14953703 14838864 14731735 14654926 14624049 
1618.059 14644645 14711066 14810888 14927330 15043152 15143257 15215484 
1621.434 15253920 15261333 15249356 15235388 15236383 15263289 15317105 
1624.809 15390632 15472789 15553864 15627259 15690945 15746601 15797693 
1628.185 15848311 15901856 15961388 16029248 16107125 16195301 16291955 
1631.560 16392933 16489804 16572343 16628524 16647115 16620606 16549451 
1634.935 16446717 16335957 16245654 16198602 16202213 16249610 16324809 
1638.310 16410448 16490871 16554443 16596336 16617680 16625460 16628902 
1641.686 16636821 16653279 16675830 16695181 16698107 16669840 16598057 
1645.061 16476898 16310910 16117442 15922960 15756804 15642853 15591402 
1648.436 15599954 15654979 15738012 15825149 15886767 15888762 15790271 
1651.811 15556131 15180073 14713431 14260643 13921286 13737530 13684970 
1655.187 13710651 13761231 13800187 13808465 13780007 13718756 13633647 
1658.562 13533856 13425202 13308170 13179285 13033058 12864900 12674017 
1661.937 12464975 12247683 12035917 11842539 11676950 11541845 11433552 
1665.312 11342802 11256899 11162004 11044255 10892970 10703767 10480362 
1668.688 10236140 9990327 9764578 9574646 9428003 9321657 9246442 9188399 
1672.545 9131683 9061406 8963912 8831338 8665880 8482679 8306411 8161207 
1676.402 8060809 8002924 7973461 7952639 7923551 7877053 7813794 7742517 
1680.260 7674590 7617599 7569247 7516753 7438952 7315300 7136306 6915738 
1684.117 6691413 6511532 6407176 6379065 6404991 6455399 6506856 6544125 
1687.975 6561078 6558522 6541064 6515366 6487887 6465555 6453650 6456543 
1691.832 6474939 6504805 6536758 6555696 6545067 6491721 6393591 6266136 
1695.689 6140768 6051755 6016545 6028807 6061902 6082062 6054947 5958158 
1699.547 5792415 5589410 5403107 5279062 5233786 5250520 5298146 5344434 
1703.404 5366239 5351512 5298146 5214604 5115723 5018573 4935252 4870377 
1707.262 4822028 4784539 4751574 4718379 4682875 4644962 4606182 4568175 
1711.119 4532482 4499102 4466930 4434225 4398710 4359015 4314103 4263139 
1714.977 4204888 4137378 4058507 3967512 3868881 3772846 3694241 3647761 
1718.834 3641045 3671719 3729331 3799719 3868246 3922975 3957982 3972361 
1722.691 3970455 3959220 3946046 3935747 3929729 3926620 3924078 3920166 
1726.549 3913780 3904586 3892316 3876771 3858317 3838661 3821145 3809212 
1730.406 3805434 3807774 3809245 3797212 3756636 3676564 3557988 3420208 
1734.264 3295658 3217408 3200851 3239239 3311083 3391154 3458682 3498662 
1738.121 3505142 3481360 3438242 3390086 3348880 3320565 3304339 3295024 
1741.979 3287111 3277830 3266914 3256398 3248419 3243679 3241142 3238438 
1745.836 3232796 3222348 3206826 3186131 3161499 3132897 3100258 3063184 
1749.693 3022309 2980505 2942840 2916387 2906981 2917588 2946577 2987744 
1753.551 3032853 3072261 3097455 3102995 3087911 3056677 3018105 2983074 
1757.408 2960154 2952148 2955951 2963657 2966526 2956451 2929830 2887801 
1761.266 2837071 2787180 2747499 2724425 2719390 2729293 2747999 2768506 
1765.123 2783812 2787614 2776276 2749233 2710355 2666746 2627642 2600208 
1768.980 2586576 2582942 2580342 2568377 2538780 2489624 2427644 2367673 
1772.838 2324699 2309042 2321401 2354913 2399223 2444638 2485358 2519484 
1776.695 2547945 2571976 2592075 2606642 2612975 2609609 2597309 2579942 
1780.553 2563644 2553712 2552012 2556678 2562244 2563177 2555545 2539147 
1784.410 2517650 2496755 2481559 2474828 2476027 2482126 2489657 2495655 
1788.268 2497922 2495122 2485192 2465831 2434408 2389861 2333993 2273101 
1792.125 2216948 2175187 2154142 2154275 2170958 2196500 2223542 2246922 
1795.982 2263909 2273668 2276765 2273401 2263742 2247722 2225973 2199930 
1799.840 2172557 2147515 2127903 2115783 2111089 2112754 2118913 2128270 
1803.697 2139557 2152177 2165563 2178717 2190539 2200596 2208722 2215616 
1807.555 2222310 2229137 2235265 2239395 2239695 2234866 2225740 2214650 
1811.412 2204792 2199331 2198998 2202295 2206091 2206457 2200896 2189806 
1815.270 2175920 2164198 2159470 2165364 2182114 2207390 2236464 2264142 
1819.127 2286858 2303046 2312773 2317703 2319868 2320168 2318303 2312806 
1822.984 2301547 2283694 2260178 2234100 2211020 2196367 2193136 2201262 
1826.842 2216315 2231335 2238696 2232634 2211952 2181148 2149813 2128236 
1830.699 2125106 2142621 2176852 2219213 2261277 2295818 2319635 2333326 
1834.557 2339689 2342787 2345752 2350050 2355746 2362642 2370971 2381932 
1838.414 2397524 2418848 2445604 2475594 2504220 2526282 2536780 2531181 
1842.271 2507586 2466963 2414417 2358611 2310175 2279430 2272535 2290022 
1846.129 2327164 2376068 2427611 2473628 2509186 2532648 2545779 2551978 
1849.986 2555045 2557044 2558311 2557878 2554978 2549745 2543946 2540446 
1853.844 2541346 2547479 2557078 2567710 2576109 2580209 2579409 2574276 
1857.701 2565877 2554811 2540913 2524016 2504520 2484158 2465931 2453068 
1861.559 2447570 2449403 2456334 2464598 2470929 2473662 2472795 2469863 
1865.416 2465864 2460166 2450836 2435008 2410485 2378467 2343720 2312940 
1869.273 2293253 2288757 2298416 2318536 2343154 2367806 2390161 2410385 
1873.131 2429610 2449569 2470496 2491257 2510519 2527215 2541080 2553012 
1876.988 2564377 2575109 2584642 2591175 2593075 2589909 2582942 2574343 
1880.846 2566710 2561644 2558411 2555644 2551378 2544713 2536880 2530515 
1884.703 2528448 2532281 2541546 2552878 2561744 2564077 2557744 2543046 
1888.561 2522849 2501621 2483559 2472129 2468563 2472628 2483192 2498188 
1892.418 2515718 2533681 2549979 2563677 2573543 2580209 2584476 2587776 
1896.275 2591009 2594209 2597309 2599608 2600808 2601675 2603175 2605908 
1900.133 2610009 2614342 2617309 2617175 2613442 2607242 2600308 2595408 
1903.990 2593709 2595309 2598808 2602308 2604275 2604975 2606275 2610108 
1907.848 2618142 2630576 2645577 2660879 2673814 2682916 2687950 2690184 
1911.705 2690784 2691050 2691884 2693051 2695351 2698185 2700286 2700219 
1915.563 2695218 2681649 2657712 2624275 2585442 2548079 2520517 2507286 
1919.420 2509219 2521650 2537847 2550579 2556044 2554378 2549579 2547912 
1923.277 2553978 2569543 2593275 2620709 2648044 2673347 2696652 2719290 
1927.135 2742497 2765572 2786547 2802887 2812692 2816527 2817027 2817761 
1930.992 2821563 2829267 2839038 2848010 2854214 2857115 2858216 2860284 
1934.850 2865287 2873992 2885366 2897107 2907981 2917922 2928296 2940072 
1938.707 2953649 2966426 2974900 2975100 2965158 2945776 2921891 2899475 
1942.564 2883865 2877327 2879229 2886734 2897441 2910883 2928196 2952048 
1946.422 2984808 3025746 3072027 3119647 3163969 3202287 3233865 3258634 
1950.279 3277296 3289916 3296259 3296259 3291018 3283272 3275761 3269918 
1954.137 3264977 3256565 3239773 3210531 3167373 3114642 3060681 3015303 
1957.994 2986777 2979270 2990714 3016104 3047968 3079268 3106932 3129226 
1961.852 3144778 3154256 3157761 3155859 3151419 3148883 3151119 3160698 
1965.709 3175217 3188902 3195110 3188167 3167040 3136768 3106699 3085542 
1969.566 3079869 3091281 3115275 3145279 3174750 3199750 3218609 3232396 
1973.424 3240808 3244780 3244480 3243045 3247618 3269418 3318495 3402007 
1977.281 3518136 3654544 3792064 3912109 3999581 4049008 4063490 4051517 
1981.139 4023993 3989415 3952967 3917291 3882454 3849124 3818771 3792967 
1984.996 3772411 3756502 3743835 3733074 3723416 3717099 3715328 3719539 
1988.854 3727961 3737084 3741429 3737686 3725688 3708611 3693239 3685654 
1992.711 3688527 3699856 3714326 3724619 3725956 3717534 3702362 3686455 
1996.568 3675395 3672020 3675294 3682746 3689430 3692036 3688293 3677233 
2000.426 3657919 3629584 3591830 3544592 3490044 3433833 3381871 3340632 
2004.283 3314522 3303605 3306542 3318963 3337026 3359231 3385377 3414297 
2008.141 3444454 3471941 3490211 3495188 3485034 3460719 3428690 3395529 
2011.998 3367812 3349547 3341601 3341768 3347811 3358129 3370751 3385210 
2015.855 3401306 3417536 3433232 3448094 3461554 3474647 3487840 3499698 
2019.713 3508415 3510987 3505910 3493986 3480124 3469770 3468868 3480993 
2023.570 3504240 3532767 3559959 3579369 3588656 3589559 3586551 3584180 
2027.428 3585950 3591196 3597978 3603958 3608401 3612544 3619460 3632859 
2031.285 3654811 3685954 3726290 3775185 3833814 3902848 3981824 4067838 
2035.143 4155275 4236605 4305603 4359116 4396970 4423446 4443464 4460704 
2039.000 4476103 4489126 4497562 4500375 4499805 4498500 4501011 4509649 
2042.857 4523744 4539982 4554246 4563655 4567640 4569515 4574571 4587898 
2046.715 4613482 4652531 4702569 4759815 4818108 4869640 4907974 4926405 
2050.572 4919803 4889142 4839283 4779882 4723839 4683946 4668071 4678185 
2054.430 4707292 4743234 4772947 4786180 4778542 4753953 4720322 4686391 
2058.287 4660267 4646134 4643689 4651090 4665626 4684315 4705182 4726351 
2062.145 4744037 4754757 4755628 4744942 4724274 4698550 4672559 4652598 
2066.002 4642249 4642216 4650823 4666564 4685989 4707493 4729433 4749967 
2069.859 4766951 4778877 4784706 4785342 4783902 4783835 4788425 4799078 
2073.717 4813719 4828762 4839618 4842935 4838077 4827891 4816064 4806884 
2077.574 4802830 4804003 4808660 4815059 4821090 4826015 4830035 4833386 
2081.432 4835731 4836602 4835463 4831811 4826618 4821324 4817036 4813786 
2085.289 4810838 4806147 4797638 4785108 4769229 4752982 4738946 4728863 
2089.146 4722130 4716603 4709268 4697042 4679491 4658124 4636020 4617735 
2093.004 4606550 4604708 4613047 4631264 4657688 4690444 4726385 4760787 
2096.861 4790066 4810000 4818544 4816969 4809330 4800988 4797638 4803065 
2100.719 4817404 4838378 4861899 4883479 4901306 4915112 4926003 4936057 
2104.576 4946714 4957639 4968297 4978017 4986463 4994641 5004126 5015691 
2108.434 5029936 5046764 5065502 5086287 5110325 5138655 5172453 5211351 
2112.291 5252298 5290599 5321256 5339772 5343864 5334606 5314748 5289325 
2116.148 5263130 5239956 5221814 5210043 5203672 5201660 5202900 5205281 
2120.006 5206723 5206019 5201593 5193578 5183452 5172855 5164138 5159008 
2123.863 5158169 5160650 5165546 5170944 5174834 5175672 5171481 5160282 
2127.721 5140634 5111532 5072609 5025645 4974095 4920809 4870041 4824976 
2131.578 4787252 4757705 4737539 4726385 4724911 4733017 4749230 4770569 
2135.436 4793952 4814858 4830538 4840355 4844509 4843638 4839249 4830873 
2139.293 4817303 4798408 4775192 4750971 4730940 4719819 4719886 4731208 
2143.150 4749632 4768592 4784605 4795259 4801155 4805444 4810838 4815930 
2147.008 4818275 4812245 4792981 4759480 4714627 4664052 4615324 4573600 
2150.865 4539581 4510686 4481593 4445907 4399982 4342114 4271605 4190100 
2154.723 4099813 4005031 3914917 3844812 3812855 3841502 3947517 4134601 
2158.580 4391648 4692923 5003490 5287916 5521652 5690246 5792818 5838051 
2162.438 5838958 5812630 5773846 5733857 5701358 5680108 5667788 5659496 
2166.295 5648016 5626298 5590786 5542928 5487491 5431591 5381905 5341885 
2170.152 5310791 5286272 5263433 5238984 5212927 5187978 5166887 5154246 
2174.010 5151933 5158404 5171816 5188381 5203873 5214503 5217555 5209574 
2177.867 5189722 5159410 5121824 5084678 5056015 5043478 5051255 5079213 
2181.725 5121455 5169167 5213463 5248273 5270576 5282315 5287178 5288888 
2185.582 5289694 5290633 5289861 5286876 5280571 5270509 5258066 5243612 
2189.439 5227884 5212424 5198340 5186905 5180367 5179830 5185396 5196496 
2193.297 5211619 5228252 5246228 5264942 5284227 5304284 5323906 5340174 
2197.154 5350607 5353626 5348292 5337021 5323604 5310489 5300124 5292410 
2201.012 5285367 5278256 5270945 5264271 5261856 5265679 5275573 5288687 
2204.869 5300494 5305659 5301064 5287882 5269268 5251124 5239152 5235463 
2208.727 5239856 5250453 5263197 5275640 5287413 5298079 5307638 5316023 
2212.584 5321524 5322832 5320954 5318807 5320719 5331621 5354732 5388514 
2216.441 5429612 5470243 5503665 5525913 5536417 5538061 5536115 5536115 
2220.299 5540646 5550714 5564742 5579912 5594479 5607367 5618679 5629420 
2224.156 5641000 5653521 5667888 5683364 5698572 5712202 5722375 5727445 
2228.014 5727109 5722408 5716197 5712638 5716231 5729627 5752659 5782543 
2231.871 5814107 5841207 5860182 5869351 5869452 5864313 5856690 5848260 
2235.729 5839965 5830495 5818943 5805544 5792818 5783785 5782711 5792516 
2239.586 5813402 5844028 5880400 5917649 5951642 5978650 5995917 6003174 
2243.443 6001528 5992793 5980901 5970016 5963264 5963802 5972469 5987821 
2247.301 6007675 6029379 6049772 6067177 6080920 6090228 6095201 6096343 
2251.158 6093487 6088111 6083239 6081357 6086330 6100342 6123428 6153101 
2255.016 6185533 6215547 6239009 6254673 6262035 6262841 6258774 6251076 
2258.873 6239748 6224891 6206304 6184525 6161907 6141070 6124604 6114657 
2262.730 6111532 6113951 6120403 6128771 6136970 6144297 6150077 6153841 
2266.588 6156193 6157403 6157806 6158143 6159319 6160932 6163116 6165234 
2270.445 6166208 6166107 6165536 6165502 6167653 6172964 6181500 6191818 
2274.303 6202204 6210438 6215379 6217497 6217934 6218337 6220488 6224589 
2278.160 6230068 6236152 6242034 6247446 6254068 6262808 6274977 6291046 
2282.018 6309872 6329069 6346451 6359631 6367095 6368709 6364910 6356605 
2285.875 6345207 6331590 6316226 6300055 6283515 6266707 6250169 6234101 
2289.732 6218136 6202406 6187079 6171921 6157336 6143927 6131325 6119899 
2293.590 6109213 6098326 6086397 6072956 6057097 6038887 6018829 5997698 
2297.447 5976903 5958360 5943143 5932327 5926214 5923829 5923460 5923661 
2301.305 5922351 5918656 5912913 5905590 5897328 5888998 5880535 5871500 
2305.162 5861559 5850342 5838252 5826196 5815383 5805880 5797955 5790434 
2309.020 5781569 5770253 5755480 5736912 5715962 5693838 5671917 5651843 
2312.877 5634421 5620055 5608911 5601124 5595922 5592666 5590552 5588337 
2316.734 5585416 5581590 5577462 5574039 5573133 5575717 5582798 5594512 
2320.592 5609851 5627271 5644625 5658758 5665270 5660235 5639355 5600050 
2324.449 5542022 5467593 5382106 5292310 5205214 5126417 5059569 5005065 
2328.307 4961259 4925970 4897418 4874230 4857611 4848631 4847894 4855198 
2332.164 4868668 4885455 4903685 4922183 4940481 4959818 4981100 5004060 
2336.021 5028059 5051222 5071201 5086824 5097551 5104357 5108916 5113711 
2339.879 5119981 5129200 5141472 5155956 5171280 5186067 5198340 5207796 
2343.736 5215375 5223792 5238145 5264740 5308376 5372445 5456688 5556553 
2347.594 5665001 5773879 5874724 5960174 6025649 6068488 6088749 6088682 
2351.451 6072385 6044935 6011472 5976063 5941800 5910259 5881845 5856455 
2355.309 5834155 5815115 5799399 5787949 5780998 5778043 5779051 5783013 
2359.166 5788889 5796041 5803933 5811891 5819615 5827137 5834256 5841611 
2363.023 5850074 5860955 5875699 5895514 5920940 5951742 5986746 6024373 
2366.881 6063145 6102694 6142684 6183786 6227009 6272691 6321000 6371870 
2370.738 6424696 6479311 6535716 6594146 6654300 6716583 6780288 6845079 
2374.596 6911227 6979270 7050254 7125696 7206810 7293667 7385766 7481525 
2378.453 7578654 7674961 7768962 7859104 7945249 8027393 8105705 8180723 
2382.311 8252782 8322049 8388726 8452744 8513562 8570637 8623292 8670545 
2386.168 8712326 8749142 8781700 8811590 8840468 8869043 8897958 8927213 
2390.025 8956166 8984241 9011202 9036439 9059782 9081199 9100045 9116117 
2393.883 9129415 9140379 9150192 9160649 9173339 9189854 9210905 9236289 
2397.740 9264957 9295423 9325990 9355275 9382970 9408837 9433488 9457971 
2401.598 9483336 9510462 9540537 9574071 9611061 9651916 9696605 9744754 
2405.455 9796128 9850457 9906657 9964288 10021996 10078794 10134447 10188513 
2409.313 10241772 10295444 10351159 10409799 10472012 10537459 10605088 
2412.688 10673610 10742280 10810213 10877681 10945023 11012139 11079196 
2416.063 11145788 11211268 11275058 11337394 11398788 11459747 11521531 
2419.438 11584585 11648871 11714189 11779585 11844105 11907239 11968065 
2422.813 12025664 12080000 12130322 12176424 12218340 12257022 12293015 
2426.189 12328022 12363407 12400397 12440050 12482911 12528984 12578232 
2429.564 12630044 12683399 12737715 12792345 12847050 12902274 12959519 
2432.939 13019708 13084037 13153601 13227616 13305096 13384536 13464265 
2436.314 13543393 13621953 13700118 13779152 13859945 13942977 14028729 
2439.690 14117304 14208396 14302042 14398551 14497889 14600095 14705033 
2443.065 14812397 14921844 15033686 15148163 15265348 15386066 15509737 
2446.440 15635950 15763814 15892748 16022166 16152931 16285729 16421596 
2449.815 16561259 16704993 16851566 16999498 17146894 17291618 17432250 
2453.191 17567684 17697082 17820274 17936870 18046108 18147218 18239054 
2456.566 18319610 18387252 18439694 18475338 18492660 18491104 18470324 
2459.941 18431050 18373944 18300186 18210962 18107696 17991710 17864534 
2463.316 17728248 17584382 17434458 17280342 17122974 16963458 16802762 
2466.692 16641641 16480856 16321197 16163660 16008792 15857762 15711421 
2470.067 15570864 15437940 15313912 15199803 15096632 15004016 14921535 
2473.442 14848396 14783599 14726114 14675832 14632273 14594613 14562267 
2476.817 14533589 14506728 14480555 14454075 14426946 14400057 14374335 
2480.193 14350122 14327520 14305741 14283585 14260130 14234965 14208636 
2483.568 14182412 14158209 14137329 14120590 14108439 14099643 14093105 
2486.943 14087594 14081674 14074418 14065827 14055765 14044677 14033691 
2490.318 14023322 14014699 14008846 14006007 14006211 14009257 14014493 
2493.694 14020926 14028318 14036018 14043136 14049844 14056039 14061344 
2497.069 14066682 14072535 14079654 14088861 14100601 14114463 14129968 
2500.444 14145955 14161393 14175599 14188608 14200145 14210964 14220996 
2503.819 14230274 14239210 14248146 14257459 14268279 14281770 14298275 
2507.195 14317589 14338752 14360122 14379644 14396564 14410298 14421226 
2510.570 14430233 14437701 14443559 14447086 14447121 14442668 14433659 
2513.945 14420917 14405400 14389029 14372726 14356595 14340841 14324301 
2517.320 14305945 14285708 14263417 14239312 14214764 14190663 14167692 
2520.696 14147495 14130859 14118741 14111657 14109123 14109945 14112444 
2524.071 14114497 14114155 14110903 14104776 14096870 14088724 14082050 
2527.446 14077463 14075273 14075205 14076368 14078422 14081229 14084549 
2530.821 14088758 14094166 14100361 14107001 14113026 14117270 14118467 
2534.197 14116277 14110356 14101730 14092181 14083932 14079175 14079962 
2537.572 14086499 14097896 14112683 14128497 14143387 14156909 14169438 
2540.947 14181796 14195558 14211409 14228801 14247119 14265095 14281873 
2544.322 14297659 14313548 14330431 14349129 14369404 14389748 14408381 
2547.698 14423897 14435543 14444415 14452259 14461132 14472608 14487269 
2551.073 14503920 14521084 14537083 14550651 14561787 14571621 14580975 
2554.448 14591255 14603214 14616853 14631828 14647695 14663974 14680116 
2557.823 14695916 14710449 14723063 14733106 14739961 14743149 14743217 
2561.198 14740270 14735025 14728170 14720389 14712403 14705273 14699961 
2564.574 14697253 14697459 14700235 14704108 14707536 14708392 14705273 
2567.949 14698076 14687965 14676655 14666853 14660992 14660169 14665002 
2571.324 14675044 14688822 14704862 14722343 14740270 14758334 14776709 
2574.699 14795118 14813700 14832213 14850487 14868557 14887073 14906378 
2578.075 14927365 14950650 14976132 15003810 15032793 15062087 15090766 
2581.450 15118898 15146276 15173931 15202616 15233089 15265348 15299394 
2584.825 15333992 15368216 15401412 15433065 15462867 15491023 15517257 
2588.200 15540883 15561763 15579141 15593153 15605003 15616337 15629526 
2591.576 15646735 15669407 15697885 15731277 15768144 15805975 15843293 
2594.951 15878417 15910517 15939526 15966166 15990883 16015049 16039768 
2598.326 16066002 16094232 16125042 16157711 16191620 16225843 16259860 
2601.701 16293332 16327010 16361553 16397750 16436359 16477035 16519265 
2605.077 16562290 16605183 16647322 16688913 16730269 16771937 16814712 
2608.452 16858766 16903754 16949334 16994676 17039024 17081652 17122216 
2611.827 17160718 17197602 17233592 17269448 17306134 17343996 17383068 
2615.202 17422626 17461844 17499616 17535322 17569132 17601220 17632378 
2618.578 17663194 17693528 17722866 17750098 17774156 17794694 17811920 
2621.953 17827006 17841678 17857870 17876584 17898370 17922610 17948404 
2625.328 17974582 18000412 18025556 18050320 18075122 18100544 18126766 
2628.703 18154126 18182354 18211274 18241164 18272090 18304334 18338136 
2632.079 18373530 18409930 18447300 18484914 18522466 18560192 18598404 
2635.454 18637728 18678784 18721712 18766548 18812808 18859798 18906760 
2638.829 18953172 18998828 19043554 19087452 19130700 19172842 19213880 
2642.204 19253778 19292294 19330020 19367434 19404956 19442898 19481258 
2645.580 19519448 19556740 19593032 19628078 19662432 19697104 19732990 
2648.955 19770856 19810528 19851764 19893492 19935222 19976298 20016892 
2652.330 20057558 20099132 20142062 20186732 20232724 20279384 20326324 
2655.705 20372924 20418764 20464122 20509172 20554158 20599740 20646262 
2659.081 20694010 20743880 20795946 20850488 20907226 20965882 21025800 
2662.456 21086388 21147330 21208420 21269694 21331638 21394114 21457362 
2665.831 21521282 21585664 21650368 21715536 21780888 21846736 21913362 
2669.206 21980766 22048840 22117834 22187674 22258398 22330284 22403264 
2672.582 22477198 22551948 22626780 22701380 22775504 22849050 22922150 
2675.957 22995126 23068182 23141182 23214508 23287742 23360986 23434490 
2679.332 23508566 23583388 23659586 23737480 23817172 23899188 23983744 
2682.707 24071360 24162672 24257720 24356712 24459196 24564650 24672338 
2686.083 24781986 24893834 25008168 25125798 25247498 25373342 25503086 
2689.458 25635824 25770324 25905216 26039448 26172524 26304304 26435420 
2692.833 26566538 26698826 26832952 26969374 27108062 27248698 27390510 
2696.208 27532332 27673672 27813962 27953202 28092168 28231568 28372394 
2699.583 28515810 28662002 28811002 28962676 29115962 29270364 29425212 
2702.959 29579902 29734256 29888206 30041426 30193922 30345510 30495836 
2706.334 30644188 30790102 30932682 31071608 31206558 31337418 31463970 
2709.709 31586320 31704246 31817712 31926290 32030184 32129288 32223772 
2713.084 32313996 32400098 32481860 32558818 32630142 32695014 32752532 
2716.460 32802022 32843512 32877282 32903980 32923962 32938440 32947730 
2719.835 32952916 32954846 32954094 32951344 32947448 32942406 32936436 
2723.210 32930180 32923498 32916598 32910164 32904126 32898370 32893222 
2726.585 32888542 32884500 32881680 32880892 32882966 32888864 32898870 
2729.961 32913168 32930824 32951198 32973110 32996350 33020482 33045828 
2733.336 33072642 33101142 33131112 33162400 33194054 33225026 33254680 
2736.711 33282402 33307876 33331488 33353488 33374816 33395960 33417358 
2740.086 33438582 33458694 33476372 33489972 33497990 33500172 33497058 
2743.462 33490222 33482206 33475120 33470898 33470754 33474442 33481312 
2746.837 33490654 33501786 33514488 33528880 33545308 33563884 33584256 
2750.212 33605840 33627572 33648944 33669748 33690268 33711392 33734204 
2753.587 33759308 33787564 33818936 33853108 33889648 33927764 33966676 
2756.963 34005980 34045256 34084532 34123848 34163352 34203072 34242648 
2760.338 34281584 34318556 34352656 34382784 34408460 34429768 34447056 
2763.713 34461152 34472520 34481276 34487304 34489636 34488092 34482208 
2767.088 34472092 34458532 34442176 34423812 34404012 34383000 34360724 
2770.464 34337200 34312460 34286856 34261116 34235732 34211564 34189232 
2773.839 34169156 34151808 34137724 34127472 34121520 34120624 34125248 
2777.214 34135892 34152024 34173424 34198660 34226372 34254552 34281048 
2780.589 34304104 34322104 34333976 34339284 34338276 34331392 34319632 
2783.965 34304176 34285888 34265884 34245232 34224436 34204004 34184500 
2787.340 34165788 34148192 34131916 34117544 34105464 34096468 34091236 
2790.715 34089984 34092956 34099980 34110876 34125788 34144780 34168044 
2794.090 34196148 34228884 34265808 34306040 34347924 34389740 34429912 
2797.466 34466816 34499392 34527372 34550336 34568524 34582084 34591632 
2800.841 34597588 34600312 34600600 34598808 34595472 34591240 34586896 
2804.216 34583236 34581084 34581116 34583740 34588868 34596012 34604548 
2807.591 34613736 34622924 34632108 34641544 34651808 34663508 34677468 
2810.967 34694228 34714292 34738412 34767092 34800728 34839316 34882652 
2814.342 34929620 34979320 35030140 35081468 35132876 35184648 35237288 
2817.717 35291520 35347944 35406752 35468412 35533204 35601640 35674584 
2821.092 35752824 35836840 35926884 36022520 36123188 36228272 36337380 
2824.468 36450732 36568908 36692632 36822160 36957572 37098152 37242564 
2827.843 37389556 37537360 37684124 37828948 37970460 38107900 38241252 
2831.218 38370628 38496496 38619972 38742000 38863264 38984816 39107236 
2834.593 39231500 39358888 39491284 39630076 39776788 39932372 40096668 
2837.969 40268656 40447080 40631068 40820120 41014684 41215856 41425248 
2841.344 41644368 41874548 42117112 42373732 42646292 42937240 43249136 
2844.719 43584336 43944428 44329848 44739224 45169464 45615480 46069872 
2848.094 46522604 46961596 47372276 47739740 48050148 48292040 48458936 
2851.469 48549744 48569048 48525436 48430856 48299376 48143940 47977760 
2854.845 47812752 47658752 47523992 47414772 47334696 47284820 47264128 
2858.220 47269524 47296824 47341572 47399436 47467104 47541924 47622036 
2861.595 47706236 47793856 47884556 47977984 48074060 48172672 48273676 
2864.970 48376924 48482352 48589948 48699796 48811828 48925808 49041196 
2868.346 49156948 49271692 49384428 49493584 49597680 49695600 49785848 
2871.721 49866900 49937744 49997704 50046968 50087200 50121448 50153132 
2875.096 50185976 50223468 50267580 50319700 50380124 50448820 50526088 
2878.471 50611816 50706612 50810444 50923056 51043560 51170988 51304576 
2881.847 51443796 51588440 51739096 51895708 52058316 52226440 52399448 
2885.222 52576344 52756492 52939260 53123940 53309708 53495068 53678260 
2888.597 53857664 54032188 54201644 54366544 54528200 54687960 54847180 
2891.972 55006724 55167000 55328732 55492400 55659036 55829768 56005500 
2895.348 56186660 56372688 56561816 56751480 56937484 57114760 57277144 
2898.723 57417384 57527904 57601784 57633980 57621836 57566072 57470296 
2902.098 57340660 57183888 57006960 56816656 56617980 56415624 56213888 
2905.473 56016356 55826300 55646604 55478620 55322784 55178700 55045348 
2908.849 54921852 54808200 54704388 54611456 54529624 54458784 54397224 
2912.224 54342920 54291780 54238992 54179456 54107580 54016992 53902940 
2915.599 53760376 53586296 53379128 53139404 52869724 52574400 52259024 
2918.974 51929428 51591272 51249168 50905580 50561040 50213460 49859392 
2922.350 49494400 49114876 48718852 48307224 47884040 47455168 47028124 
2925.725 46610720 46208644 45826448 45466008 45127588 44810340 44513104 
2929.100 44234600 43973908 43730596 43504048 43293688 43099016 42918992 
2932.475 42752676 42599108 42457028 42325152 42202880 42089256 41983952 
2935.851 41886768 41797380 41715048 41638788 41566696 41496768 41427068 
2939.226 41356180 41283332 41208608 41132468 41054816 40975392 40892636 
2942.601 40804396 40708244 40601816 40483268 40351368 40205116 40043544 
2945.976 39865980 39671420 39459464 39230704 38987280 38732436 38470936 
2949.352 38208216 37948912 37696880 37454640 37222676 37000396 36786888 
2952.727 36581016 36382052 36190204 36005924 35830072 35663360 35506128 
2956.102 35358084 35218820 35087612 34963988 34848256 34741068 34643700 
2959.477 34557728 34484432 34424564 34378156 34344376 34321564 34308012 
2962.853 34301664 34300664 34303424 34308084 34312672 34314860 34311920 
2966.228 34300696 34278324 34242144 34189912 34120340 34032820 33927260 
2969.603 33804576 33666204 33514060 33350520 33178530 33000744 32820102 
2972.978 32639500 32461152 32287228 32119584 31959244 31806946 31662866 
2976.354 31526566 31397216 31273924 31155150 31039720 30926064 30812794 
2979.729 30698450 30581968 30462674 30340216 30215340 30089364 29963780 
2983.104 29840538 29721234 29606822 29497798 29394436 29296594 29204444 
2986.479 29118724 29040074 28969300 28906648 28851756 28803000 28757720 
2989.854 28712334 28662886 28604842 28534422 28449120 28347740 28231534 
2993.230 28103764 27969918 27836006 27708564 27592880 27492160 27407062 
2996.605 27336272 27276886 27225592 27179838 27138074 27100056 27066660 
2999.980 27038660 27016656 27000508 26989084 26980586 26973218 26965214 
3003.355 26955130 26942334 26926504 26907960 26887164 26864884 26842186 
3006.731 26820440 26800808 26784490 26772650 26765778 26764052 26766870 
3010.106 26773460 26782554 26793266 26805002 26817514 26831506 26848108 
3013.481 26868516 26894002 26925482 26963098 27006924 27056680 27111552 
3016.856 27171406 27235680 27303948 27375406 27449098 27523790 27598318 
3020.232 27671588 27742892 27811596 27877658 27940376 27999072 28053146 
3023.607 28101358 28143250 28178462 28207208 28230120 28248154 28261838 
3026.982 28271526 28277822 28280898 28281182 28279624 28277538 28276302 
3030.357 28277008 28280510 28286804 28295646 28306396 28318136 28330162 
3033.733 28341940 28353222 28364188 28375188 28386754 28399452 28413886 
3037.108 28430052 28447704 28466314 28485028 28503286 28520942 28537996 
3040.483 28555088 28572922 28591394 28610788 28630606 28650180 28669362 
3043.858 28688548 28708442 28730106 28754568 28782004 28812100 28844180 
3047.234 28877040 28909976 28942772 28975922 29010210 29046450 29085350 
3050.609 29126908 29170742 29216242 29262494 29309070 29355296 29400464 
3053.984 29444216 29486096 29525920 29563870 29600582 29636976 29673870 
3057.359 29711940 29751288 29791812 29833016 29874432 29915926 29957602 
3060.735 29999352 30041284 30083008 30123988 30163126 30199996 30234238 
3064.110 30266138 30296550 30326466 30356774 30388008 30420490 30453790 
3067.485 30487804 30522318 30556942 30591816 30626696 30661610 30696638 
3070.860 30731594 30766448 30801448 30836768 30872698 30909484 30947270 
3074.236 30985950 31025592 31066056 31107380 31149882 31193884 31239812 
3077.611 31288132 31339054 31392586 31448792 31506934 31566400 31626694 
3080.986 31687424 31748444 31809978 31872266 31934992 31998082 32060504 
3084.361 32121080 32178632 32232586 32283016 32330808 32377928 32425872 
3087.737 32476216 32529746 32585922 32644038 32703086 32762182 32820962 
3091.112 32879784 32938938 32998674 33059344 33120382 33181392 33242162 
3094.487 33302650 33363796 33426736 33492514 33562380 33636344 33714292 
3097.862 33794796 33876860 33959004 34040024 34119768 34198264 34276064 
3101.238 34354236 34433352 34513920 34595796 34678368 34760880 34842476 
3104.613 34922472 35000688 35077160 35152456 35226940 35301080 35375264 
3107.988 35449536 35524180 35599768 35676596 35755056 35835400 35917488 
3111.363 36000708 36084480 36168596 36253016 36338280 36424968 36513580 
3114.739 36603980 36695476 36786924 36877272 36965832 37052680 37138860 
3118.114 37225492 37314016 37404868 37498020 37592524 37687268 37781308 
3121.489 37874284 37966304 38058268 38150764 38244216 38338488 38433212 
3124.864 38527524 38620696 38712368 38802900 38893196 38984564 39078592 
3128.240 39176492 39279012 39385920 39496292 39608292 39720000 39829260 
3131.615 39934844 40036568 40135624 40233320 40332136 40433660 40538736 
3134.990 40647080 40757920 40869848 40981620 41092692 41202884 41313104 
3138.365 41424156 41536764 41651884 41769436 41888996 42009972 42131608 
3141.740 42253124 42374136 42494404 42614052 42733480 42853304 42973600 
3145.116 43094736 43216596 43338860 43461416 43584336 43708136 43833908 
3148.491 43962724 44095392 44232248 44373000 44516224 44660596 44804460 
3151.866 44946724 45086896 45225244 45362672 45500228 45638740 45779140 
3155.241 45921608 46065932 46211776 46358184 46504532 46650008 46794352 
3158.617 46937560 47080004 47222200 47364956 47509244 47655096 47803064 
3161.992 47952968 48104448 48257088 48410780 48565304 48720592 48876748 
3165.367 49033780 49191792 49350976 49511260 49672528 49834644 49997484 
3168.742 50160648 50324020 50487600 50651432 50816032 50981812 51149372 
3172.118 51318896 51490536 51663892 51838284 52012560 52185336 52355452 
3175.493 52521672 52683880 52842288 52998440 53153856 53310568 53470336 
3178.868 53633608 53800240 53969416 54140048 54311380 54483612 54657372 
3182.243 54833984 55013908 55197324 55382928 55568952 55753548 55935732 
3185.619 56115396 56293320 56471428 56651276 56833724 57019084 57206832 
3188.994 57396324 57587032 57779412 57973204 58168672 58365784 58563704 
3192.369 58761524 58958644 59154824 59350176 59545432 59740664 59936016 
3195.744 60131152 60325768 60520092 60714956 60912200 61113496 61320040 
3199.120 61531872 61747552 61965096 62182216 62396880 62608624 62818408 
3202.495 63027376 63237704 63451008 63668176 63889720 64115600 64344896 
3205.870 64576516 64808904 65039844 65267592 65490952 65710224 65927260 
3209.245 66145480 66368096 66597856 66835664 67080244 67328488 67577184 
3212.621 67823544 68066288 68306256 68544920 68784488 69026520 69271256 
3215.996 69517992 69765728 70013096 70259520 70504872 70749816 70994632 
3219.371 71240080 71486928 71735592 71987184 72242352 72501752 72765056 
3222.746 73031592 73300008 73568912 73837232 74104648 74371376 74638152 
3226.122 74905080 75172456 75440224 75707656 75974384 76240360 76505008 
3229.497 76768736 77031760 77294040 77556472 77820368 78087440 78359752 
3232.872 78639312 78926040 79219128 79515952 79813376 80108568 80400104 
3236.247 80687920 80973368 81258608 81545200 81833728 82124536 82417024 
3239.623 82711232 83007808 83307512 83611320 83919240 84230120 84542176 
3242.998 84853824 85164360 85474872 85788480 86109056 86440304 86784144 
3246.373 87141216 87509568 87886344 88268392 88653104 89039008 89425168 
3249.748 89811312 90197312 90583232 90969224 91355392 91742280 92130808 
3253.124 92521984 92916768 93315472 93718408 94125552 94536736 94951288 
3256.499 95368248 95786360 96203760 96619312 97031792 97441104 97847976 
3259.874 98253520 98658656 99064088 99469064 99872288 100272056 100666512 
3263.249 101054040 101433880 101805728 102169408 102525056 102872512 
3266.142 103211592 103542440 103865072 104180040 104487600 104788248 
3269.035 105081848 105368680 105648768 105921600 106187360 106445496 
3271.928 106695480 106937008 107169808 107394416 107611792 107823464 
3274.822 108030520 108233672 108433144 108627344 108815248 108995432 
3277.715 109167424 109331688 109489112 109640920 109787656 109929456 
3280.608 110066008 110196576 110321464 110441128 110556936 110670040 
3283.501 110781552 110891632 111000456 111107384 111212160 111314904 
3286.394 111415784 111514720 111611360 111704640 111793272 111876048 
3289.287 111952744 112023800 112090792 112155560 112219312 112283544 
3292.180 112348808 112415336 112483080 112552152 112621720 112691072 
3295.073 112758088 112820680 112876960 112925304 112966000 113000088 
3297.966 113029568 113055832 113080080 113101744 113120144 113133776 
3300.859 113142544 113146976 113148432 113149256 113151360 113156520 
3303.752 113165680 113179480 113198488 113222960 113252496 113286432 
3306.645 113323504 113362568 113402736 113444696 113490560 113543440 
3309.538 113606576 113682336 113770896 113871360 113981328 114098344 
3312.431 114221720 114351960 114490592 114639544 114799928 114971528 
3315.324 115153072 115343392 115541480 115747880 115963680 116190112 
3318.218 116427792 116676360 116934048 117199216 117470624 117747200 
3321.111 118028920 118315424 118605384 118896800 119186888 119473112 
3324.004 119754680 120032496 120308568 120585696 120865408 121147912 
3326.897 121430744 121710784 121984200 122247376 122497888 122733904 
3329.790 122953688 123155896 123339192 123502568 123646008 123770328 
3332.683 123876304 123964584 124034456 124084192 124111440 124114832 
3335.576 124094328 124052096 123991656 123916808 123830160 123732480 
3338.469 123622224 123497016 123354464 123193120 123012888 122814656 
3341.362 122599648 122368528 122121384 121857888 121578152 121282960 
3344.255 120973568 120651920 120319408 119976496 119623216 119259224 
3347.148 118884648 118500600 118109280 117713224 117315192 116917600 
3350.041 116521208 116126728 115733776 115341960 114950288 114557568 
3352.934 114162720 113764312 113362088 112956200 112548504 112141144 
3355.827 111736912 111337632 110943864 110555224 110170056 109787280 
3358.720 109406752 109029240 108656360 108289416 107928632 107573040 
3361.614 107220784 106869368 106517472 106164384 105810864 105457968 
3364.507 105106960 104758680 104413208 104071096 103732776 103399768 
3367.400 103073944 102756720 102448496 102148872 101855992 101567280 
3370.293 101280736 100994368 100707240 100418504 100127784 99834520 99538064 
3373.668 99237904 98934240 98627840 98319544 98010216 97700192 97389520 
3377.043 97077872 96765368 96452840 96141776 95834120 95531056 95232776 
3380.418 94938336 94645792 94352736 94058104 93761624 93464192 93167872 
3383.794 92874296 92584728 92299536 92018384 91740720 91465648 91192592 
3387.169 90920856 90650024 90379560 90109184 89839104 89570648 89305336 
3390.544 89045752 88793848 88551072 88317968 88094416 87879112 87670624 
3393.919 87467008 87265840 87064120 86858560 86646384 86425472 86196008 
3397.295 85960088 85722040 85486528 85257728 85038072 84827360 84622976 
3400.670 84420864 84217240 84009168 83794648 83573320 83345488 83111312 
3404.045 82871088 82624864 82372808 82114976 81852128 81584176 81311712 
3407.420 81034576 80752832 80466616 80176712 79884176 79590280 79296040 
3410.796 79001984 78707944 78413496 78117664 77820608 77522520 77223376 
3414.171 76923768 76622936 76320144 76013968 75703120 75386824 75065160 
3417.546 74738568 74407872 74073840 73737872 73400912 73064800 72731992 
3420.921 72404344 72083864 71771472 71465992 71165408 70866824 70567552 
3424.297 70265440 69960080 69651976 69342456 69032424 68722880 68413872 
3427.672 68105352 67797280 67490056 67184120 66880496 66579512 66281320 
3431.047 65985808 65692076 65399580 65107816 64816600 64525960 64236328 
3434.422 63947724 63660852 63376240 63094496 62816420 62542840 62273948 
3437.798 62009428 61748468 61489460 61230492 60969540 60705012 60435884 
3441.173 60162092 59884896 59606432 59329512 59056036 58786944 58521052 
3444.548 58255544 57986268 57709360 57422832 57127724 56827644 56528944 
3447.923 56237612 55958160 55691804 55436348 55187808 54940992 54692136 
3451.299 54438948 54181444 53920384 53657228 53392692 53127008 52860252 
3454.674 52592540 52324316 52056860 51791208 51527960 51267028 51007600 
3458.049 50748620 50489500 50229900 49969640 49708940 49447244 49183404 
3461.424 48916688 48646832 48374632 48102076 47831324 47564288 47301996 
3464.800 47043816 46787928 46532968 46277600 46022016 45767100 45514132 
3468.175 45264000 45016508 44771216 44527092 44283688 44041484 43801068 
3471.550 43563604 43328432 43094700 42859924 42622388 42380672 42134708 
3474.925 41886296 41637292 41389856 41145328 40903848 40665016 40428316 
3478.301 40193228 39959508 39726860 39494588 39261712 39027408 38791340 
3481.676 38554536 38319632 38089488 37866584 37651420 37442432 37236320 
3485.051 37028756 36816208 36597204 36372504 36144940 35917956 35694796 
3488.426 35477220 35265604 35059200 34856660 34656724 34458424 34260752 
3491.802 34063032 33864572 33664844 33463810 33262226 33061094 32861702 
3495.177 32664932 32471612 32281802 32096178 31915200 31739820 31571030 
3498.552 31408436 31250670 31094140 30934498 30766874 30587870 30396574 
3501.927 30195164 29988028 29781664 29582598 29395606 29223970 29068060 
3505.302 28925630 28792982 28664656 28534740 28397898 28250240 28090506 
3508.678 27920516 27744658 27568908 27398592 27237620 27086620 26943884 
3512.053 26806236 26670744 26535684 26401334 26269032 26140290 26015630 
3515.428 25893820 25772468 25648898 25520832 25388094 25251676 25113686 
3518.803 24976194 24840116 24704676 24568158 24427998 24282842 24131954 
3522.179 23976496 23818256 23660042 23503388 23349028 23196822 23045156 
3525.554 22892358 22736958 22578752 22418406 22257980 22099774 21946122 
3528.929 21798238 21655594 21516686 21379216 21241230 21101344 20959692 
3532.304 20817046 20674444 20532342 20389938 20245742 20098090 19945838 
3535.680 19789234 19630470 19472282 19317514 19168098 19023994 18884334 
3539.055 18747176 18611166 18475304 18339760 18204708 18070044 17934800 
3542.430 17797526 17656154 17509274 17356410 17198326 17037024 16875334 
3545.805 16715875 16561499 16414370 16276028 16147049 16027255 15914641 
3549.181 15805872 15696889 15583811 15463588 15335469 15200935 15063803 
3552.556 14928188 14798306 14676518 14563569 14458220 14358205 14261466 
3555.931 14165364 14068051 13967339 13861724 13750082 13631972 13508322 
3559.306 13381051 13252963 13126723 13004686 12887972 12776375 12668695 
3562.682 12563498 12458156 12350043 12235858 12111924 11975047 11824050 
3566.057 11661226 11492748 11328552 11180124 11056015 10960077 10890184 
3569.432 10839631 10799173 10759873 10715925 10663457 10602100 10533113 
3572.807 10458435 10380071 10299074 10216295 10132446 10048003 9963780 
3576.183 9880386 9797620 9714766 9630878 9544941 9456108 9364449 9270306 
3580.040 9174524 9077714 8980419 8883382 8787280 8693058 8601324 8511873 
3583.897 8423285 8332384 8235390 8128021 8008223 7876986 7739650 7604415 
3587.755 7481222 7378453 7299665 7244239 7206439 7179591 7155472 7127245 
3591.612 7090365 7041263 6978732 6902811 6815526 6720015 6620151 6520378 
3595.470 6424729 6335860 6255547 6183718 6119093 6059248 6001191 5942572 
3599.327 5881039 5815921 5747052 5675441 5602903 5530947 5460882 5392841 
3603.185 5326421 5261051 5195557 5129334 5061681 4991792 4918765 4841930 
3607.042 4760150 4673463 4583511 4492775 4404969 4322436 4246208 4174778 
3610.899 4105299 4034126 3958885 3879713 3799785 3724051 3657384 3602488 
3614.757 3558790 3522011 3485736 3443519 3390219 3323871 3245748 3160464 
3618.614 3074496 2994984 2927362 2874326 2835503 2807789 2786513 2767239 
3622.472 2745865 2720257 2690050 2656411 2621275 2585976 2549579 2507686 
3626.329 2453801 2379433 2277998 2148714 2000362 1850862 1721872 1630202 
3630.187 1580350 1565252 1570340 1580815 1585870 1579020 1559832 1531767 
3634.044 1500446 1470124 1443295 1419460 1396423 1371792 1344039 1313562 
3637.901 1281392 1248893 1216229 1182505 1145761 1104302 1057035 1004824 
3641.759 949631 894877 843184 796145 753226 712037 668728 619153 559828 
3646.098 488471 404954 311008 210385 108096 9078 -81435 -158285 -217172 
3650.438 -254328 -267673 -258169 -230121 -190578 -148249 -112839 -92401 
3654.295 -92931 -116218 -159776 -216245 -274991 -326347 -364586 -388620 
3658.153 -401763 -409112 -415633 -424670 -437612 -454890 -475842 -499936 
3662.010 -526313 -554276 -582569 -609801 -634682 -656386 -674945 -691420 
3665.868 -707729 -725757 -747622 -774810 -808248 -848528 -894988 -945344 
3669.725 -995100 -1037776 -1067921 -1082398 -1082861 -1075424 -1069673 
3673.100 -1076415 -1104343 -1157782 -1233384 -1318949 -1395647 -1446473 
3676.476 -1464174 -1453243 -1426493 -1397034 -1375466 -1365888 -1367044 
3679.851 -1373617 -1379694 -1380850 -1375565 -1365260 -1352444 -1340024 
3683.226 -1328661 -1318487 -1309039 -1300615 -1295264 -1296387 -1307454 
3686.601 -1330841 -1366812 -1411599 -1458923 -1501289 -1533450 -1553887 
3689.977 -1564320 -1568347 -1568843 -1567555 -1564022 -1556891 -1545534 
3693.352 -1529223 -1509016 -1485935 -1461598 -1437194 -1413911 -1392872 
3696.727 -1375301 -1363080 -1358126 -1362056 -1375829 -1399511 -1431943 
3700.102 -1470679 -1512219 -1552566 -1588057 -1615291 -1632853 -1640808 
3703.478 -1640610 -1635032 -1626878 -1618890 -1613047 -1610472 -1610934 
3706.853 -1614004 -1618593 -1624138 -1631170 -1640709 -1654573 -1673816 
3710.228 -1698669 -1727151 -1754972 -1776916 -1787674 -1784077 -1766027 
3713.603 -1736359 -1700122 -1663089 -1630608 -1606676 -1593768 -1592216 
3716.979 -1600898 -1617404 -1638300 -1660778 -1682695 -1702597 -1720452 
3720.354 -1736260 -1750451 -1762661 -1772363 -1778896 -1781635 -1780612 
3723.729 -1776587 -1770779 -1764311 -1758140 -1751936 -1744973 -1735138 
3727.104 -1720089 -1698834 -1671077 -1639224 -1606577 -1577987 -1558476 
3730.479 -1551939 -1559929 -1581322 -1612188 -1647476 -1682959 -1716558 
3733.855 -1749263 -1782889 -1818823 -1854753 -1885733 -1905098 -1907374 
3737.230 -1890945 -1858680 -1816282 -1769459 -1722300 -1676721 -1632490 
3740.605 -1589575 -1549165 -1515092 -1494553 -1495379 -1523610 -1578615 
3743.980 -1647938 -1711607 -1747316 -1743389 -1703158 -1640643 -1574026 
3747.356 -1517997 -1484350 -1477581 -1496171 -1532888 -1577690 -1620342 
3750.731 -1653616 -1674476 -1682266 -1676853 -1658435 -1627703 -1586901 
3754.106 -1540020 -1492143 -1448323 -1412424 -1386168 -1369059 -1359282 
3757.481 -1354459 -1353006 -1354558 -1359149 -1366020 -1373517 -1377745 
3760.857 -1375268 -1363972 -1344418 -1320205 -1296552 -1278746 -1269727 
3764.232 -1269462 -1274781 -1280761 -1282446 -1278085 -1269198 -1259915 
3767.607 -1255785 -1259947 -1273262 -1292852 -1313268 -1328826 -1335103 
3770.982 -1331436 -1320337 -1306264 -1293876 -1287170 -1287831 -1295561 
3774.358 -1308544 -1323706 -1338670 -1351585 -1362419 -1372527 -1383624 
3777.733 -1397364 -1413877 -1431447 -1446804 -1455621 -1454630 -1443534 
3781.108 -1424281 -1400865 -1377910 -1359282 -1346631 -1340223 -1338142 
3784.483 -1338406 -1339033 -1339033 -1338604 -1338042 -1337679 -1337217 
3787.859 -1336027 -1333352 -1328859 -1322979 -1316208 -1309204 -1302036 
3791.234 -1294240 -1285716 -1276797 -1269727 -1267447 -1273526 -1290606 
3794.609 -1318784 -1354624 -1391353 -1420615 -1434287 -1428739 -1405291 
3797.984 -1370248 -1332625 -1302432 -1287897 -1293876 -1319577 -1358324 
3801.360 -1398652 -1427022 -1433429 -1415199 -1377184 -1329289 -1283404 
3804.735 -1251126 -1240917 -1256545 -1294702 -1345475 -1394425 -1427385 
3808.110 -1436467 -1421407 -1388149 -1345442 -1300615 -1259452 -1223472 
3811.485 -1192214 -1164391 -1139771 -1120207 -1109764 -1112870 -1132997 
3814.861 -1169414 -1215906 -1261038 -1292059 -1300318 -1284362 -1250399 
3818.236 -1209628 -1175428 -1158905 -1167530 -1202689 -1257899 -1319511 
3821.611 -1371040 -1400436 -1403276 -1383426 -1349769 -1312607 -1280398 
3824.986 -1257899 -1245609 -1240289 -1236820 -1229651 -1215509 -1194560 
3828.362 -1169645 -1145588 -1127114 -1117464 -1117662 -1126123 -1139210 
3831.737 -1152362 -1161813 -1164589 -1160459 -1151140 -1139970 -1131543 
3835.112 -1131146 -1142878 -1168819 -1208438 -1257172 -1307949 -1351585 
3838.487 -1380520 -1391221 -1383459 -1361395 -1330313 -1296024 -1263483 
3841.863 -1235234 -1212667 -1195948 -1183920 -1174404 -1165316 -1154477 
3845.238 -1139705 -1120703 -1097634 -1071590 -1044750 -1018604 -994439 
3848.613 -972124 -951758 -933541 -919985 -915654 -927226 -962470 -1026702 
3852.470 -1119050 -1228098 -1332856 -1410608 -1446638 -1439505 -1398553 
3855.846 -1337811 -1270222 -1204407 -1145290 -1094957 -1053378 -1020322 
3859.221 -995430 -978074 -967462 -961875 -959428 -957908 -956453 -955329 
3863.078 -956056 -960354 -968190 -977612 -984257 -983695 -974306 -957643 
3866.936 -940054 -929805 -934963 -959924 -1002802 -1055229 -1102790 -1131807 
3870.793 -1135013 -1113928 -1077837 -1037412 -1002505 -977744 -962371 
3874.168 -950568 -935227 -910429 -874487 -830571 -784865 -745604 -719241 
3878.026 -710541 -720630 -746993 -783740 -821939 -852992 -870386 -871378 
3881.883 -857986 -836193 -814498 -801005 -801997 -819856 -851835 -889135 
3885.741 -919886 -933574 -924217 -893632 -848759 -799913 -756718 -726683 
3889.598 -713187 -715470 -728867 -745604 -758735 -762870 -756155 -739551 
3893.456 -715867 -688476 -659892 -632796 -608841 -590146 -578995 -577142 
3897.313 -585547 -603977 -630348 -661083 -691949 -719141 -741006 -758471 
3901.170 -773917 -790620 -811092 -834903 -859540 -879711 -890028 -886159 
3905.028 -867146 -834705 -793398 -748647 -704652 -664392 -628726 -597194 
3908.885 -568638 -542065 -517411 -494873 -475014 -458300 -444861 -434203 
3912.743 -426027 -420664 -418877 -422253 -432117 -449197 -472532 -499638 
3916.600 -526975 -551133 -569598 -582205 -589749 -593985 -596069 -596367 
3920.458 -593819 -587532 -576811 -562516 -546301 -530847 -518139 -509038 
3924.315 -502253 -495998 -487459 -475511 -460153 -443967 -430065 -421525 
3928.172 -420035 -425398 -436056 -449263 -462139 -473260 -481568 -487426 
3932.030 -491100 -493052 -493152 -491100 -486896 -480839 -473723 -466574 
3935.887 -459690 -452971 -445159 -435097 -421690 -405238 -386833 -369221 
3939.745 -355316 -347106 -345649 -349688 -357038 -363924 -366738 -363493 
3943.602 -353197 -337306 -318169 -298931 -282541 -271051 -266017 -267210 
3947.459 -273799 -283832 -295090 -305189 -312176 -314957 -313401 -308103 
3951.317 -300057 -290554 -280918 -272077 -264792 -258732 -253865 -249063 
3955.174 -243831 -237141 -228664 -218265 -206773 -195082 -184583 -176469 
3959.032 -171269 -169215 -169315 -170606 -171600 -171236 -169016 -164909 
3962.889 -159908 -154774 -150833 -149077 -150071 -153747 -159411 -165936 
3966.747 -172262 -176932 -178820 -177297 -172262 -164081 -153946 -142519 
3970.604 -131224 -120988 -112343 -105618 -101212 -98728 -98032 -98628 -99854 
3974.944 -100848 -100947 -99655 -97005 -93427 -89817 -86802 -85113 -84682 
3979.283 -84847 -84483 -81932 -76466 -67389 -55396 -41813 -28461 -17395 
3983.623 -9741 -6461 -6991 -10669 -16003 -21536 -26241 -29355 -31012 -31376 
3988.445 -30647 -29289 -27334 -24916 -21635 -17693 -13054 -7819 -2319 3445 
3993.266 9377 15341 21703 28463 35222 41750 47616 52454 56099 58717 60606 
3998.570 62362 63953 65643 67167 68095 
##END=
