
##TITLE=Z316_3_a
##JCAMP-DX=5.01  $$ Nicolet v. 1
##DATATYPE=INFRARED SPECTRUM
##ORIGIN=UniL
##OWNER=Nicolet
##LONGDATE=2011/09/09
##TIME=13:11:54
##SPECTROMETER/DATA SYSTEM=Nicolet iS5
##DATA PROCESSING=
Ratio against background
%Transmittance->Absorbance
Truncated
ElementMultiply or ElementDivide
##COMMENTS=
Number of sample scans: 32
Collection length: 51.18 sec
Sample gain: 2.0
Background collected on: Ven Sep 09 13:04:26 2011 (GMT+02:00);
Number of background scans: 32
Background gain: 2.0
Sample spacing:  1.000
Number of scan points: 12415
Resolution points: 8192
Number of FFT points: 65536
Apodization: N-B fort;
Phase correction: Mertz;
Laser frequency: 15798.0 cm-1
Number of rejected sample scans: 0
Number of rejected background scans: 0
Bench serial number: ASB1000141;
##RESOLUTION=4.000
##XUNITS=1/CM
##YUNITS=ABSORBANCE
##FIRSTX=649.893372
##LASTX=4000.122314
##FIRSTY=0.102850
##MAXX=4000.122314
##MINX=649.893372
##MAXY=0.258362
##MINY=0.001610
##XFACTOR=1.000000
##YFACTOR=1.000000E-009
##NPOINTS=6950
##DELTAX=0.482117
##ZPD=6100
##XYDATA=(X++(Y..Y))
649.893 102849672 102957888 103151080 103421632 103739552 104066920 
652.786 104372304 104648376 104908040 105178584 105481664 105821688 
655.679 106184312 106545720 106885216 107196272 107489888 107782568 
658.571 108086528 108399800 108703088 108970216 109181064 109327688 
661.464 109418472 109471760 109506128 109533368 109554816 109561304 
664.357 109534952 109451808 109274632 108954592 108435480 107672888 
667.250 106673200 105529312 104407904 103468384 102791864 102355208 
670.142 102070648 101827376 101527720 101109488 100547000 99854944 99070912 
673.517 98242384 97402792 96565224 95726712 94880872 94028360 93182408 
676.892 92363384 91588456 90863504 90183400 89534000 88904232 88292840 
680.267 87708696 87165792 86674016 86232864 85830512 85451560 85082768 
683.642 84721752 84377448 84065384 83798584 83581432 83406752 83259712 
687.016 83126112 82997016 82872000 82756808 82656880 82571640 82494144 
690.391 82411576 82313368 82195440 82062536 81924312 81793048 81675784 
693.766 81573216 81481720 81397504 81319176 81250056 81194576 81153704 
697.141 81121640 81085448 81029232 80939080 80810264 80647736 80465136 
700.516 80277864 80097376 79928704 79770408 79617184 79464944 79313184 
703.890 79164016 79020192 78882728 78748208 78610408 78463864 78304440 
707.265 78132416 77950792 77762536 77568544 77367680 77157280 76937368 
710.640 76714208 76500256 76312600 76168216 76079304 76046496 76057232 
714.015 76082576 76084744 76018984 75841080 75518880 75035928 74398040 
717.390 73633440 72793192 71945104 71159584 70508688 70051216 69823552 
720.765 69836464 70067800 70461776 70925376 71342848 71591752 71555056 
724.139 71157368 70376192 69255400 67891104 66414928 64964264 63642324 
727.514 62509700 61577496 60820676 60194672 59654972 59172324 58730652 
730.889 58325500 57955900 57618508 57306368 57012324 56731916 56465544 
734.264 56216680 55988724 55780148 55584616 55392376 55195560 54992244 
737.639 54787672 54590416 54409092 54246468 54098608 53956588 53811268 
741.013 53657752 53498028 53338256 53185052 53041456 52905200 52769776 
744.388 52629004 52480616 52327644 52177152 52036388 51908292 51791468 
747.763 51680872 51571460 51461028 51351748 51247040 51149296 51056488 
751.138 50961432 50855364 50732420 50592944 50445248 50301848 50175300 
754.513 50073180 49995996 49938564 49893364 49855344 49822604 49795588 
757.888 49775368 49759988 49744716 49725136 49699204 49671192 49650836 
761.262 49651428 49683120 49751256 49854860 49989044 50150080 50339604 
764.637 50566028 50845124 51196936 51640900 52195688 52874960 53682684 
768.012 54608752 55623108 56675740 57697968 58625440 59419280 60091312 
771.387 60714348 61414264 62338700 63592300 65189048 67006356 68803232 
774.762 70238840 70958736 70713128 69405088 67141000 64181544 60897368 
778.136 57661488 54760460 52382816 50588848 49341584 48544000 48082756 
781.511 47859956 47798292 47849780 47984756 48183372 48432452 48725264 
784.886 49060860 49444312 49884480 50389948 50965828 51614332 52337400 
788.261 53139928 54033464 55035796 56166372 57445788 58890676 60513464 
791.636 62327072 64346016 66587276 69068432 71799384 74773360 77955744 
795.010 81283304 84658936 87951536 91016376 93694072 95827224 97292048 
798.385 98007760 97963128 97222408 95926552 94272576 92467912 90718408 
801.760 89180488 87934528 86981928 86243688 85588368 84851968 83891552 
805.135 82618008 81016368 79152728 77154704 75182264 73371368 71809432 
808.510 70512200 69427904 68455256 67475808 66395396 65157012 63754320 
811.885 62220564 60613836 58996140 57415984 55909088 54495404 53184792 
815.259 51983880 50897572 49929268 49079368 48343816 47714556 47180720 
818.634 46733240 46365668 46075400 45862428 45727744 45671720 45693728 
822.009 45793240 45971368 46232156 46582540 47030672 47584436 48248088 
825.384 49020240 49891244 50839832 51831636 52821224 53747924 54547696 
828.759 55161472 55543608 55677040 55578256 55299376 54915796 54519748 
832.133 54207536 54057556 54127888 54442668 54987128 55703448 56493432 
835.508 57236468 57792736 58033796 57871012 57265540 56243192 54883200 
838.883 53308284 51650568 50028300 48537408 47233836 46140100 45252784 
842.258 44553232 44015376 43611336 43316496 43107724 42964128 42869688 
845.633 42812824 42787008 42790700 42824380 42888340 42981100 43098612 
849.008 43236440 43392024 43565764 43761012 43982780 44235184 44519308 
852.382 44833260 45172628 45532864 45911704 46308824 46726268 47167344 
855.757 47635976 48136576 48676408 49265792 49917968 50649604 51478864 
859.132 52421692 53494284 54711864 56088588 57639052 59373656 61292072 
862.507 63373512 65569132 67798984 69945640 71875424 73448976 74535344 
865.882 75042976 74924888 74189592 72898440 71160328 69118240 66916980 
869.256 64700484 62588416 60662564 58975380 57547912 56378424 55451064 
872.631 54742572 54229160 53885196 53687260 53613888 53644628 53763040 
876.006 53957788 54223416 54559792 54971000 55462060 56035356 56689028 
879.381 57414360 58197992 59020772 59860480 60694952 61502932 62267600 
882.756 62979988 63638948 64252032 64830832 65388948 65936172 66476204 
886.131 67007908 67528720 68039352 68548720 69073600 69635720 70256520 
889.505 70949752 71716720 72545720 73416056 74300912 75172488 76007816 
892.880 76785464 77486040 78092312 78585792 78950048 79173160 79246648 
896.255 79168232 78940344 78570144 78069432 77456224 76756800 76003160 
899.630 75231792 74479688 73776320 73140824 72580808 72093488 71670320 
903.005 71301848 70982064 70709072 70484648 70311640 70192728 70129280 
906.379 70122704 70174768 70289984 70473184 70730168 71064240 71476184 
909.754 71964456 72527200 73164192 73878432 74675176 75560712 76540096 
913.129 77615968 78789760 80063712 81444416 82944432 84583320 86382408 
916.504 88363576 90543480 92929688 95517928 98287880 101202968 104199368 
919.879 107186432 110051192 112652680 114851640 116531912 117620560 
922.771 118117664 118103576 117743904 117254112 116887032 116900216 
925.664 117499072 118827832 120936616 123772744 127175912 130887360 
928.557 134598992 137947712 140576128 142185680 142535712 141490816 
931.450 139026784 135229968 130289184 124469680 118108712 111551208 
934.342 105122408 99112624 93726800 89095544 85282368 82291424 80093784 
937.717 78643488 77892392 77788304 78268968 79255912 80632936 82244528 
941.092 83913616 85437320 86627136 87341104 87491776 87069704 86135720 
944.467 84813136 83255168 81617640 80045024 78639072 77460376 76531128 
947.841 75842968 75371448 75085248 74956936 74963552 75086344 75309928 
951.216 75618288 75995656 76428192 76904424 77417928 77965896 78547824 
954.591 79163024 79808672 80479976 81172560 81882904 82610544 83356928 
957.966 84123496 84909216 85709848 86518104 87326808 88131184 88931184 
961.341 89730680 90534832 91347792 92169896 92998520 93829848 94661448 
964.716 95494560 96333864 97184448 98049664 98928832 99817256 100710120 
968.090 101603920 102500224 103405024 104326880 105273200 106248680 
970.983 107254928 108292256 109362800 110472576 111630048 112844392 
973.876 114122040 115464704 116869296 118330560 119844704 121410680 
976.768 123029728 124702488 126424808 128185976 129968704 131751464 
979.661 133513224 135236608 136905456 138504528 140015696 141415744 
982.554 142681952 143794640 144744304 145534864 146182304 146710992 
985.447 147145200 147507376 147815632 148085536 148334288 148582352 
988.339 148850224 149157616 149516784 149931824 150398848 150910768 
991.232 151461680 152049184 152674544 153339152 154041104 154773760 
994.125 155526368 156288048 157052320 157818160 158588400 159364912 
997.017 160144992 160918304 161670608 162387072 163059248 163687200 
999.910 164279296 164847056 165400096 165944144 166481440 167013584 
1002.803 167546928 168093520 168668640 169287632 169959568 170685824 
1005.695 171462272 172283808 173149504 174065120 175041216 176088544 
1008.588 177213088 178412352 179676656 180992656 182349728 183740080 
1011.481 185158400 186598928 188050576 189496912 190920816 192309360 
1014.374 193661216 194988256 196312992 197660656 199052240 200501248 
1017.266 202012800 203589056 205232480 206948080 208740960 210610288 
1020.159 212547184 214532832 216545328 218568896 220600688 222653568 
1023.052 224750160 226915360 229165200 231500752 233909664 236372096 
1025.945 238867424 241375168 243874992 246338960 248723664 250973520 
1028.838 253022736 254803984 256263520 257360816 258067168 258362384 
1031.731 258226992 257643584 256605184 255122512 253232416 250990720 
1034.624 248468672 245734544 242840016 239821024 236698160 233484992 
1037.517 230199248 226864736 223511200 220172384 216880672 213668592 
1040.410 210573408 207635328 204898240 202402608 200169376 198191728 
1043.303 196426112 194802480 193230176 191621152 189913648 188077152 
1046.196 186118992 184074832 181999680 179953360 177989424 176155648 
1049.089 174486704 173002832 171709888 170597232 169638896 168796672 
1051.982 168029952 167301488 166582560 165857440 165118304 164360320 
1054.875 163577040 162757952 161889264 160959536 159960112 158887232 
1057.768 157739056 156511888 155197904 153786256 152266880 150636416 
1060.661 148902592 147085312 145211536 143310592 141410656 139533408 
1063.554 137695904 135913376 134198680 132564056 131017896 129560800 
1066.448 128184808 126872984 125604928 124360248 123124752 121893072 
1069.341 120667888 119457928 118273656 117126656 116027872 114987720 
1072.234 114016608 113123280 112312640 111584416 110931712 110342816 
1075.127 109802384 109297000 108815544 108348384 107887216 107420640 
1078.020 106933408 106409464 105833984 105200584 104514064 103791640 
1080.913 103060160 102349296 101689376 101106016 100619096 100246512 
1083.806 100003792 99904904 99963336 100188880 100587008 101159384 101904128 
1087.181 102818600 103898496 105136552 106517392 108010672 109571200 
1090.074 111134992 112625752 113972408 115113248 116010640 116657072 
1092.967 117073592 117305816 117412000 117461896 117523696 117656744 
1095.860 117912184 118323992 118909344 119668376 120585872 121633080 
1098.753 122767832 123940296 125088576 126138256 127011952 127627808 
1101.646 127911776 127814200 127315016 126431968 125214232 123737408 
1104.540 122088728 120349008 118593840 116882392 115256064 113743512 
1107.433 112358168 111100368 109957192 108906176 107917848 106958880 
1110.326 105999664 105015336 103986512 102900600 101748304 100523856 
1113.219 99225744 97858848 96435920 94976024 93504872 92049464 90632384 
1116.594 89272160 87981032 86765328 85629408 84575952 83606664 82721496 
1119.969 81917344 81187096 80519856 79902896 79322728 78764936 78214928 
1123.344 77654992 77062104 76411120 75673976 74826424 73854624 72757656 
1126.720 71550176 70258784 68919600 67571184 66247320 64977116 63779728 
1130.095 62664656 61633476 60680740 59796172 58966424 58178140 57420072 
1133.470 56684800 55970180 55279244 54618856 53997668 53424468 52907220 
1136.845 52451976 52064216 51748392 51508668 51348244 51268968 51270308 
1140.221 51349700 51503072 51726332 52015960 52369620 52785752 53261984 
1143.596 53794016 54375480 54997624 55651616 56329152 57023544 57729568 
1146.971 58442124 59155088 59861772 60554752 61228164 61879004 62507980 
1150.346 63118592 63715220 64302176 64882152 65456628 66026656 66593720 
1153.722 67159792 67726760 68295008 68862448 69424056 69973240 70502568 
1157.097 71004768 71473136 71900096 72275536 72587664 72822024 72963696 
1160.472 73000192 72922264 72724200 72402776 71955896 71381552 70678616 
1163.847 69847632 68893664 67825672 66658272 65408320 64093136 62730080 
1167.223 61334388 59920040 58501184 57090992 55702880 54349832 53042016 
1170.598 51787472 50591828 49458792 48391336 47392784 46466880 45617432 
1173.973 44847772 44159580 43552616 43025216 42575352 42201272 41902496 
1177.348 41680184 41536544 41474020 41495092 41602616 41799824 42091264 
1180.724 42483300 42982708 43596316 44330068 45187888 46172676 47286332 
1184.099 48530104 49904028 51404448 53021688 54736140 56516980 58324856 
1187.474 60109156 61815164 63388624 64774132 65922708 66795236 67362696 
1190.849 67613920 67555512 67213280 66626788 65845928 64925900 63916668 
1194.225 62862480 61798356 60746356 59718916 58718740 57742172 56781536 
1197.600 55828824 54879592 53933888 52997576 52081404 51199248 50364984 
1200.975 49589324 48879604 48238316 47664264 47153312 46699704 46296144 
1204.350 45933064 45599104 45280220 44960428 44624864 44260352 43858244 
1207.726 43415388 42933728 42419540 41881480 41330560 40778776 40238484 
1211.101 39723448 39247644 38823584 38463332 38175692 37966488 37839468 
1214.476 37796164 37837592 37964460 38177172 38475424 38857720 39321344 
1217.851 39862780 40478868 41168168 41930560 42767044 43678416 44664596 
1221.227 45723952 46854764 48056068 49329632 50679468 52111360 53630272 
1224.602 55238224 56932876 58706680 60547020 62435476 64349168 66258476 
1227.977 68125736 69909712 71564824 73044840 74312080 75335936 76097856 
1231.352 76592544 76828096 76828288 76630800 76292336 75884008 75483120 
1234.728 75175880 75042784 75152560 75564936 76323416 77457848 78987680 
1238.103 80920752 83253088 85964896 89020616 92364040 95917416 99593320 
1241.478 103290472 106900688 110321712 113448392 116181072 118436400 
1244.371 120144208 121259912 121767664 121678768 121028768 119868976 
1247.264 118267600 116300664 114048192 111595808 109018000 106371376 
1250.157 103687088 100962936 98167984 95250072 92157272 88849592 85316200 
1253.532 81580736 77702424 73768072 69871880 66113228 62577704 59324616 
1256.908 56390760 53785128 51494940 49491356 47737152 46194272 44824592 
1260.283 43596644 42486000 41473364 40545972 39694728 38912112 38191756 
1263.658 37527172 36912116 36341956 35813164 35324548 34876048 34468112 
1267.033 34100588 33771984 33480238 33222846 32998350 32806490 32648038 
1270.409 32523748 32433764 32376606 32350228 32352120 32380964 32436908 
1273.784 32521856 32638036 32787658 32971506 33188868 33436898 33710676 
1277.159 34002720 34301268 34590448 34852276 35066456 35215696 35289036 
1280.534 35283540 35204480 35062788 34872564 34646208 34393004 34118728 
1283.910 33826496 33519682 33202674 32882392 32566994 32265920 31987380 
1287.285 31738822 31526420 31354974 31228240 31148208 31114462 31123078 
1290.660 31167076 31238494 31328938 31432584 31546872 31672738 31812650 
1294.035 31970262 32148768 32350834 32579352 32837972 33131004 33463310 
1297.411 33839104 34261220 34730764 35248612 35814856 36430948 37097864 
1300.786 37814636 38575792 39369336 40177748 40977868 41744888 42457504 
1304.161 43097848 43654968 44125324 44512296 44825472 45079952 45295956 
1307.536 45495112 45698148 45922124 46176616 46463596 46777556 47109252 
1310.912 47447148 47780872 48102188 48404148 48679928 48922548 49123740 
1314.287 49275736 49372360 49409632 49385796 49301276 49156988 48955256 
1317.662 48699128 48394776 48050964 47679276 47293684 46906924 46529060 
1321.037 46166408 45821812 45496696 45193256 44915968 44672568 44473164 
1324.413 44327720 44245420 44233756 44298072 44443468 44673668 44989864 
1327.788 45388644 45858892 46381668 46929144 47470544 47976948 48423856 
1331.163 48796960 49091392 49310480 49463136 49560988 49617108 49643516 
1334.538 49651248 49650352 49648236 49650576 49660792 49681188 49714732 
1337.914 49766936 49845828 49962944 50130300 50356984 50647748 51000964 
1341.289 51408812 51858520 52333964 52816356 53283072 53711032 54076768 
1344.664 54359744 54546984 54634076 54625320 54530756 54362376 54130248 
1348.039 53839324 53489748 53078708 52602936 52062276 51461628 50810596 
1351.415 50124644 49422256 48722520 48045780 47410672 46833284 46327732 
1354.790 45903708 45566092 45315084 45146780 45054732 45031908 45072564 
1358.165 45171452 45322880 45519764 45751528 46005920 46272148 46543328 
1361.540 46820480 47112984 47437468 47812164 48251308 48762664 49344928 
1364.916 49990272 50684796 51410936 52146928 52863584 53527488 54100264 
1368.291 54541084 54814440 54891168 54751252 54386032 53796228 52993988 
1371.666 52000124 50849596 49590664 48280084 46985476 45772068 44690084 
1375.041 43769920 43016292 42415012 41942088 41576140 41306000 41134328 
1378.417 41077176 41161356 41422184 41896000 42618732 43618076 44901524 
1381.792 46443096 48167708 49956964 51642804 53032620 53947208 54224428 
1385.167 53756252 52509072 50544028 48024128 45184868 42305720 39625100 
1388.542 37297480 35387988 33881696 32719664 31825770 31130696 30577418 
1391.917 30122214 29736244 29400428 29105438 28850766 28642782 28490336 
1395.293 28400124 28372890 28401930 28476432 28582512 28707344 28841204 
1398.668 28977730 29114402 29251862 29391990 29535744 29681816 29825952 
1402.043 29962430 30085174 30190192 30277614 30352332 30423048 30498574 
1405.418 30585488 30685542 30796610 30914502 31036304 31162378 31296500 
1408.794 31444162 31610764 31799924 32012456 32247684 32505106 32785870 
1412.169 33092562 33428420 33795512 34193464 34619512 35070300 35543632 
1415.544 36039372 36560328 37110708 37694928 38316736 38979308 39684672 
1418.919 40431516 41214908 42022748 42835276 43627564 44374360 45056832 
1422.295 45665280 46207392 46708816 47212372 47764888 48405708 49156876 
1425.670 50019456 50981476 52025972 53140188 54313484 55533332 56781572 
1429.045 58028980 59239008 60378388 61424720 62374768 63242836 64056844 
1432.420 64847684 65640768 66454888 67302648 68197960 69162760 70232328 
1435.796 71451936 72869752 74510920 76369320 78408808 80573704 82799592 
1439.171 85012608 87134088 89064624 90689832 91903184 92607320 92735456 
1442.546 92259456 91184256 89545200 87399416 84828360 81926512 78790200 
1445.921 75524048 72228264 69002984 65956920 63190824 60783132 58771616 
1449.297 57143408 55846380 54810492 53978124 53317724 52829232 52532704 
1452.672 52450556 52588536 52930052 53434844 54050576 54728400 55424748 
1456.047 56115016 56795848 57484212 58202616 58963464 59768496 60607744 
1459.422 61468500 62339388 63212292 64078540 64923556 65726376 66451840 
1462.798 67050824 67471088 67666080 67615320 67336424 66884896 66333584 
1466.173 65744804 65161020 64599580 64062028 63543432 63036144 62526808 
1469.548 61991732 61392776 60681196 59808952 58755040 57547572 56273744 
1472.923 55049900 53981760 53127572 52491012 52043004 51749060 51589780 
1476.299 51566756 51696248 51994148 52465884 53099864 53873156 54758208 
1479.674 55734260 56793956 57942420 59194540 60566712 62072536 63718752 
1483.049 65509336 67450808 69556376 71845792 74335552 77028440 79894456 
1486.424 82852840 85777096 88484288 90752304 92358304 93091704 92806544 
1489.800 91464016 89152504 86078400 82502600 78690184 74838312 71055968 
1493.175 67389320 63834488 60374196 57012816 53786480 50770888 48067284 
1496.550 45767136 43925292 42545456 41594484 41019492 40768548 40802652 
1499.925 41092076 41612280 42339212 43242584 44284936 45425612 46609796 
1503.301 47771512 48829696 49666848 50134464 50061172 49289616 47758532 
1506.676 45566752 42960612 40216892 37532408 34987292 32577422 30270508 
1510.051 28043922 25896212 23853436 21955148 20234460 18712650 17389518 
1513.426 16248440 15264009 14408894 13658230 12988913 12382736 11828510 
1516.802 11323042 10872449 10486302 10170774 9921844 9723373 9548226 9368919 
1520.659 9167146 8946526 8732542 8559586 8450650 8404941 8401089 8408623 
1524.516 8401901 8367039 8307019 8237890 8180419 8148412 8142639 8154017 
1528.374 8170493 8185348 8199564 8219689 8251802 8295097 8339646 8368897 
1532.231 8365891 8324177 8254098 8182040 8135988 8133793 8174105 8241637 
1536.089 8314584 8373964 8408218 8413217 8390719 8345084 8280609 8200071 
1539.946 8107427 8012880 7932020 7879989 7864300 7879752 7910458 7936508 
1543.803 7942717 7924833 7891191 7858160 7842066 7850365 7878775 7914575 
1547.661 7943021 7954798 7949163 7934450 7922740 7923483 7937250 7956419 
1551.518 7968466 7963437 7938533 7899829 7859610 7831000 7822735 7834577 
1555.376 7859003 7883970 7897096 7886299 7839940 7748791 7611327 7443165 
1559.233 7276989 7151766 7092150 7100065 7160861 7252696 7353009 7441952 
1563.091 7506471 7542746 7556266 7559773 7567493 7588871 7624276 7665619 
1566.948 7701200 7721234 7721673 7705922 7683494 7666665 7665619 7685281 
1570.805 7726597 7788291 7868889 7966407 8076911 8193081 8303506 8394942 
1574.663 8457846 8491362 8508325 8532248 8589190 8692821 8842429 9026222 
1578.520 9231483 9449878 9680172 9926522 10195807 10493397 10820777 11175433 
1582.378 11552733 11947051 12352020 12759211 13156333 13525105 13844552 
1585.753 14095980 14266739 14355910 14374952 14347725 14304371 14277490 
1589.128 14299782 14397797 14592557 14898423 15319954 15849238 16461205 
1592.503 17115254 17753756 18309864 18723306 18943550 18943896 18724584 
1595.879 18312420 17754516 17105708 16424522 15760448 15151422 14626173 
1599.254 14201960 13887108 13682303 13581783 13576483 13656692 13815818 
1602.629 14050324 14358342 14737493 15180553 15674353 16201319 16738120 
1606.004 17259242 17738812 18148390 18460680 18652464 18705142 18610336 
1609.380 18370280 18000240 17526386 16983374 16412133 15850063 15326132 
1612.755 14857790 14447737 14088074 13764274 13460676 13164871 12872306 
1616.130 12589829 12334363 12127358 11985538 11915343 11911325 11960265 
1619.505 12043275 12141191 12237391 12319261 12381816 12428764 12472579 
1622.881 12528336 12609169 12720587 12859643 13017762 13185091 13355082 
1626.256 13523976 13689825 13851906 14008265 14156532 14295673 14426809 
1629.631 14554009 14682241 14815413 14954045 15093750 15225573 15336944 
1633.006 15414422 15444463 15417753 15331864 15197024 15035366 14876855 
1636.382 14749148 14666373 14627099 14618566 14623672 14624665 14607806 
1639.757 14566241 14500459 14418313 14330876 14249207 14178886 14118057 
1643.132 14058230 13986330 13888887 13754528 13578603 13364785 13127987 
1646.507 12890738 12679544 12518002 12418978 12384237 12405068 12466100 
1649.883 12545660 12615888 12644782 12594468 12432856 12152640 11795756 
1653.258 11449337 11196342 11072126 11057069 11107272 11179683 11245338 
1656.633 11289782 11308656 11305153 11285566 11255947 11219326 11175875 
1660.008 11122501 11055675 10972072 10870614 10753760 10627973 10503138 
1663.384 10390285 10298938 10234342 10195807 10177455 10168840 10157952 
1666.759 10131734 10079811 9996837 9884149 9751023 9611772 9483336 9378906 
1670.616 9305679 9263739 9247357 9246578 9248135 9237947 9201496 9128671 
1674.474 9018306 8882604 8744814 8629241 8552185 8514779 8505824 8508493 
1678.331 8507784 8496059 8474706 8452170 8438521 8439231 8449738 8454974 
1682.188 8431731 8356838 8217291 8023107 7808802 7622826 7500774 7449232 
1686.046 7451457 7481289 7516855 7542612 7551445 7542612 7518979 7486042 
1689.903 7449839 7417684 7396518 7391563 7404505 7431739 7463861 7485672 
1693.761 7480649 7435446 7347583 7231268 7116197 7035235 7005905 7023819 
1697.618 7066217 7103298 7104510 7049177 6935299 6787389 6649119 6559968 
1701.476 6536657 6568580 6632061 6701138 6755686 6783821 6781196 6751917 
1705.333 6707160 6661130 6625433 6606223 6603297 6612380 6627755 6644644 
1709.190 6661332 6678324 6698075 6723515 6756157 6795399 6838886 6882915 
1713.048 6924357 6960886 6991594 7015636 7031530 7035841 7024291 6993884 
1716.905 6946611 6891937 6844776 6821214 6830168 6871470 6936645 7013414 
1720.763 7089489 7155943 7208696 7248148 7278505 7304787 7332048 7363119 
1724.620 7398573 7437570 7478525 7519956 7559840 7595479 7623804 7642081 
1728.478 7649635 7648488 7644104 7641912 7645521 7652501 7653884 7634224 
1732.335 7575114 7463491 7299463 7104847 6916546 6773658 6696427 6680982 
1736.192 6707060 6749763 6787860 6805900 6796947 6762518 6711703 6657295 
1740.050 6611303 6581632 6569555 6572482 6585366 6603902 6625198 6647538 
1743.907 6670989 6695383 6721092 6747542 6773624 6797452 6816906 6830202 
1747.765 6835520 6832288 6820104 6798967 6769518 6733105 6692826 6653392 
1751.622 6621161 6601514 6596803 6605550 6622136 6637747 6642423 6628495 
1755.479 6592296 6536994 6471677 6409093 6359900 6328834 6312898 6303014 
1759.337 6288894 6261026 6214337 6149808 6073998 5996757 5927759 5874523 
1763.194 5839864 5823006 5820353 5827204 5837883 5846648 5848092 5839193 
1767.052 5820420 5795941 5772671 5757360 5752390 5754976 5757158 5749134 
1770.909 5722677 5675878 5615255 5554842 5510242 5490846 5498094 5525813 
1774.767 5564641 5606796 5648284 5688333 5728217 5768742 5808164 5842685 
1778.624 5867907 5880837 5882147 5876269 5869821 5868679 5875262 5887722 
1782.481 5900888 5909587 5910091 5902433 5889872 5877882 5871231 5872945 
1786.339 5883188 5901056 5924299 5951339 5979893 6007071 6028237 6037811 
1790.196 6029883 6000721 5950668 5886043 5817398 5756520 5712034 5687057 
1794.054 5678899 5681350 5688265 5694677 5697430 5695148 5687124 5672689 
1797.911 5651339 5623042 5588907 5551116 5513195 5478901 5451185 5431356 
1801.769 5418943 5413172 5412468 5415856 5422767 5432598 5444475 5457426 
1805.626 5470143 5482089 5493027 5503698 5514839 5526652 5538498 5548969 
1809.483 5556990 5561889 5564339 5566219 5569407 5575113 5583638 5593908 
1813.341 5604648 5615255 5626432 5639960 5658355 5683532 5715996 5754338 
1817.198 5795840 5836942 5874691 5907337 5934511 5957251 5977138 5995716 
1821.056 6014126 6032436 6049437 6062709 6069529 6067076 6054880 6035493 
1824.913 6014159 5998269 5993633 6003174 6024238 6050747 6073662 6084952 
1828.771 6080584 6061835 6036367 6014361 6005727 6015369 6042549 6082197 
1832.628 6127998 6175283 6221765 6267817 6315150 6365448 6419047 6475074 
1836.485 6531847 6588595 6646326 6707565 6775408 6852485 6939877 7035976 
1840.343 7137283 7239118 7336732 7426042 7504516 7572315 7633111 7693713 
1844.200 7762486 7847126 7950951 8071982 8202704 8333803 8455345 8559316 
1848.058 8641882 8702726 8744003 8768515 8777914 8771524 8747587 8704145 
1851.915 8641307 8562087 8471867 8377106 8282162 8189232 8097064 8003329 
1855.772 7905937 7805057 7703021 7603403 7508797 7420312 7336564 7255324 
1859.630 7174571 7094743 7017286 6945062 6879751 6821181 6767297 6715674 
1863.487 6664798 6615778 6571506 6535211 6508437 6489972 6475208 6458426 
1867.345 6435659 6406302 6374526 6347325 6331019 6328531 6338180 6354789 
1871.202 6371870 6385320 6393490 6397290 6398568 6398938 6398433 6395642 
1875.060 6388447 6375837 6357849 6335658 6310511 6283045 6252858 6218673 
1878.917 6179148 6134853 6086868 6037677 5989400 5943009 5898503 5855212 
1882.774 5812966 5772805 5737517 5709751 5691589 5682693 5680611 5680779 
1886.632 5678429 5670540 5655401 5633951 5608508 5582295 5559070 5542022 
1890.489 5534571 5538901 5555748 5583738 5619585 5657986 5693469 5721804 
1894.347 5742184 5756084 5767601 5780461 5796780 5815887 5835129 5851618 
1898.204 5864111 5874053 5884632 5899478 5920436 5946569 5975089 6002031 
1902.062 6024843 6043826 6061297 6080147 6102492 6128166 6154211 6176761 
1905.919 6192524 6199683 6198977 6192490 6182575 6171384 6159890 6148867 
1909.776 6139222 6132736 6130081 6131694 6136802 6142515 6146515 6147388 
1913.634 6145204 6141709 6138382 6134517 6126956 6110625 6080685 6035493 
1917.491 5979086 5920336 5870191 5836573 5821529 5819816 5822469 5819749 
1921.349 5805645 5780595 5750443 5723516 5707334 5704783 5714048 5730567 
1925.206 5749201 5767063 5783483 5798694 5811790 5820253 5819782 5806854 
1929.063 5781300 5746985 5711430 5683297 5669265 5670775 5684472 5703373 
1932.921 5720998 5732279 5736241 5734126 5727713 5718548 5706730 5692126 
1936.778 5676012 5660940 5650634 5648486 5654562 5666042 5677859 5684405 
1940.636 5682995 5675374 5666277 5662249 5667183 5681417 5701022 5720998 
1944.493 5737550 5749805 5761187 5776096 5797250 5824618 5854607 5882080 
1948.351 5903172 5917178 5924769 5930614 5937567 5946368 5955504 5962794 
1952.208 5964843 5960779 5950970 5935753 5915331 5889066 5855212 5813469 
1956.065 5767164 5720897 5681753 5656240 5645465 5647613 5656777 5666545 
1959.923 5673192 5678094 5684103 5696725 5718615 5747623 5779386 5808298 
1963.780 5829890 5842719 5847891 5846917 5840805 5828950 5809842 5783718 
1967.638 5754472 5727847 5709214 5702298 5703842 5707166 5704011 5689138 
1971.495 5663893 5635831 5616799 5616531 5639523 5681283 5732749 5784087 
1975.353 5830730 5874523 5924064 5988661 6072385 6171418 6273968 6365212 
1979.210 6432901 6470533 6479143 6464211 6433742 6394398 6351662 6308863 
1983.067 6268624 6232992 6204052 6182038 6165603 6151858 6138147 6123259 
1986.925 6110053 6103366 6109112 6131358 6169939 6219581 6274002 6326144 
1990.782 6371870 6412085 6449447 6487282 6527307 6568243 6606459 6639261 
1994.640 6664697 6683169 6697167 6709180 6718972 6725971 6728562 6725063 
1998.497 6716549 6705546 6694172 6684145 6673479 6657328 6630480 6589470 
2002.354 6534538 6470230 6404688 6344131 6294240 6257396 6232925 6219480 
2006.212 6217497 6226908 6247883 6278339 6312024 6340634 6356134 6354016 
2010.069 6335726 6307619 6279045 6258505 6250337 6252286 6257967 6261161 
2013.927 6256152 6242034 6221833 6200960 6185802 6181702 6192726 6221295 
2017.784 6269531 6337003 6420593 6514020 6606661 6686770 6745052 6776721 
2021.642 6782375 6769013 6747307 6726274 6713453 6711939 6722169 6742865 
2025.499 6771874 6806540 6842386 6873523 6892880 6894428 6876385 6841276 
2029.356 6797654 6756494 6726981 6714395 6719140 6737312 6764470 6800044 
2033.214 6845988 6907456 6988900 7089994 7203744 7319782 7426278 7514427 
2037.071 7581790 7631391 7669565 7703055 7737458 7774933 7815920 7860352 
2040.929 7906409 7953955 7999853 8039646 8068067 8080252 8073164 8048725 
2044.786 8012847 7973191 7938533 7915857 7907691 7914676 7935057 7966104 
2048.644 8003632 8043257 8077114 8097435 8096996 8072826 8027393 7970188 
2052.501 7913326 7870475 7851378 7857855 7884476 7921559 7957835 7985442 
2056.358 8002789 8012914 8021116 8032187 8047578 8065197 8082514 8096827 
2060.216 8107832 8117521 8128054 8140985 8155063 8167859 8175591 8176739 
2064.073 8171269 8160735 8147838 8134198 8118939 8101485 8081265 8059189 
2067.931 8038835 8025098 8021723 8029789 8047038 8067898 8086768 8098684 
2071.788 8101925 8097064 8086464 8071982 8055038 8035595 8014231 7991887 
2075.646 7971740 7956249 7947949 7946868 7949872 7952369 7949872 7939883 
2079.503 7923078 7903102 7884679 7871790 7866257 7867167 7871756 7877391 
2083.360 7881879 7884679 7886569 7888661 7891933 7896725 7903203 7910593 
2087.218 7919029 7927701 7935125 7939410 7937959 7928342 7910087 7884072 
2091.075 7852761 7820407 7790552 7765826 7748184 7738672 7738234 7748116 
2094.933 7769333 7801077 7840886 7883565 7923112 7953921 7973461 7981830 
2098.790 7982944 7982033 7982640 7986758 7994082 8002383 8010147 8017841 
2102.647 8026887 8040287 8059730 8085046 8113808 8143111 8171100 8197672 
2106.505 8225699 8258657 8299184 8347786 8401698 8455887 8506331 8549651 
2110.362 8585474 8615586 8642625 8668787 8694714 8720000 8743530 8764559 
2114.220 8782884 8798708 8812469 8823594 8831676 8836444 8839522 8843173 
2118.077 8851019 8866405 8890382 8922309 8958703 8996419 9032548 9067361 
2121.935 9101804 9138145 9177298 9216862 9252502 9278598 9290615 9287434 
2125.792 9271186 9246612 9219027 9192562 9168635 9146267 9124137 9100654 
2129.649 9075684 9050884 9028286 9009544 8995336 8986033 8980926 8981907 
2133.507 8990398 9008022 9035085 9070203 9109147 9147621 9182138 9211446 
2137.364 9237168 9261674 9286249 9310655 9332186 9347387 9354157 9352973 
2141.222 9346303 9338279 9331949 9327007 9320439 9307609 9283033 9245359 
2145.079 9196183 9138958 9079169 9020844 8965773 8913448 8862888 8813349 
2148.937 8764525 8716721 8668449 8616735 8558472 8490113 8410447 8321914 
2152.794 8228164 8134198 8043055 7954765 7867674 7781916 7701807 7638304 
2156.651 7608124 7627918 7708384 7849016 8034009 8237855 8433757 8600276 
2160.509 8727539 8815818 8872865 8906988 8926705 8938916 8947879 8958669 
2164.366 8976495 9004402 9043476 9089082 9133206 9164811 9174557 9156757 
2168.224 9111956 9045810 8966347 8882503 8801514 8726627 8659593 8600445 
2172.081 8548198 8502412 8463353 8430818 8404873 8385753 8373086 8365621 
2175.938 8362006 8358156 8348969 8329918 8297292 8250958 8195950 8141187 
2179.796 8096760 8070903 8068337 8086869 8120863 8162018 8202940 8240794 
2183.653 8274631 8304857 8332452 8356467 8374369 8384773 8388084 8386496 
2187.511 8385246 8389536 8402407 8424602 8454366 8488052 8523361 8558607 
2191.368 8593111 8625455 8653137 8671322 8675953 8664461 8638569 8604264 
2195.226 8569995 8543602 8530187 8530390 8540155 8552929 8563946 8569927 
2199.083 8571009 8569285 8566548 8563033 8558708 8551814 8542521 8532925 
2202.940 8526098 8524342 8528599 8536168 8541608 8539682 8527450 8504743 
2206.798 8476394 8448927 8428385 8418859 8421730 8435177 8456495 8482780 
2210.655 8512008 8542454 8572259 8598755 8618898 8630694 8634142 8631708 
2214.513 8628092 8627787 8634648 8650027 8671796 8696776 8721894 8744273 
2218.370 8763071 8778083 8789646 8797694 8802765 8804760 8805301 8806316 
2222.228 8810103 8817271 8826942 8835767 8838946 8833637 8818657 8796037 
2226.085 8770476 8747722 8731630 8724260 8724598 8729365 8736261 8742617 
2229.942 8746708 8748094 8746133 8740081 8729500 8715335 8699582 8685993 
2233.800 8678860 8681091 8693328 8713375 8736734 8759082 8777880 8792825 
2237.657 8806417 8822039 8841448 8864850 8889334 8911419 8927044 8934485 
2241.515 8933977 8927586 8918487 8909524 8902760 8899987 8902456 8911790 
2245.372 8928972 8954746 8987658 9025308 9063504 9098049 9126438 9147384 
2249.229 9161732 9171952 9180819 9190227 9201496 9215541 9232972 9254836 
2253.087 9281950 9314109 9350196 9386829 9419266 9442529 9452959 9448963 
2256.944 9431727 9404571 9371661 9337128 9304224 9274402 9248236 9225391 
2260.802 9205321 9187417 9171647 9157739 9146165 9138010 9134051 9135642 
2264.659 9143898 9158619 9179262 9204035 9230569 9255954 9278260 9295862 
2268.517 9308117 9315022 9317290 9315192 9310384 9303580 9295829 9288314 
2272.374 9281442 9274909 9268376 9261200 9252908 9244141 9236052 9229892 
2276.231 9227489 9229418 9235714 9245969 9259643 9276094 9295558 9318069 
2280.089 9343730 9371695 9400778 9428645 9453636 9474124 9489228 9499049 
2283.946 9504028 9504332 9500369 9492445 9481066 9467283 9452722 9438703 
2287.804 9426208 9415542 9406129 9396851 9386964 9376300 9365465 9355512 
2291.661 9347725 9342782 9340513 9340107 9340649 9341868 9343730 9346913 
2295.519 9352126 9359405 9367937 9376739 9384086 9388624 9389741 9387235 
2299.376 9381378 9372677 9361673 9349079 9335707 9322944 9312212 9304562 
2303.233 9300331 9298672 9297825 9295423 9289633 9279716 9266549 9251655 
2307.091 9237406 9225323 9215982 9208807 9202715 9196419 9189380 9181969 
2310.948 9174828 9169076 9165590 9164575 9166029 9169583 9174795 9181022 
2314.806 9187688 9193678 9197570 9198450 9195439 9188500 9178517 9166876 
2318.663 9155133 9144913 9137536 9133815 9134525 9139635 9148162 9157772 
2322.521 9164304 9162578 9147553 9115474 9065432 9000106 8925522 8849124 
2326.378 8778286 8719121 8673958 8642592 8622210 8609097 8599870 8592604 
2330.235 8586656 8582600 8581215 8582938 8588143 8597166 8609706 8625692 
2334.093 8644755 8666015 8687649 8708540 8727133 8743259 8757527 8771659 
2337.950 8786874 8804185 8823087 8842429 8860826 8876889 8890958 8903606 
2341.808 8916187 8929412 8943346 8957688 8971894 8987421 9007075 9035120 
2345.665 9076429 9134897 9211717 9305104 9410632 9522181 9632945 9735944 
2349.522 9825444 9896827 9947337 9976494 9986496 9982360 9970120 9956423 
2353.380 9946829 9943778 9947778 9956729 9968595 9980936 9993887 10007856 
2357.237 10024945 10047054 10074996 10108909 10147708 10190345 10235089 
2360.613 10280991 10327067 10372062 10415637 10457349 10497843 10538070 
2363.988 10579759 10624102 10671539 10721257 10771354 10820200 10865790 
2367.363 10907274 10945193 10980329 11013226 11044426 11073655 11100236 
2370.738 11124473 11147012 11169143 11192636 11219224 11249316 11283797 
2374.114 11322906 11367325 11418550 11478492 11548684 11630391 11723584 
2377.489 11827148 11939796 12059968 12186852 12319739 12458394 12601938 
2380.864 12748770 12896710 13042891 13185091 13321598 13451926 13575732 
2384.239 13692698 13801863 13901716 13990402 14066101 14127984 14176216 
2387.615 14211820 14236436 14251296 14257733 14256261 14247461 14232020 
2390.990 14210382 14183439 14151877 14115832 14075581 14031124 13983148 
2394.365 13932644 13881429 13831416 13784522 13742284 13705761 13676113 
2397.740 13654640 13642809 13642400 13654709 13679875 13717593 13765642 
2401.115 13822147 13885056 13953071 14025752 14103065 14185425 14272696 
2404.491 14364814 14461920 14564631 14674529 14793232 14922529 15062568 
2407.866 15212740 15370687 15533637 15699705 15867693 16037809 16211053 
2411.241 16388047 16568383 16750483 16931212 17106776 17273620 17428318 
2414.616 17568614 17692768 17799320 17887254 17956486 18007562 18042342 
2417.992 18063100 18072910 18073844 18067728 18055260 18036748 18012466 
2421.367 17983110 17949648 17913564 17875962 17837778 17799630 17762592 
2424.742 17727870 17697948 17676066 17665266 17668612 17687524 17722278 
2428.117 17772500 17836984 17915290 18006836 18111980 18230242 18361086 
2431.493 18503448 18655922 18816960 18986298 19164148 19351220 19548320 
2434.868 19756396 19974910 20204190 20443630 20693140 20953330 21224740 
2438.243 21507878 21802766 22108942 22425838 22752810 23089568 23435994 
2441.618 23792216 24158294 24533866 24918678 25312400 25715196 26127656 
2444.994 26550442 26984006 27428166 27881756 28342648 28807922 29274758 
2448.369 29739968 30201166 30656170 31103394 31541634 31970550 32389604 
2451.744 32798950 33198058 33585256 33957716 34311812 34643088 34947468 
2455.119 35222340 35465928 35677352 35855876 35999952 36106592 36172304 
2458.495 36192868 36164456 36085096 35954236 35772540 35542660 35267120 
2461.870 34949192 34592280 34200272 33777216 33328232 32858520 32373394 
2465.245 31878826 31380582 30884154 30395720 29921570 29467302 29038374 
2468.620 28639312 28273118 27941858 27646198 27385886 27160086 26967646 
2471.996 26807152 26676842 26574676 26498138 26444152 26409784 26391794 
2475.371 26386828 26391686 26402708 26416616 26430560 26442110 26450070 
2478.746 26453942 26453696 26449434 26440526 26425772 26403342 26371582 
2482.121 26328876 26275194 26211344 26139128 26060874 25978974 25895966 
2485.497 25813958 25734918 25660568 25591854 25529020 25470830 25415250 
2488.872 25359642 25301510 25239140 25172318 25102100 25029894 24957384 
2492.247 24885518 24814188 24742628 24669604 24593788 24514338 24430908 
2495.622 24342378 24247908 24146176 24035848 23915714 23786196 23647726 
2498.998 23502198 23351930 23198498 23043654 22888164 22732838 22577916 
2502.373 22424336 22272664 22123830 21978918 21838444 21702962 21572884 
2505.748 21448590 21330038 21217224 21109934 21006952 20907330 20810198 
2509.123 20714408 20620204 20527862 20437760 20350528 20266122 20183886 
2512.499 20102984 20022998 19943376 19864390 19786634 19710174 19635356 
2515.874 19562216 19490406 19420582 19353680 19291498 19235630 19188044 
2519.249 19149120 19118926 19096316 19080010 19068792 19062076 19059270 
2522.624 19060344 19064810 19072322 19081776 19092716 19104834 19118200 
2526.000 19133296 19150678 19170590 19192788 19216892 19241308 19265312 
2529.375 19287654 19306946 19321912 19331196 19333828 19329948 19320492 
2532.750 19307328 19293368 19281038 19271858 19266350 19263858 19262542 
2536.125 19261398 19259700 19257762 19256860 19258662 19264100 19273970 
2539.500 19288036 19305492 19325274 19346890 19369200 19391824 19414242 
2542.876 19435586 19455786 19475124 19494218 19514354 19536466 19561282 
2546.251 19588144 19615876 19642844 19667632 19689302 19708232 19725048 
2549.626 19741380 19757886 19775120 19792702 19810076 19826412 19841118 
2553.001 19854122 19865014 19873964 19880900 19886276 19890230 19893770 
2556.377 19897480 19902302 19908200 19914442 19919438 19921000 19916940 
2559.752 19905250 19884992 19855720 19818228 19773768 19723592 19669504 
2563.127 19613344 19556602 19500768 19446848 19395150 19345850 19298912 
2566.502 19254124 19211870 19172944 19138004 19108124 19083956 19065536 
2569.878 19052796 19045388 19043276 19046392 19054770 19068620 19087418 
2573.253 19110720 19137624 19167300 19199508 19234278 19271374 19310480 
2576.628 19350632 19389988 19427062 19460708 19491376 19520556 19551334 
2580.003 19586514 19628388 19677792 19733926 19794886 19858216 19921970 
2583.379 19985074 20047356 20109124 20170974 20233524 20297054 20361810 
2586.754 20428384 20496910 20567672 20640184 20713436 20786004 20856536 
2590.129 20923914 20987894 21049310 21109136 21168586 21228428 21288450 
2593.504 21348064 21406366 21462862 21517208 21570098 21622018 21673912 
2596.880 21726300 21779738 21834436 21890886 21949572 22011264 22076626 
2600.255 22146216 22220280 22298858 22382192 22469942 22562244 22658860 
2603.630 22759374 22863124 22969098 23076428 23184380 23292670 23401478 
2607.005 23511642 23623830 23738880 23857076 23978246 24101692 24226292 
2610.381 24350684 24473252 24592070 24705412 24811980 24910150 24999254 
2613.756 25078862 25148934 25209854 25261860 25305516 25341762 25371162 
2617.131 25394524 25412510 25425580 25433834 25437348 25436082 25430426 
2620.506 25420906 25408926 25395788 25382756 25370916 25360554 25351738 
2623.882 25344114 25337688 25332946 25330524 25331472 25336984 25347664 
2627.257 25363576 25384686 25410436 25440368 25474204 25511802 25552916 
2630.632 25597302 25644328 25692908 25742302 25791806 25840718 25889318 
2634.007 25937610 25985974 26034840 26084448 26134836 26185934 26237916 
2637.383 26290610 26343804 26397638 26452076 26507296 26563510 26620860 
2640.758 26679694 26739912 26801336 26863546 26926010 26988590 27051002 
2644.133 27113846 27177440 27242206 27308888 27377664 27448534 27521566 
2647.508 27597048 27674872 27755326 27838514 27924156 28012148 28101748 
2650.884 28192534 28284506 28377840 28472540 28569632 28669610 28772622 
2654.259 28879024 28988958 29102462 29220036 29342110 29468966 29600794 
2657.634 29737628 29878870 30023816 30171580 30321528 30472804 30625238 
2661.009 30778364 30932290 31087164 31243016 31400066 31558738 31718894 
2664.385 31880360 32042668 32205396 32368042 32530140 32692048 32854158 
2667.760 33016906 33180996 33346516 33513918 33683176 33854400 34028092 
2671.135 34204824 34384932 34568740 34756104 34946172 35138084 35330480 
2674.510 35522272 35712532 35900392 36085128 36266232 36443236 36615836 
2677.885 36784724 36950896 37115728 37280980 37448424 37619332 37795116 
2681.261 37976792 38165344 38361976 38568116 38784964 39013416 39254024 
2684.636 39506672 39771052 40046960 40333992 40631904 40940620 41259324 
2688.011 41587152 41922604 42264080 42610400 42961016 43316092 43676144 
2691.386 44042368 44415504 44795680 45183216 45577500 45977668 46383436 
2694.762 46794424 47210084 47630540 48055700 48485832 48921356 49362560 
2698.137 49809704 50262784 50720876 51182880 51647320 52112484 52577244 
2701.512 53040744 53502376 53961536 54417468 54868648 55313336 55749556 
2704.887 56175464 56589256 56989428 57373860 57740656 58086892 58410132 
2708.263 58707360 58976708 59216792 59427336 59608448 59760660 59884440 
2711.638 59980292 60048316 60089104 60103260 60091196 60053796 59991400 
2715.013 59904180 59791992 59654476 59491132 59301864 59086636 58846280 
2718.388 58582284 58296736 57992364 57672916 57342136 57003784 56661924 
2721.764 56319872 55980776 55647924 55324628 55014020 54719640 54444020 
2725.139 54189520 53957448 53748488 53562948 53401532 53264756 53153484 
2728.514 53068972 53011056 52979236 52971600 52985936 53019704 53070768 
2731.889 53138320 53222020 53322032 53438332 53570516 53716732 53874956 
2735.265 54042284 54216472 54395424 54577376 54761324 54945880 55130136 
2738.640 55312888 55493004 55669584 55841748 56008628 56169280 56322816 
2742.015 56468788 56607108 56739280 56867300 56994116 57122472 57255104 
2745.390 57393220 57537168 57686388 57839936 57996756 58155832 58316668 
2748.766 58478324 58639396 58798404 58953328 59102768 59245120 59380340 
2752.141 59508684 59631100 59748988 59864208 59978580 60094168 60212788 
2755.516 60336088 60464600 60597800 60734128 60870684 61004504 61132760 
2758.891 61252848 61362740 61460792 61544892 61613120 61663108 61692324 
2762.267 61699196 61682164 61640808 61574824 61484572 61370524 61233544 
2765.642 61075128 60897636 60704744 60500856 60290440 60077500 59865384 
2769.017 59656456 59452184 59254236 59063972 58883656 58715212 58560636 
2772.392 58420932 58296392 58185988 58088328 58001752 57924508 57854848 
2775.768 57791636 57733084 57677420 57621872 57563652 57498628 57422796 
2779.143 57331736 57220932 57086872 56927096 56741056 56529960 56297052 
2782.518 56046928 55785120 55516952 55247032 54979084 54715696 54458256 
2785.893 54207760 53964088 53726592 53494432 53265768 53039060 52813144 
2789.269 52587040 52360688 52134564 51909636 51686804 51466664 51250100 
2792.644 51037372 50829628 50628164 50434344 50249948 50076232 49913436 
2796.019 49761476 49619260 49485376 49358440 49237700 49122148 49011744 
2799.394 48906192 48805188 48708024 48614112 48522328 48431820 48341704 
2802.770 48251124 48159344 48065768 47970212 47872424 47772656 47671068 
2806.145 47568244 47464668 47361372 47258992 47158888 47062168 46969792 
2809.520 46882484 46800400 46722912 46648828 46577008 46505748 46434284 
2812.895 46361984 46288768 46214760 46139808 46063868 45987352 45910816 
2816.271 45835584 45763788 45698440 45642676 45600244 45574296 45567928 
2819.646 45583352 45622692 45687104 45776928 45891964 46030932 46192020 
2823.021 46372856 46571288 46784940 47011840 47249352 47494348 47742960 
2826.396 47990120 48229500 48455492 48662436 48845900 49002696 49131200 
2829.771 49230608 49301312 49344000 49360332 49352240 49322280 49272956 
2833.147 49207044 49126748 49034260 48931228 48819612 48701204 48578204 
2836.522 48452044 48324224 48194880 48063768 47930104 47793408 47653800 
2839.897 47511868 47369320 47227484 47087908 46951220 46816972 46684796 
2843.272 46554396 46425840 46299900 46178240 46062320 45953432 45852596 
2846.648 45760544 45677536 45604216 45541620 45490880 45453060 45428852 
2850.023 45418440 45421384 45437128 45464428 45502616 45550932 45608668 
2853.398 45674884 45748804 45829216 45915016 46005332 46099456 46196372 
2856.773 46295404 46395128 46493616 46588440 46677124 46756452 46823764 
2860.149 46876392 46912200 46929512 46927632 46906216 46865728 46807304 
2863.524 46732060 46641632 46537872 46422780 46298796 46169248 46037748 
2866.899 45908720 45786648 45675544 45579304 45500776 45442244 45405308 
2870.274 45391036 45399348 45429624 45479440 45545264 45622328 45705916 
2873.650 45791732 45876680 45959508 46040508 46120976 46202524 46286376 
2877.025 46373076 46462896 46555356 46650228 46747484 46847052 46948892 
2880.400 47052752 47158076 47264276 47371020 47478196 47586136 47694880 
2883.775 47804692 47915304 48026280 48136796 48246128 48353964 48460124 
2887.151 48564564 48667144 48767520 48865032 48958816 49048356 49133388 
2890.526 49214392 49291512 49365492 49436960 49505948 49572688 49637240 
2893.901 49699536 49759688 49817548 49872776 49925364 49974992 50021984 
2897.276 50066676 50110292 50153656 50197800 50242548 50287300 50330272 
2900.652 50369488 50402712 50428128 50444204 50449528 50442980 50423364 
2904.027 50389316 50340464 50276472 50198320 50107320 50005404 49893956 
2907.402 49774368 49647048 49512188 49369724 49220072 49063824 48902300 
2910.777 48736904 48568864 48398964 48227688 48054772 47879896 47702796 
2914.153 47523364 47341308 47156928 46970528 46782688 46594268 46406368 
2917.528 46220436 46038044 45860732 45690124 45527304 45373600 45230060 
2920.903 45097812 44978324 44872608 44781616 44705472 44643480 44593836 
2924.278 44553744 44520004 44488804 44456864 44421412 44380196 44331792 
2927.654 44275764 44211672 44139592 44060008 43973764 43882696 43789668 
2931.029 43698972 43615768 43545876 43495184 43468708 43470172 43502072 
2934.404 43565252 43659988 43785932 43942304 44127964 44341112 44579040 
2937.779 44837964 45113216 45400640 45695868 45995568 46297544 46599652 
2941.155 46900164 47196600 47485180 47761340 48019060 48251124 48449712 
2944.530 48606328 48712140 48759332 48741868 48657100 48506692 48297228 
2947.905 48039748 47747912 47436544 47119664 46807672 46508220 46224860 
2951.280 45958480 45708236 45472484 45249844 45039552 44841088 44654572 
2954.656 44480068 44317372 44166332 44026268 43896112 43774752 43661052 
2958.031 43554080 43453432 43359404 43272200 43192736 43121300 43057964 
2961.406 43001768 42952276 42908380 42869468 42835276 42805584 42780280 
2964.781 42759220 42741596 42726788 42714400 42704380 42696848 42692464 
2968.156 42691220 42692096 42693412 42692428 42685956 42671480 42647060 
2971.532 42612228 42567568 42514504 42455312 42392472 42328952 42268320 
2974.907 42213576 42168008 42133288 42109116 42091996 42075680 42051148 
2978.282 42007636 41934756 41823868 41668764 41467604 41222304 40938584 
2981.657 40624736 40291304 39949668 39610548 39283692 38976732 38694256 
2985.033 38438568 38209592 38005576 37824540 37664972 37526048 37407184 
2988.408 37307192 37222640 37146512 37067984 36972832 36844196 36667176 
2991.783 36430152 36127800 35762936 35346152 34894644 34427436 33964488 
2995.158 33522330 33110798 32734420 32391638 32076914 31782738 31501484 
2998.534 31227528 30957304 30689454 30424432 30163658 29908686 29660674 
3001.909 29420354 29187432 28961578 28741894 28527840 28319022 28115570 
3005.284 27917868 27726824 27543100 27367394 27199874 27040492 26888574 
3008.659 26743472 26604266 26470000 26339896 26213314 26089794 25969054 
3012.035 25851340 25736534 25625454 25518406 25415954 25318158 25225304 
3015.410 25137102 25053586 24975106 24901974 24834852 24773706 24718074 
3018.785 24666342 24616684 24566508 24513674 24456952 24395858 24331164 
3022.160 24264062 24195882 24127786 24060644 23995088 23932064 23872618 
3025.536 23818328 23770728 23731110 23700176 23677642 23662386 23652484 
3028.911 23645698 23639294 23630372 23615958 23593112 23559144 23512062 
3032.286 23450786 23375392 23287322 23189272 23084430 22975876 22867000 
3035.661 22760246 22657534 22560080 22469032 22384460 22306390 22234474 
3039.037 22168286 22107270 22050828 21998682 21950652 21906496 21866180 
3042.412 21829526 21796634 21767162 21740966 21717974 21697632 21679172 
3045.787 21661792 21644100 21625294 21604956 21583296 21561150 21539666 
3049.162 21519992 21502446 21486708 21471670 21456248 21439052 21419312 
3052.538 21396862 21371662 21343784 21313298 21279994 21243458 21204142 
3055.913 21162496 21119918 21078004 21038564 21003092 20972628 20947628 
3059.288 20928086 20913866 20904304 20898636 20895646 20894014 20892240 
3062.663 20889284 20884834 20879480 20874856 20873082 20876282 20885878 
3066.039 20902218 20924714 20951660 20981078 21011054 21039746 21065970 
3069.414 21088718 21107536 21121796 21131538 21136650 21137312 21134008 
3072.789 21127918 21119850 21111326 21103814 21098526 21096614 21098596 
3076.164 21104056 21112440 21122076 21131398 21138808 21143364 21145000 
3079.540 21143816 21140860 21136824 21132686 21128860 21125798 21123640 
3082.915 21122702 21122806 21123848 21125658 21127886 21130598 21134008 
3086.290 21138876 21146114 21156478 21170534 21187826 21207412 21227766 
3089.665 21247494 21265938 21283336 21300630 21319144 21339886 21363308 
3093.041 21389030 21416286 21444064 21472296 21501122 21531344 21564074 
3096.416 21600010 21639154 21680600 21723024 21764932 21805276 21843740 
3099.791 21881024 21918172 21956786 21998054 22042636 22090432 22140358 
3103.166 22190674 22239566 22285220 22326692 22363808 22397334 22428698 
3106.542 22459718 22491646 22525180 22560568 22597564 22635750 22675128 
3109.917 22715660 22757942 22802288 22848946 22897492 22947406 22998026 
3113.292 23048826 23099632 23150198 23200736 23251036 23300606 23349170 
3116.667 23396128 23441520 23485236 23527664 23569114 23609660 23649300 
3120.042 23687684 23725196 23762222 23800266 23840554 23884380 23932272 
3123.418 23983636 24036760 24089082 24138608 24183516 24223630 24259576 
3126.793 24293494 24327484 24363580 24403428 24447384 24495126 24545648 
3130.168 24597434 24649298 24700152 24749678 24798122 24846256 24895202 
3133.543 24945768 24998586 25053658 25110384 25167962 25225584 25282790 
3136.919 25339620 25396210 25452876 25510114 25568060 25626930 25686686 
3140.294 25747258 25808542 25870468 25932720 25994946 26056722 26117838 
3143.669 26178016 26237916 26297722 26358204 26419504 26481940 26545406 
3147.044 26609586 26675008 26741990 26811276 26883496 26958584 27035732 
3150.420 27113704 27190560 27265246 27336906 27405898 27473274 27540524 
3153.795 27608946 27679534 27752712 27828482 27906700 27987020 28069546 
3157.170 28153856 28239524 28325742 28411444 28495892 28578904 28660480 
3160.545 28742036 28824528 28909622 28998486 29091868 29189558 29291134 
3163.921 29395642 29502052 29609094 29715912 29821622 29925972 30029106 
3167.296 30131304 30233102 30334780 30436232 30536536 30635014 30730350 
3170.671 30821792 30909308 30993066 31073390 31151056 31225960 31298314 
3174.046 31367618 31433870 31497174 31558168 31617854 31677264 31737432 
3177.422 31798710 31861496 31925860 31991910 32059864 32130144 32202612 
3180.797 32277412 32353618 32430838 32508534 32586280 32664434 32743602 
3184.172 32824642 32908056 32994382 33083230 33174418 33267520 33362330 
3187.547 33459124 33558052 33659544 33763284 33868836 33975236 34081344 
3190.923 34186400 34289872 34392356 34494264 34596796 34701044 34807260 
3194.298 34915760 35025904 35136900 35248000 35358692 35469060 35579452 
3197.673 35690484 35802476 35915472 36028892 36141732 36253124 36362780 
3201.048 36471052 36578996 36688124 36799980 36915688 37035684 37160192 
3204.424 37288128 37418808 37551588 37685280 37818540 37950212 38078452 
3207.799 38201848 38319816 38432708 38542080 38650104 38759388 38871852 
3211.174 38988620 39109700 39234224 39361284 39490052 39620636 39753184 
3214.549 39888276 40025704 40164880 40304756 40443988 40581480 40716724 
3217.925 40849532 40980528 41110360 41239756 41369484 41500232 41632116 
3221.300 41765752 41901256 42038588 42177136 42315872 42453996 42590408 
3224.675 42724708 42856924 42987316 43116656 43245512 43374524 43504120 
3228.050 43634636 43766072 43898460 44031436 44164384 44296748 44427872 
3231.426 44557784 44686924 44816440 44947420 45080540 45215572 45351972 
3234.801 45487900 45621884 45753184 45881688 46008792 46135528 46263596 
3238.176 46393764 46526364 46661408 46799076 46939812 47084472 47233652 
3241.551 47387316 47544216 47702460 47859548 48013288 48162932 48309076 
3244.927 48453380 48598324 48745948 48897516 49053216 49212424 49374104 
3248.302 49538148 49704144 49872252 50042508 50214836 50388500 50562488 
3251.677 50736032 50908636 51080380 51252116 51424776 51599332 51776348 
3255.052 51955980 52137848 52320952 52504360 52686608 52866652 53043740 
3258.427 53218012 53389844 53560808 53732104 53905116 54080524 54257692 
3261.803 54435384 54611868 54785760 54955992 55122344 55285300 55445684 
3265.178 55604240 55761424 55917532 56072264 56225844 56378424 56530376 
3268.553 56682004 56833232 56984064 57133580 57280888 57425440 57566600 
3271.928 57704744 57839860 57972900 58104388 58234708 58364192 58492996 
3275.304 58621080 58748364 58874928 59001000 59126688 59252752 59379392 
3278.679 59506900 59635244 59763780 59891704 60018144 60142188 60263640 
3282.054 60382996 60501580 60620696 60741784 60865540 60991848 61119792 
3285.429 61248420 61376252 61502476 61626560 61748584 61869224 61988716 
3288.805 62108008 62227640 62348336 62470564 62594696 62721008 62849572 
3292.180 62980256 63113272 63248276 63385212 63523800 63663536 63803360 
3295.555 63942692 64080620 64216620 64351396 64485604 64620688 64757748 
3298.930 64897352 65039732 65184348 65330364 65477080 65624200 65772332 
3302.306 65922440 66075572 66233076 66396012 66565028 66740564 66922352 
3305.681 67109440 67300520 67493960 67688112 67882072 68076400 68272976 
3309.056 68474536 68683880 68902864 69132064 69370216 69615256 69864560 
3312.431 70116552 70370824 70628320 70890416 71158768 71433808 71715384 
3315.807 72003016 72295736 72593496 72896328 73204656 73518600 73837424 
3319.182 74160344 74485896 74813360 75142432 75473104 75805568 76139544 
3322.557 76473904 76807048 77137376 77463864 77786760 78107072 78426432 
3325.932 78745120 79063280 79378448 79688200 79989088 80279064 80556904 
3329.308 80822712 81077224 81321176 81554952 81778408 81990936 82191400 
3332.683 82378256 82549920 82704144 82838480 82951496 83042632 83112952 
3336.058 83165120 83202800 83229360 83246744 83254768 83251200 83232536 
3339.433 83194568 83134656 83051368 82944832 82816144 82666784 82498072 
3342.809 82311120 82106288 81884304 81645312 81389392 81116160 80824872 
3346.184 80514632 80184720 79835672 79468800 79086656 78692096 78287976 
3349.559 77876064 77457288 77031680 76598704 76158144 75710144 75255472 
3352.934 74795136 74330488 73862488 73392088 72920392 72447840 71975328 
3356.310 71503648 71033720 70566344 70102728 69644080 69191976 68748192 
3359.685 68314280 67891184 67479376 67077772 66685044 66299000 65917736 
3363.060 65539464 65162980 64787864 64413728 64041332 63671632 63306504 
3366.435 62948420 62599972 62263316 61940140 61630344 61332864 61045652 
3369.811 60765944 60491904 60222148 59956288 59694316 59436604 59182884 
3373.186 58932076 58682932 58433856 58183828 57932800 57681052 57430016 
3376.561 57181356 56936504 56696580 56462188 56233352 56009496 55789640 
3379.936 55573168 55358880 55146156 54934068 54722196 54509756 54295988 
3383.312 54080784 53864040 53646240 53428776 53213444 53002744 52798660 
3386.687 52602376 52413880 52231860 52053908 51877560 51700428 51520756 
3390.062 51338544 51153804 50967800 50781952 50597636 50416144 50238492 
3393.437 50065112 49896000 49729964 49565000 49398644 49228604 49053548 
3396.813 48873820 48691640 48510620 48334260 48165152 48004108 47849968 
3400.188 47700172 47551276 47400396 47246104 47087872 46926008 46761436 
3403.563 46594820 46426432 46256628 46085788 45914796 45744644 45576432 
3406.938 45410164 45245908 45082524 44918904 44754136 44587924 44420748 
3410.313 44253496 44087032 43921960 43758664 43597196 43436812 43277436 
3413.689 43118736 42960504 42802220 42643808 42484616 42324968 42164720 
3417.064 42004388 41843968 41683572 41522436 41359752 41194288 41025936 
3420.439 40855068 40683356 40512692 40345080 40181564 40022144 39865580 
3423.814 39710484 39555160 39398724 39240932 39082292 38923636 38765148 
3427.190 38607372 38450264 38293756 38138428 37984672 37832820 37683832 
3430.565 37537248 37392664 37249536 37107244 36965692 36824972 36685780 
3433.940 36547928 36411672 36276212 36140580 36004020 35866204 35727172 
3437.315 35588296 35450292 35314376 35180408 35048100 34916224 34783492 
3440.691 34649404 34514136 34378872 34245480 34115392 33989176 33865716 
3444.066 33742580 33615724 33481382 33337106 33182714 33020910 32856554 
3447.441 32695726 32544210 32405276 32279198 32163716 32054406 31946618 
3450.816 31836718 31722672 31604170 31482066 31357576 31231408 31103892 
3454.192 30974740 30843920 30711644 30578590 30445756 30313994 30183088 
3457.567 30053038 29922600 29791032 29657942 29523190 29387310 29251224 
3460.942 29115216 28979926 28845490 28712086 28580282 28450430 28322948 
3464.317 28197838 28074602 27952426 27830848 27709412 27588362 27468122 
3467.693 27348762 27230142 27110952 26989824 26865168 26736352 26603808 
3471.068 26468908 26334228 26201348 26071852 25945912 25823066 25702294 
3474.443 25583032 25465068 25348682 25234328 25122006 25011116 24900290 
3477.818 24788124 24673112 24554132 24430662 24302640 24170906 24036374 
3481.194 23901186 23767646 23638350 23515456 23400254 23292112 23188852 
3484.569 23087190 22983632 22875174 22760804 22641196 22518864 22396530 
3487.944 22276952 22161452 22050096 21942080 21835866 21729992 21624040 
3491.319 21518044 21412560 21308322 21205918 21105414 21006602 20908894 
3494.695 20811656 20714270 20615896 20516606 20416506 20316706 20218214 
3498.070 20122138 20028828 19937546 19846390 19752894 19654180 19548458 
3501.445 19435516 19316890 19196010 19076720 18963522 18859556 18766238 
3504.820 18683352 18608746 18538890 18469460 18396586 18316536 18227548 
3508.196 18129736 18025384 17918294 17813268 17713788 17622130 17537942 
3511.571 17459326 17383138 17307272 17229352 17149308 17067556 16985200 
3514.946 16902928 16820740 16738016 16654518 16569864 16484676 16400332 
3518.321 16318444 16240116 16165448 16093887 16024264 15955132 15885323 
3521.697 15814049 15741104 15666177 15589650 15510870 15430078 15346899 
3525.072 15261023 15172490 15082052 14990056 14897565 14806020 14716688 
3528.447 14630971 14549864 14473600 14401770 14333615 14267799 14203124 
3531.822 14138903 14074588 14009633 13943593 13875682 13805078 13731409 
3535.198 13654742 13575971 13496906 13419461 13345412 13275270 13209444 
3538.573 13146839 13087076 13029507 12974232 12921321 12870736 12821045 
3541.948 12770540 12716732 12657335 12590886 12517388 12437731 12353963 
3545.323 12267929 12181639 12096864 12014831 11937037 11864603 11798718 
3548.698 11739072 11684235 11631684 11577643 11518878 11453317 11380454 
3552.074 11302093 11221094 11140655 11063662 10991782 10925282 10864058 
3555.449 10807564 10754948 10705295 10657005 10608211 10556877 10501339 
3558.824 10440956 10376236 10309287 10242450 10178134 10118439 10064280 
3562.199 10015180 9970290 9927471 9883708 9835172 9776710 9703381 9611433 
3566.057 9499930 9372474 9237474 9106508 8989890 8895388 8825352 8776731 
3569.914 8743395 8717972 8694004 8666658 8633262 8592232 8543400 8486734 
3573.772 8423015 8353933 8282162 8211246 8145171 8086734 8036946 7994587 
3577.629 7956858 7919906 7880326 7836601 7788392 7737593 7686259 7636787 
3581.487 7591028 7549388 7511865 7477547 7444278 7409089 7368107 7316985 
3585.344 7251180 7168205 7068440 6956779 6840972 6731658 6639025 6569690 
3589.201 6525826 6505444 6503022 6511700 6524111 6533765 6534774 6522597 
3593.059 6494378 6449211 6388581 6316428 6238673 6161940 6091706 6032033 
3596.916 5984428 5947073 5916372 5887890 5856488 5818742 5773342 5720931 
3600.774 5665136 5609985 5559943 5518228 5486015 5462594 5445213 5430887 
3604.631 5415353 5394854 5366239 5326858 5275003 5211384 5138320 5060809 
3608.489 4985458 4919301 4866791 4829131 4802830 4782127 4759715 4729633 
3612.346 4689707 4642015 4592385 4547348 4512327 4489059 4474463 4462645 
3616.203 4445606 4416718 4371566 4309753 4234230 4151729 4070313 3997474 
3620.061 3939525 3899203 3876971 3870285 3875433 3888438 3905355 3923243 
3623.918 3940528 3956243 3969786 3978881 3978747 3962329 3920334 3845112 
3627.776 3734076 3595037 3447226 3315991 3223783 3180190 3180591 3210398 
3631.633 3251924 3290150 3314823 3322135 3314255 3296960 3277029 3259402 
3635.490 3245882 3234732 3223450 3208796 3189669 3166539 3141307 3115843 
3639.348 3091815 3069925 3049603 3030751 3013501 2998687 2987878 2982306 
3643.205 2982340 2987177 2994283 3000122 2999922 2989379 2964458 2922759 
3647.063 2863619 2788948 2702686 2610175 2518317 2434275 2365041 2317103 
3650.920 2294852 2299482 2328463 2375902 2433109 2488691 2532081 2553712 
3654.778 2547679 2513551 2457966 2393193 2332727 2287124 2261244 2252817 
3658.635 2255782 2262809 2268072 2268505 2264042 2256581 2248921 2243392 
3662.492 2241360 2243092 2248321 2256348 2266973 2279630 2293886 2307876 
3666.350 2319102 2323699 2316870 2293553 2249920 2185344 2104663 2019170 
3670.207 1945242 1898249 1888199 1915122 1970105 2036946 2096106 2129635 
3674.065 2122609 2070170 1980457 1875420 1781988 1720542 1697922 1707236 
3677.922 1735378 1768147 1796094 1815326 1826472 1832827 1838251 1844906 
3681.780 1853158 1862542 1873091 1886302 1904672 1929966 1962217 1997433 
3685.637 2028490 2046766 2043604 2014509 1959920 1887833 1809935 1739304 
3689.494 1684450 1649027 1630468 1625047 1628639 1639049 1654914 1675602 
3693.352 1699219 1723170 1744360 1759963 1768480 1771175 1770642 1770942 
3697.209 1775001 1784449 1797891 1812198 1822147 1823178 1812098 1788475 
3701.067 1755272 1718246 1684284 1659903 1649060 1652918 1669548 1695992 
3704.924 1727594 1761028 1793200 1822213 1846803 1866070 1878715 1883474 
3708.781 1878449 1862409 1834458 1795895 1749983 1701681 1657774 1625346 
3712.639 1609549 1612675 1633860 1669016 1711859 1755638 1794131 1822346 
3716.496 1838018 1841146 1834757 1823078 1811033 1802183 1797991 1797957 
3720.354 1800586 1804412 1808671 1813895 1821148 1831363 1843608 1855954 
3724.211 1864639 1866303 1859348 1844573 1825773 1809370 1801551 1806908 
3728.069 1826239 1856087 1890928 1923276 1946507 1956392 1952265 1937154 
3731.926 1916886 1897883 1884638 1876153 1868332 1855122 1831497 1797159 
3735.783 1757002 1719810 1694795 1687510 1698288 1723303 1757468 1796128 
3739.641 1837652 1881943 1929666 1979192 2025727 2059184 2067141 2038511 
3743.498 1969340 1870562 1767515 1692234 1666355 1692932 1758167 1839848 
3747.356 1916454 1969306 1987713 1969273 1920381 1853192 1781954 1717980 
3751.213 1666921 1631200 1612176 1610912 1629204 1666655 1720109 1783152 
3755.071 1847468 1904972 1948803 1974965 1983419 1976263 1958189 1933560 
3758.928 1906935 1882109 1863407 1854556 1858449 1875520 1902875 1934991 
3762.785 1964147 1983452 1988712 1980057 1962383 1943079 1930065 1928102 
3766.643 1936655 1951100 1964314 1970371 1965745 1951366 1931397 1912759 
3770.500 1900878 1898749 1906170 1920514 1937853 1954861 1969240 1980557 
3774.358 1989178 1996734 2004689 2014076 2024429 2034183 2040475 2040541 
3778.215 2032618 2017339 1997766 1978859 1966044 1962716 1968873 1981622 
3782.073 1995635 2005755 2008118 2002193 1989777 1974998 1962350 1954728 
3785.930 1952997 1955693 1960686 1966178 1971037 1975431 1979824 1984884 
3789.787 1990642 1997066 2004223 2012745 2023697 2038011 2055788 2075031 
3793.645 2092177 2102565 2102365 2089880 2067574 2041673 2021267 2014276 
3797.502 2024562 2050562 2085152 2117148 2133897 2125206 2086451 2022232 
3801.360 1946241 1879380 1839815 1836820 1868565 1924141 1988412 2044869 
3805.217 2080591 2088515 2068839 2030354 1986881 1953230 1937787 1941748 
3809.074 1960053 1985649 2012512 2037778 2062214 2088482 2118947 2153409 
3812.932 2188041 2215383 2227405 2217214 2183179 2131499 2076396 2034782 
3816.789 2019968 2036580 2079492 2136061 2189340 2223342 2225374 2190073 
3820.647 2123009 2040541 1966044 1918983 1909897 1936555 1987846 2048165 
3824.504 2102499 2140689 2157738 2155940 2142621 2127936 2120345 2123708 
3828.362 2137193 2155740 2173256 2184345 2186976 2182180 2174188 2167994 
3832.219 2168527 2178451 2198498 2226473 2258380 2289323 2313439 2325132 
3836.076 2320535 2297717 2259112 2210121 2159670 2116349 2086251 2071003 
3839.934 2068273 2073733 2082089 2089713 2094807 2097671 2099502 2102299 
3843.791 2108125 2117914 2132765 2152610 2177385 2206124 2237830 2270937 
3847.649 2305078 2340355 2377801 2418648 2463098 2508852 2548779 2571710 
3851.506 2563810 2511452 2409419 2266540 2109490 1972734 1884439 1855621 
3855.364 1879181 1937654 2012179 2088748 2158271 2217214 2265707 2305411 
3859.221 2337724 2363575 2382798 2395392 2401822 2403555 2402022 2397458 
3863.078 2389195 2375702 2356979 2334925 2314905 2303280 2305278 2321334 
3866.936 2346718 2371604 2385130 2378067 2347418 2298916 2247289 2210121 
3870.793 2199031 2216182 2252984 2295951 2330361 2346718 2342754 2324532 
3874.651 2303280 2290855 2296151 2321001 2360877 2406853 2449036 2478560 
3878.508 2489290 2480026 2453468 2417815 2382665 2358145 2350882 2362776 
3882.365 2389928 2424412 2456200 2475594 2476261 2457233 2425145 2392327 
3886.223 2372404 2375402 2403555 2451335 2507286 2558744 2593875 2604575 
3890.080 2588309 2548979 2495855 2440573 2394426 2364708 2354014 2361110 
3893.938 2382698 2414750 2453635 2496288 2540080 2582376 2620442 2651811 
3897.795 2674514 2687350 2690484 2685583 2675214 2661712 2646777 2630943 
3901.653 2612809 2590375 2562444 2528582 2491057 2453734 2421680 2399423 
3905.510 2389595 2392460 2405954 2426978 2452368 2479160 2505686 2530881 
3909.367 2554345 2575843 2595442 2613275 2629576 2645210 2661012 2677348 
3913.225 2693884 2709321 2720824 2725359 2720857 2706554 2684449 2658079 
3917.082 2632476 2611908 2598909 2593942 2595675 2601875 2610875 2621776 
3920.940 2633943 2647244 2660679 2672481 2680515 2682916 2679148 2670347 
3924.797 2659579 2650444 2646311 2648911 2657945 2671547 2687350 2702486 
3928.655 2714823 2722925 2725626 2721991 2711688 2694785 2673181 2649511 
3932.512 2628176 2613675 2609108 2615675 2631443 2652711 2674948 2693784 
3936.369 2706887 2714089 2716523 2716790 2717023 2718390 2720624 2722491 
3940.227 2722258 2718857 2711855 2702453 2692217 2683182 2677181 2675348 
3944.084 2677915 2684649 2694484 2706220 2718123 2729060 2737762 2743597 
3947.942 2746598 2747065 2745965 2744331 2742797 2741530 2740630 2739663 
3951.799 2738396 2736829 2735295 2734495 2734495 2735695 2737862 2740296 
3955.656 2742397 2743698 2743997 2743297 2742164 2741330 2740930 2741330 
3959.514 2742230 2742997 2743497 2743231 2742264 2741330 2741097 2742364 
3963.371 2745831 2751500 2759203 2768173 2777376 2786347 2794417 2801820 
3967.229 2808857 2815893 2823264 2830701 2837571 2842974 2846109 2846843 
3971.086 2845142 2841840 2838171 2835503 2834703 2836637 2841040 2847510 
3974.944 2855047 2862652 2869723 2875793 2880897 2885466 2889702 2893838 
3978.801 2897708 2900810 2902344 2901743 2898708 2893805 2887968 2882664 
3982.658 2878829 2876994 2876994 2878128 2879229 2880129 2880997 2882564 
3986.516 2885700 2891103 2898475 2906413 2913085 2916721 2916020 2910850 
3990.373 2902844 2894139 2886700 2882231 2880997 2882664 2886367 2890636 
3994.231 2894906 2898275 2901210 2903378 2904779 2904946 2903545 2900643 
3998.088 2896173 2890836 2885433 2880463 2876360 2873092 
##END=
