
##TITLE=Z316_3_c
##JCAMP-DX=5.01  $$ Nicolet v. 1
##DATATYPE=INFRARED SPECTRUM
##ORIGIN=UniL
##OWNER=Nicolet
##LONGDATE=2011/09/09
##TIME=13:15:55
##SPECTROMETER/DATA SYSTEM=Nicolet iS5
##DATA PROCESSING=
Ratio against background
%Transmittance->Absorbance
Truncated
ElementMultiply or ElementDivide
##COMMENTS=
Number of sample scans: 32
Collection length: 51.19 sec
Sample gain: 2.0
Background collected on: Ven Sep 09 13:04:26 2011 (GMT+02:00);
Number of background scans: 32
Background gain: 2.0
Sample spacing:  1.000
Number of scan points: 12415
Resolution points: 8192
Number of FFT points: 65536
Apodization: N-B fort;
Phase correction: Mertz;
Laser frequency: 15798.0 cm-1
Number of rejected sample scans: 0
Number of rejected background scans: 0
Bench serial number: ASB1000141;
##RESOLUTION=4.000
##XUNITS=1/CM
##YUNITS=ABSORBANCE
##FIRSTX=649.893372
##LASTX=4000.122314
##FIRSTY=0.081477
##MAXX=4000.122314
##MINX=649.893372
##MAXY=0.251926
##MINY=0.002760
##XFACTOR=1.000000
##YFACTOR=1.000000E-009
##NPOINTS=6950
##DELTAX=0.482117
##ZPD=6100
##XYDATA=(X++(Y..Y))
649.893 81477040 81534320 81660744 81858176 82110328 82390864 82672392 
653.268 82940016 83190840 83432768 83672264 83907744 84127752 84318984 
656.643 84474272 84599864 84715792 84845640 85007568 85204144 85420416 
660.018 85629968 85809672 85943808 86031336 86081704 86108208 86119968 
663.393 86119480 86100816 86052096 85957256 85792960 85528976 85130904 
666.767 84571528 83855896 83044512 82246048 81566264 81060696 80717528 
670.142 80480688 80277784 80042152 79729328 79318032 78814272 78241072 
673.517 77629592 77003232 76370544 75728136 75068424 74388880 73697240 
676.892 73009440 72344104 71715000 71128008 70581152 70070288 69593752 
680.267 69153120 68752384 68394168 68074888 67785544 67514632 67251656 
683.642 66993252 66743576 66512236 66309348 66139848 66002124 65888500 
687.016 65789760 65698588 65612524 65533564 65464100 65403700 65347232 
690.391 65284924 65206944 65106972 64985616 64848760 64707636 64572864 
693.766 64451388 64345980 64256108 64178936 64111568 64051428 63995176 
697.141 63937708 63872328 63792200 63692004 63571856 63436552 63295812 
700.516 63159944 63036644 62928544 62833228 62744356 62654360 62558800 
703.890 62455104 62344168 62228060 62108428 61985584 61859900 61731240 
707.265 61601132 61471592 61345416 61223928 61107588 60995656 60889252 
710.640 60794528 60723836 60696592 60734544 60857460 61072232 61367588 
714.015 61706264 62031748 62272612 62355260 62225232 61854856 61253952 
717.390 60467952 59576180 58679332 57878660 57274196 56946212 56942884 
720.765 57277332 57916032 58778484 59731308 60610140 61243728 61472168 
724.139 61195852 60391028 59123384 57527296 55780448 54065024 52516176 
727.514 51213636 50174372 49369056 48743500 48241532 47823076 47461968 
730.889 47145224 46865136 46612308 46376840 46150308 45930556 45721928 
734.264 45533452 45373856 45245356 45142924 45055140 44970092 44879036 
737.639 44780068 44675872 44571000 44467844 44365368 44260464 44151216 
741.013 44039068 43930280 43831968 43748700 43678896 43615256 43547560 
744.388 43467056 43371412 43265244 43157676 43058144 42971844 42898724 
747.763 42834836 42776188 42721344 42672756 42633424 42604116 42580944 
751.138 42554740 42515124 42456476 42380344 42297464 42222124 42168300 
754.513 42143472 42146832 42170856 42206056 42246008 42288044 42333512 
757.888 42384328 42440220 42497840 42554116 42608608 42666656 42739036 
761.262 42838568 42974552 43150648 43364236 43610384 43887464 44202060 
764.637 44569164 45012468 45559616 46235804 47064384 48060696 49228048 
768.012 50551736 51992540 53488136 54955392 56319608 57542692 58654300 
771.387 59762904 61042372 62688700 64831720 67470152 70407992 73281568 
774.762 75585000 76794360 76541912 74689728 71404200 67081212 62276972 
778.136 57546664 53312852 49852148 47250756 45452248 44312052 43662480 
781.511 43359000 43289624 43386640 43610344 43934348 44341296 44819372 
784.886 45364512 45980764 46677900 47466628 48353444 49341360 50432856 
788.261 51635232 52965796 54452324 56125876 58019668 60160724 62568480 
791.636 65261044 68257776 71581624 75257048 79299496 83700664 88411416 
795.010 93338392 98335168 103200112 107708040 111608144 114650584 116636272 
798.385 117431496 117010128 115463152 113000856 109921824 106543944 
801.278 103189240 100112352 97461264 95277008 93486792 91939224 90433136 
804.653 88785392 86874504 84667144 82229352 79702776 77269568 75085712 
808.028 73250272 71777928 70602632 69597568 68611736 67519624 66235816 
811.402 64732672 63031888 61187612 59264492 57319452 55401372 53546752 
814.777 51783668 50138368 48632752 47283008 46097876 45076532 44209908 
818.152 43484272 42887208 42409568 42046728 41797200 41659976 41632696 
821.527 41712132 41895600 42184912 42586752 43113764 43780876 44601036 
824.902 45580848 46715568 47987420 49360704 50782396 52184476 53480116 
828.277 54578464 55396328 55868952 55971688 55726196 55204628 54511632 
831.651 53775304 53128620 52678980 52504732 52639104 53064816 53711964 
835.026 54462728 55174224 55681184 55833268 55526780 54716560 53434172 
838.401 51773848 49881508 47913492 46008276 44275800 42776840 41530672 
841.776 40525896 39734448 39122572 38657420 38312356 38063984 37891676 
845.151 37779320 37715092 37692904 37711916 37774368 37882024 38033856 
848.525 38225008 38448960 38700740 38978800 39285436 39625208 40001216 
851.900 40412132 40852192 41311684 41781912 42257944 42740536 43235192 
855.275 43750824 44297928 44885944 45526648 46234108 47025244 47922000 
858.650 48948584 50127696 51482516 53034380 54802184 56803512 59048940 
862.025 61534316 64227908 67061456 69925784 72663368 75096432 77041696 
865.400 78329992 78845976 78535128 77415984 75574080 73153768 70339888 
868.774 67317424 64268708 61346140 58654376 56263032 54201416 52469888 
872.149 51049408 49910980 49024392 48358520 47885852 47582476 47425564 
875.524 47396188 47479488 47665596 47950416 48334296 48819204 49405028 
878.899 50086720 50851864 51683072 52557012 53448936 54336276 55199020 
882.274 56022652 56799548 57527976 58211976 58858196 59473764 60062852 
885.648 60625988 61161212 61668492 62152968 62630096 63123772 63663036 
889.023 64275936 64980536 65779848 66660592 67597200 68556432 69503024 
892.398 70407960 71245392 71992848 72630272 73135448 73486376 73663904 
895.773 73651936 73442264 73034880 72439064 71673376 70765808 69755576 
899.148 68687680 67610640 66572940 65612524 64755596 64014068 63387164 
902.523 62865244 62436204 62090156 61821468 61629084 61514272 61478736 
905.897 61522672 61645920 61848556 62132628 62502048 62962288 63517964 
909.272 64171484 64922936 65771020 66715412 67758168 68904144 70159344 
912.647 71529824 73019160 74630000 76366320 78236672 80257464 82454240 
916.022 84855912 87493432 90391880 93564712 97009264 100701856 104596136 
919.397 108610408 112628160 116502624 120049096 123081944 125442136 
922.289 127024816 127820776 127927352 127558024 126996008 126576528 
925.182 126644280 127477808 129277576 132123960 135963664 140600912 
928.075 145703232 150859632 155566224 159304432 161620416 162130320 
930.967 160602768 156983296 151397776 144142160 135635760 126401080 
933.860 116959896 107787112 99290536 91743016 85306600 80047056 75950624 
937.235 72961152 71001848 69996360 69864216 70511776 71824400 73635840 
940.610 75725920 77845968 79713360 81068880 81722336 81565064 80599912 
943.985 78927640 76733312 74236088 71652040 69174920 66936500 65012208 
947.359 63426316 62165124 61193368 60467952 59950128 59606396 59408912 
950.734 59336084 59366892 59482352 59666604 59906232 60192540 60520928 
954.109 60888256 61291840 61727424 62189100 62670820 63168256 63679272 
957.484 64204404 64745284 65302520 65874428 66456744 67044288 67632584 
960.859 68220128 68808128 69399288 69996440 70600680 71211392 71826984 
964.233 72446624 73071304 73703832 74346880 75001712 75666520 76337008 
967.608 77008456 77677936 78346224 79018008 79700464 80400136 81121592 
970.983 81866816 82636240 83430960 84254656 85112840 86012032 86957240 
974.358 87950192 88989184 90070696 91191576 92350520 93547856 94783592 
977.733 96054960 97354776 98671504 99990616 101298136 102582336 103832712 
981.108 105039688 106191256 107271720 108264880 109156480 109938424 
984.000 110612496 111188952 111684416 112115880 112499168 112847400 
986.893 113171352 113483120 113796640 114126176 114485024 114881256 
989.786 115316728 115787760 116288672 116815216 117367024 117946744 
992.678 118558008 119201624 119873960 120567408 121273320 121985600 
995.571 122702616 123426528 124159944 124902776 125649408 126390848 
998.464 127117080 127821624 128504784 129172416 129833832 130496664 
1001.356 131165760 131843016 132529336 133229408 133952200 134709632 
1004.249 135514192 136373824 137290048 138259424 139277136 140341744 
1007.142 141457680 142633680 143880512 145205008 146607392 148081200 
1010.035 149616000 151202160 152832096 154500320 156201008 157924240 
1012.927 159654864 161377104 163078016 164754800 166417120 168086352 
1015.820 169787840 171545232 173375920 175288416 177286144 179370368 
1018.713 181542672 183803680 186149552 188569856 191046832 193560256 
1021.605 196096880 198655872 201252912 203914592 206672464 209550832 
1024.498 212560144 215696144 218943584 222281856 225686064 229127600 
1027.391 232567712 235949152 239200256 242236368 244968032 247319440 
1030.284 249229264 250652256 251558624 251926368 251742816 251010064 
1033.177 249752672 248022624 245890064 243440048 240750192 237875424 
1036.070 234847552 231673552 228346496 224856448 221199648 217382688 
1038.963 213423936 209352992 205212048 201059712 196963760 192999184 
1041.856 189236128 185718480 182456128 179415152 176528464 173704304 
1044.750 170851520 167905616 164835536 161652192 158398480 155141248 
1047.643 151953504 148900544 146039424 143409744 141032848 138914160 
1050.536 137042992 135395072 133935872 132627800 131435048 130327064 
1053.429 129282880 128287864 127330960 126402184 125489680 124580464 
1056.322 123663184 122728768 121771608 120788208 119774456 118723688 
1059.215 117627544 116478008 115270880 114009328 112704824 111374032 
1062.108 110036504 108711432 107413976 106156352 104949432 103802032 
1065.001 102722176 101714128 100776144 99898528 99063752 98250944 97438616 
1068.376 96611200 95762112 94893776 94016760 93144880 92294816 91482912 
1071.751 90724368 90034248 89425536 88908336 88488552 88165848 87934576 
1075.127 87783432 87699288 87667136 87669768 87688744 87700712 87677680 
1078.502 87591520 87415464 87132504 86740320 86252904 85699672 85117760 
1081.877 84549544 84035104 83607904 83298520 83132368 83131376 83316624 
1085.252 83705648 84311904 85145896 86212944 87515080 89048400 90801424 
1088.628 92748128 94839648 97006240 99150752 101157336 102915976 104327848 
1092.003 105329656 105904432 106082272 105935720 105561808 105078304 
1094.896 104600392 104227208 104042840 104102384 104433104 105036648 
1097.789 105889880 106948416 108145936 109404152 110629424 111715136 
1100.682 112557776 113056008 113125440 112715896 111815560 110457488 
1103.575 108709344 106669088 104445832 102139648 99843144 97627336 95539976 
1106.950 93612024 91856560 90272024 88845600 87556664 86379496 85285920 
1110.326 84250144 83250360 82268272 81290576 80307088 79309840 78294280 
1113.701 77259832 76211216 75158000 74114200 73095808 72116328 71187032 
1117.076 70315072 69504072 68756344 68073920 67459088 66914156 66439828 
1120.451 66034636 65693764 65410212 65174340 64973116 64790980 64606308 
1123.827 64389936 64108952 63726692 63209572 62536604 61701680 60718272 
1127.202 59615516 58435524 57224900 56024948 54871396 53787456 52784444 
1130.577 51864308 51021648 50246232 49525560 48846604 48198476 47572424 
1133.952 46964472 46375068 45808372 45270912 44769896 44311868 43901392 
1137.328 43541776 43235560 42984868 42791760 42658028 42583792 42568260 
1140.703 42609008 42703500 42849756 43047572 43297680 43601296 43958180 
1144.078 44366068 44819560 45312104 45836024 46383956 46949264 47524844 
1147.453 48102372 48672260 49223928 49747356 50235964 50687176 51102668 
1150.829 51487108 51847132 52188964 52518160 52839860 53159400 53481804 
1154.204 53811756 54152360 54503896 54863196 55224492 55581004 55925444 
1157.579 56251980 56555288 56829344 57067224 57260092 57397984 57471696 
1160.954 57474116 57400292 57247656 57014476 56698960 56299164 55813868 
1164.330 55244284 54595072 53875292 53097316 52274648 51421084 50548716 
1167.705 49667700 48787948 47918412 47068372 46247416 45463288 44722072 
1171.080 44027440 43381004 42783568 42236656 41743392 41308404 40937124 
1174.455 40634308 40403004 40244704 40159540 40147984 40211660 40353660 
1177.831 40578532 40890816 41295068 41795740 42397804 43107872 43935084 
1181.206 44889216 45980652 47218212 48607848 50153356 51857140 53720628 
1184.581 55744132 57924016 60250204 62700024 65236480 67810568 70357384 
1187.956 72804240 75077360 77098352 78795760 80109528 80992216 81420040 
1191.332 81394784 80945816 80124192 78997696 77644376 76136232 74538920 
1194.707 72904872 71268000 69647776 68049856 66470684 64902084 63336404 
1198.082 61771500 60212748 58673796 57174364 55738892 54390428 53147608 
1201.457 52023504 51023436 50146548 49386948 48735788 48182480 47714040 
1204.833 47316112 46971964 46662512 46369316 46075544 45768168 45439924 
1208.208 45088476 44715792 44326216 43925808 43521848 43122436 42738052 
1211.583 42380968 42064140 41801324 41604256 41482332 41442632 41490316 
1214.958 41629596 41864768 42199372 42636132 43175828 43816788 44555692 
1218.333 45389088 46314832 47332960 48445152 49653808 50960464 52365360 
1221.709 53868316 55470000 57174024 58986388 60915632 62968956 65150468 
1225.084 67458120 69883520 72411040 75016680 77669736 80329768 82943552 
1228.459 85451112 87784280 89871296 91649912 93066376 94083576 94684888 
1231.834 94876040 94688968 94179792 93435800 92567464 91694720 90951048 
1235.210 90461080 90330928 90653528 91496328 92906096 94913192 97530560 
1238.585 100754496 104559120 108897448 113693400 118838512 124207312 
1241.478 129649248 134996912 140085952 144742416 148798448 152111872 
1244.371 154564080 156081760 156642848 156274736 155047728 153059936 
1247.264 150437136 147315216 143830864 140123408 136307424 132463936 
1250.157 128630352 124791912 120889824 116834384 112538376 107934840 
1253.050 103001904 97771352 92328136 86798632 81320016 76035880 71068768 
1256.426 66502152 62386396 58731596 55517556 52702020 50232132 48054404 
1259.801 46116076 44373552 42792528 41345792 40014984 38786812 37650880 
1263.176 36598716 35621708 34711708 33861848 33066958 32324668 31634390 
1266.551 30996588 30410858 29875356 29386954 28941990 28538138 28175104 
1269.927 27854376 27578088 27347280 27160790 27015634 26907292 26832880 
1273.302 26791294 26784280 26815258 26887658 27003292 27161496 27358396 
1276.677 27587478 27839962 28103480 28362278 28599180 28795316 28934942 
1280.052 29008404 29014214 28958956 28854130 28712832 28544650 28353646 
1283.427 28138478 27895146 27621234 27318168 26993208 26657780 26326096 
1286.803 26011092 25723564 25471638 25260806 25095150 24977106 24907062 
1290.178 24881834 24895272 24939066 25004096 25083810 25175020 25278578 
1293.553 25397474 25535378 25694842 25876694 26081632 26311098 26568088 
1296.928 26857588 27184776 27553796 27967020 28425312 28928568 29477656 
1300.304 30073384 30715308 31398286 32110092 32831610 33536144 34194396 
1303.679 34780620 35273548 35661236 35941276 36119588 36209328 36228668 
1307.054 36200612 36149584 36099244 36070620 36077604 36126104 36214008 
1310.429 36333884 36475092 36627520 36783788 36938160 37086096 37222600 
1313.805 37341204 37434848 37497512 37525544 37517956 37476416 37403280 
1317.180 37300836 37170624 37014724 36837056 36644068 36445288 36250780 
1320.555 36068784 35904172 35757972 35628900 35516696 35423900 35357904 
1323.930 35330012 35352440 35437348 35594700 35831444 36153580 36565160 
1327.306 37067116 37654272 38311708 39013924 39723084 40397292 40996988 
1330.681 41489844 41859364 42104444 42238520 42283984 42267372 42216680 
1334.056 42155996 42106340 42085240 42105140 42174580 42298012 42476760 
1337.431 42711436 43004620 43361820 43792344 44306180 44910012 45605212 
1340.807 46385356 47237860 48144164 49082484 50027152 50945820 51803192 
1344.182 52560640 53180448 53635104 53908940 54001196 53922296 53689208 
1347.557 53319372 52825004 52213624 51489232 50655824 49722648 48706136 
1350.932 47629248 46521720 45415348 44339280 43320960 42382572 41541720 
1354.308 40812332 40203080 39716436 39348296 39088456 38922912 38836884 
1357.683 38819024 38861816 38960280 39110968 39308356 39545068 39814552 
1361.058 40113164 40444752 40820884 41259284 41777900 42388196 43093636 
1364.433 43888928 44763688 45704184 46695052 47716368 48737236 49716628 
1367.809 50600648 51326092 51834064 52074116 52012076 51635120 50949024 
1371.184 49978748 48762520 47356272 45831056 44265012 42746676 41357528 
1374.559 40157468 39179608 38425540 37875408 37499936 37276464 37196468 
1377.934 37269424 37519800 37983520 38705956 39732668 41108940 42868408 
1381.310 45016804 47511240 50238232 53023784 55626196 57774492 59223740 
1384.685 59760356 59252416 57671556 55118624 51825852 48114588 44356084 
1388.060 40860964 37826456 35333068 33358716 31826556 30639246 29709810 
1391.435 28967456 28359660 27852574 27424460 27064050 26768596 26540474 
1394.811 26383342 26298672 26283182 26328912 26425736 26562066 26726276 
1398.186 26907608 27095012 27279182 27453862 27615902 27765568 27904334 
1401.561 28032576 28149650 28253386 28342364 28418096 28485878 28554770 
1404.936 28633438 28728088 28839010 28962356 29092222 29225068 29362102 
1408.312 29509216 29674510 29864956 30083788 30329520 30598252 30886288 
1411.687 31193634 31523608 31881642 32271166 32691800 33138514 33605272 
1415.062 34087508 34585568 35105468 35656776 36249884 36892168 37586416 
1418.437 38330164 39115360 39930960 40762688 41593024 42402228 43170740 
1421.813 43884600 44539132 45146928 45739448 46365816 47078008 47917964 
1425.188 48907936 50048044 51325868 52726860 54242676 55866956 57587936 
1428.563 59381256 61203212 62995844 64703868 66286072 67728352 69043104 
1431.938 70264624 71435488 72596320 73785112 75037232 76393064 77905592 
1435.313 79638560 81654904 83998920 86666496 89606288 92739480 95983208 
1438.689 99261600 102494096 105590032 108421112 110825296 112641640 
1441.582 113715272 113936144 113256240 111683904 109280256 106142008 
1444.475 102402312 98209400 93709864 89056784 84392544 79855744 75594112 
1447.850 71742512 68404600 65629980 63401772 61652148 60290860 59243072 
1451.225 58464752 57948060 57706784 57756096 58092460 58692228 59512636 
1454.601 60507024 61639620 62881708 64213200 65612444 67052908 68502240 
1457.976 69930648 71323136 72674960 73988144 75266464 76513736 77729768 
1461.351 78907016 80031040 81072032 81982328 82706104 83185736 83385672 
1464.726 83309840 83006488 82550880 82013832 81448376 80879472 80312264 
1468.102 79742144 79159960 78550248 77885496 77121584 76200480 75063504 
1471.477 73682640 72090008 70392720 68739336 67270192 66069588 65152668 
1474.852 64490788 64043792 63786900 63719748 63860744 64229832 64837716 
1478.227 65676964 66727856 67966496 69377128 70958648 72723336 74691032 
1481.603 76879944 79300848 81955040 84840728 87961192 91331888 94977840 
1484.978 98920424 103161160 107652672 112272176 116828440 121045232 
1487.871 124588184 127122360 128334072 128010008 126099584 122744184 
1490.764 118259344 113038640 107478480 101873248 96387184 91093160 85990008 
1494.139 81054944 76291352 71743104 67505072 63705436 60460828 57840656 
1497.514 55848568 54440828 53547168 53098212 53041980 53338368 53955236 
1500.890 54861540 56017976 57375864 58881380 60462468 62032360 63485676 
1504.265 64669600 65388828 65413216 64521276 62608436 59777960 56336320 
1507.640 52647632 48986632 45480580 42143616 38947556 35871316 32915670 
1511.015 30114472 27517118 25164382 23081880 21269416 19706394 18361328 
1514.391 17200082 16190898 15303067 14510188 13793723 13144448 12565919 
1517.766 12067974 11658469 11334470 11078482 10859233 10643355 10406135 
1521.141 10147098 9891979 9678716 9534780 9461560 9437382 9429730 9410768 
1524.999 9365465 9297047 9222378 9162713 9130532 9124408 9132359 9141022 
1528.856 9144169 9146030 9156893 9186030 9234156 9290074 9333879 9343865 
1532.713 9309572 9239200 9159464 9100789 9083703 9109079 9162375 9222581 
1536.571 9271761 9300128 9305916 9292917 9265195 9223089 9162578 9080285 
1540.428 8982955 8888354 8817406 8783695 8785487 8807194 8826773 8827145 
1544.286 8802360 8761313 8722029 8703098 8713037 8747824 8793670 8834584 
1548.143 8860420 8869787 8870632 8874623 8890145 8916560 8945038 8962593 
1552.000 8959582 8933877 8892208 8847028 8811049 8792351 8790255 8798032 
1555.858 8805910 8804726 8786265 8741096 8660202 8537418 8380146 8213780 
1559.715 8074986 7992496 7974879 8012880 8086869 8174645 8255213 8314382 
1563.573 8347246 8358899 8362006 8370857 8394637 8433319 8478557 8518834 
1567.430 8545461 8555565 8553909 8549753 8553639 8572665 8608691 8661385 
1571.288 8730109 8816054 8920212 9041242 9173407 9305713 9424481 9518895 
1575.145 9586942 9640465 9702433 9799246 9945270 10141197 10377356 10643287 
1579.002 10933708 11250201 11599150 11988433 12422797 12902240 13421989 
1582.378 13974456 14551611 15143016 15734335 16305750 16829522 17275964 
1585.753 17620268 17847688 17959940 17975132 17927306 17858458 17813992 
1589.128 17840092 17975340 18251322 18689888 19298218 20064288 20950478 
1592.503 21896670 22817758 23615852 24201664 24499438 24466732 24100430 
1595.879 23437008 22545038 21507110 20413276 19341140 18349714 17482644 
1599.254 16764155 16204001 15799962 15541982 15416277 15408964 15511351 
1602.629 15718738 16028801 16438114 16938410 17513794 18143658 18800524 
1606.004 19452738 20066788 20603284 21021558 21285076 21362648 21237718 
1609.380 20909624 20396156 19730874 18959230 18135782 17311582 16528180 
1612.755 15813259 15176298 14613186 14111075 13654401 13229256 12828416 
1616.130 12455087 12121498 11844887 11639206 11509725 11451242 11450698 
1619.505 11489822 11549229 11612149 11665480 11703977 11730868 11757421 
1622.881 11797254 11861709 11954816 12073425 12210025 12357202 12510670 
1626.256 12668490 12829099 12990108 13146737 13293821 13427936 13549853 
1629.631 13664693 13778742 13897439 14021919 14147974 14266704 14366287 
1633.006 14434789 14461063 14437461 14361664 14240066 14088656 13930387 
1636.382 13788559 13678028 13601851 13553306 13519772 13486480 13440478 
1639.757 13374319 13287057 13185331 13079427 12980207 12893639 12818076 
1643.132 12745324 12663032 12558416 12421570 12249149 12045728 11824901 
1646.507 11605921 11409910 11255301 11152247 11103058 11102446 11139363 
1649.883 11197668 11255301 11285566 11256185 11138479 10922835 10640299 
1653.258 10360491 10152321 10047562 10032405 10072860 10134481 10193940 
1656.633 10239431 10266775 10277157 10273900 10259990 10236989 10204864 
1660.008 10162768 10109384 10043798 9965950 9876929 9780064 9681697 9589957 
1663.866 9513748 9459563 9429086 9419199 9421603 9425836 9419910 9393669 
1667.723 9341598 9263976 9167518 9063504 8965434 8883957 8825792 8793027 
1671.581 8783222 8790188 8804050 8812571 8801413 8758778 8680179 8573713 
1675.438 8459400 8360588 8294726 8265783 8265378 8278717 8292159 8297765 
1679.295 8296347 8295131 8303169 8325629 8358392 8388016 8392814 8351232 
1683.153 8250013 8095781 7918017 7758911 7651321 7602864 7601009 7624546 
1687.010 7655536 7681065 7694927 7695838 7684607 7664338 7638675 7613890 
1690.868 7597030 7594299 7609270 7639990 7678739 7711419 7722280 7698232 
1694.725 7635910 7547062 7457996 7397933 7382935 7409460 7457221 7499594 
1698.583 7508797 7465412 7366152 7231572 7100603 7009878 6977082 6995399 
1702.440 7045607 7105756 7158099 7191617 7201352 7189461 7164162 7137181 
1706.297 7118488 7113671 7123102 7142874 7167666 7193099 7217321 7241679 
1710.155 7269542 7304955 7350448 7405651 7468042 7533442 7597671 7658099 
1714.012 7713848 7764341 7808464 7842572 7861331 7859711 7837579 7801852 
1717.870 7766601 7748285 7757123 7794903 7854617 7925507 7996511 8059730 
1721.727 8112086 8154657 8191528 8227151 8265040 8306276 8350252 8395380 
1725.584 8440649 8485247 8528261 8567528 8600343 8623630 8636237 8639988 
1729.442 8640056 8642321 8650602 8662804 8670106 8656618 8603183 8495654 
1733.299 8332452 8133523 7935429 7777261 7681302 7646026 7653344 7679851 
1737.157 7705247 7714758 7701065 7665046 7614328 7560515 7515338 7487020 
1741.014 7477986 7486447 7507685 7536678 7569180 7601717 7633347 7664034 
1744.872 7695062 7727710 7762452 7798513 7833868 7866021 7892372 7911200 
1748.729 7921695 7923078 7914811 7896455 7869024 7835353 7801549 7774191 
1752.586 7758505 7756043 7763633 7773550 7775372 7759855 7721335 7661202 
1756.444 7587724 7513921 7451828 7407235 7378116 7355604 7328847 7287636 
1760.301 7226619 7146748 7055070 6962233 6879078 6813608 6769316 6745591 
1764.159 6738927 6744244 6755451 6766220 6770461 6764706 6748922 6727587 
1768.016 6707834 6697167 6698244 6708238 6718534 6718333 6698782 6657564 
1771.874 6601345 6544831 6504099 6489333 6502047 6536153 6582708 6634147 
1775.731 6687106 6741216 6797755 6856625 6914863 6966880 7007083 7031362 
1779.588 7040320 7038973 7034797 7035370 7044159 7060357 7078813 7094541 
1783.446 7102893 7102725 7096090 7087030 7079554 7076859 7080463 7090634 
1787.303 7107373 7130041 7157190 7185385 7209168 7221835 7216580 7188956 
1791.161 7139573 7074872 7005400 6942436 6893755 6861977 6844103 6834914 
1795.018 6829495 6824581 6818219 6809872 6798630 6783014 6761307 6732096 
1798.875 6695586 6653594 6609621 6567705 6531545 6502887 6481867 6468313 
1802.733 6460747 6458493 6460612 6466127 6473594 6481934 6489804 6497271 
1806.590 6505107 6514828 6527676 6543385 6560843 6577696 6591926 6602724 
1810.448 6611169 6620084 6632330 6650128 6673815 6702012 6732803 6764335 
1814.305 6796308 6828855 6863155 6899848 6938329 6977048 7014020 7047661 
1818.163 7077162 7102927 7126100 7148196 7170765 7194245 7218803 7243903 
1822.020 7267555 7286928 7298587 7299126 7287097 7264489 7236895 7212605 
1825.877 7199398 7201588 7218028 7243128 7267521 7282649 7283694 7271732 
1829.735 7254279 7241948 7245014 7268026 7309976 7364939 7425807 7487593 
1833.592 7547601 7606033 7664844 7725720 7789000 7854178 7920041 7986556 
1837.450 8055678 8130822 8215704 8313099 8423758 8545664 8674871 8806350 
1841.307 8934823 9055926 9166638 9266243 9358153 9449098 9547922 9663672 
1845.165 9800534 9956932 10124680 10292729 10448728 10582272 10687907 
1848.540 10764731 10815818 10845508 10857943 10854341 10833653 10793738 
1851.915 10732974 10652591 10555587 10446589 10328967 10205135 10074792 
1855.290 9937370 9793315 9645310 9498304 9357915 9228436 9111177 9004064 
1859.148 8903166 8804388 8705363 8605717 8506804 8410346 8316915 8226678 
1863.005 8139735 8057197 7982269 7918759 7869968 7836128 7814166 7797737 
1866.863 7779318 7754491 7722381 7687676 7657829 7639518 7635977 7645251 
1870.720 7661809 7679042 7692498 7699615 7700897 7697423 7690340 7680121 
1874.577 7666429 7649129 7628558 7606134 7583071 7559065 7533273 7502830 
1878.435 7465041 7418425 7363928 7303540 7240567 7177064 7113301 7048335 
1882.292 6980886 6910756 6840266 6773927 6716044 6670114 6636199 6611673 
1886.150 6591859 6571876 6549204 6523304 6496296 6471071 6450758 6437710 
1890.007 6433406 6439123 6455803 6483347 6520176 6562962 6606358 6644678 
1893.865 6673849 6693062 6704940 6714631 6727385 6746331 6771133 6798933 
1897.722 6826028 6849994 6871369 6892274 6916108 6944827 6977519 7011629 
1901.579 7043317 7070056 7091442 7109091 7125696 7143413 7162882 7182892 
1905.437 7201723 7218433 7232313 7244206 7254684 7263545 7269711 7271867 
1909.294 7269172 7262534 7254212 7246328 7240264 7235850 7230831 7223419 
1913.152 7213312 7201824 7191953 7185789 7182117 7176593 7161771 7130378 
1917.009 7078947 7010585 6934322 6862516 6804352 6763628 6736942 6716717 
1920.866 6694912 6666715 6632969 6598519 6569286 6549709 6539752 6535884 
1924.724 6534236 6532150 6530266 6531444 6537599 6548161 6558622 6562491 
1928.581 6553509 6530771 6498213 6463874 6437239 6424696 6427420 6441140 
1932.439 6458930 6474031 6481968 6482136 6474434 6459906 6438215 6409597 
1936.296 6375064 6339559 6309805 6293702 6296223 6316428 6347325 6378662 
1940.154 6400484 6407714 6402098 6390699 6383033 6384815 6396685 6413364 
1944.011 6427554 6433708 6431085 6423721 6418172 6419383 6428664 6443192 
1947.868 6457921 6468549 6473795 6475074 6476789 6482304 6493067 6508370 
1951.726 6526701 6546177 6566460 6587485 6608073 6624760 6633205 6628192 
1955.583 6607434 6573626 6532755 6493537 6464345 6447395 6440670 6439358 
1959.441 6437004 6431320 6424057 6418710 6418105 6422477 6426007 6422376 
1963.298 6406100 6376745 6339088 6300795 6268892 6246673 6233261 6223345 
1967.156 6212556 6200927 6192289 6191079 6202136 6222572 6244892 6260152 
1971.013 6260690 6245395 6220354 6196221 6182542 6185399 6203716 6232824 
1974.870 6268724 6310880 6363262 6431959 6519234 6620588 6723178 6810444 
1978.728 6868171 6890489 6881198 6850667 6813036 6779682 6756662 6745018 
1982.585 6742595 6746095 6752086 6758008 6759758 6752994 6734014 6701238 
1986.443 6658439 6613793 6579849 6567335 6582204 6622876 6679939 6742461 
1990.300 6800313 6848748 6889850 6929373 6973041 7022775 7076219 7127750 
1994.157 7172483 7208393 7236187 7259266 7280190 7298014 7310718 7315671 
1998.015 7311796 7301889 7292017 7287131 7288917 7293566 7291679 7272811 
2001.872 7229483 7160322 7071774 6975802 6882949 6802467 6738153 6688284 
2005.730 6649960 6621497 6601917 6591758 6590210 6592060 6590748 6579176 
2009.587 6553509 6515837 6472248 6431758 6401258 6383874 6377182 6376207 
2013.445 6378157 6382528 6392145 6412355 6446050 6492596 6549103 6610529 
2017.302 6673984 6741047 6814247 6895034 6981594 7065207 7133914 7176963 
2021.159 7188517 7171405 7135666 7096090 7065106 7050557 7053151 7068777 
2025.017 7091813 7117882 7144154 7169720 7191852 7206305 7208259 7194783 
2028.874 7166588 7130277 7095416 7070663 7061637 7069046 7089388 7119195 
2032.732 7157661 7208528 7277932 7370027 7483885 7610720 7738166 7852120 
2036.589 7943122 8009303 8054835 8087173 8113234 8137574 8161681 8185315 
2040.447 8209896 8236505 8268788 8307222 8349542 8389908 8422001 8440041 
2044.304 8443858 8438555 8431156 8429129 8436562 8452204 8471529 8488457 
2048.161 8499674 8503797 8503290 8498965 8490518 8476159 8453251 8421933 
2052.019 8386564 8354001 8333633 8332215 8350860 8384436 8423960 8458961 
2055.876 8482206 8492072 8491464 8485416 8479300 8474941 8471867 8468793 
2059.734 8464941 8461292 8460920 8465854 8475922 8488896 8499844 8503831 
2063.591 8499336 8487139 8470854 8455380 8443723 8435717 8429973 8424163 
2067.448 8416933 8409299 8404029 8403319 8407880 8416190 8424366 8428960 
2071.306 8428183 8421832 8412339 8401360 8389401 8375518 8357750 8335018 
2075.163 8308572 8281858 8258894 8243022 8235221 8232858 8232014 8228974 
2079.021 8222221 8213138 8204662 8199361 8197875 8198517 8197875 8192541 
2082.878 8182310 8169007 8157156 8150809 8152362 8161647 8175591 8190717 
2086.736 8203785 8213982 8221073 8225362 8226239 8221511 8208681 8186125 
2090.593 8154725 8117284 8079105 8045587 8020306 8004949 7999548 8003059 
2094.450 8014736 8034481 8061417 8093282 8126231 8154792 8173599 8180723 
2098.308 8176164 8164753 8152497 8143922 8141896 8146318 8154759 8165630 
2102.165 8178900 8196187 8220195 8252376 8291889 8334985 8377679 8416798 
2106.023 8452136 8487004 8525861 8572225 8626908 8686838 8746302 8800432 
2109.880 8846014 8883382 8915984 8947947 8982144 9019625 9058497 9095883 
2113.738 9129348 9157908 9181563 9202173 9220889 9238895 9257071 9277482 
2117.595 9301956 9333202 9372948 9420790 9474327 9528921 9580472 9626203 
2121.452 9666485 9703381 9740111 9778337 9816598 9851067 9876793 9890081 
2125.310 9890691 9881403 9867405 9853474 9842425 9833612 9824088 9810735 
2129.167 9791384 9766442 9738180 9709176 9681019 9652967 9623799 9591650 
2133.025 9557710 9524958 9498134 9481744 9478899 9488449 9507753 9532849 
2136.882 9560725 9590092 9621765 9655406 9690912 9724931 9754581 9776574 
2140.740 9789621 9793315 9788977 9777388 9757461 9727507 9686237 9632471 
2144.597 9568482 9498711 9426546 9355884 9287602 9220855 9153983 9087087 
2148.454 9022230 8962627 8911452 8868298 8829039 8788058 8738729 8677103 
2152.312 8605210 8526943 8448184 8373120 8302189 8232588 8162963 8095106 
2156.169 8036304 8000055 7999413 8042143 8127548 8243326 8371262 8494201 
2160.027 8600952 8688765 8760333 8820720 8871783 8914056 8947608 8972538 
2163.884 8994153 9018644 9051460 9095139 9145658 9195201 9233818 9254329 
2167.741 9253821 9234935 9203053 9163255 9118959 9071116 9019760 8966144 
2171.599 8914091 8868265 8833569 8811996 8800399 8792487 8781802 8763882 
2175.456 8739710 8713475 8691942 8679165 8675142 8675784 8673993 8665441 
2179.314 8648574 8626198 8603013 8584189 8571482 8564521 8560904 8558978 
2183.171 8560093 8567561 8584189 8611936 8648270 8688089 8725646 8756952 
2187.029 8781295 8801717 8823053 8847874 8876652 8907563 8936751 8962728 
2190.886 8986609 9011236 9040295 9075548 9114223 9151309 9180040 9195743 
2194.743 9196487 9184744 9164507 9140515 9116151 9092940 9070913 9051934 
2198.601 9037826 9031533 9036168 9051798 9075888 9105053 9134457 9161022 
2202.458 9184981 9207486 9229283 9249996 9266278 9273928 9269392 9253517 
2206.316 9230027 9206979 9192121 9189651 9199432 9216726 9234326 9246815 
2210.173 9251181 9249184 9244818 9243058 9246104 9253889 9264653 9276297 
2214.031 9288178 9301211 9317189 9338076 9363975 9392890 9421671 9447643 
2217.888 9468807 9484826 9496509 9504502 9509345 9511749 9512291 9513680 
2221.745 9517811 9527870 9544399 9565467 9586502 9600661 9603574 9592734 
2225.603 9570107 9540808 9511546 9487297 9470670 9460883 9454652 9448760 
2229.460 9440769 9429527 9416049 9401287 9386694 9373252 9362588 9356629 
2233.318 9357543 9367632 9386796 9413205 9442665 9469586 9489872 9501826 
2237.175 9506331 9507414 9509684 9516153 9528480 9545991 9566686 9588737 
2241.032 9611636 9635045 9659234 9683425 9706092 9724796 9738180 9746245 
2244.890 9750955 9755970 9764544 9778811 9799111 9823376 9848694 9872964 
2248.747 9894454 9912623 9928048 9940760 9950694 9957746 9962661 9966797 
2252.605 9972900 9983716 10000329 10022368 10046783 10068858 10084729 
2255.980 10091173 10087781 10076115 10058787 10038136 10015790 9992293 
2259.355 9967577 9942083 9916929 9893606 9874048 9859405 9850118 9845882 
2263.213 9846356 9851541 9861880 9877980 9899843 9926319 9955440 9984495 
2267.070 10011213 10034474 10054514 10072385 10088968 10104805 10118439 
2270.445 10129021 10134685 10134990 10130784 10124205 10117455 10112741 
2273.821 10111623 10113962 10119525 10127258 10135838 10144215 10151100 
2277.196 10155713 10157783 10158155 10158291 10160225 10166635 10178609 
2280.571 10195942 10217279 10239296 10259209 10274782 10284723 10289880 
2283.946 10291304 10289948 10286860 10282348 10276818 10270609 10264943 
2287.322 10260974 10259651 10261008 10264468 10268471 10272271 10275325 
2290.697 10278446 10283094 10290864 10302637 10318313 10336398 10355536 
2294.072 10374540 10393136 10411428 10430367 10449950 10469297 10487389 
2297.447 10502697 10514035 10521470 10525746 10527954 10528870 10528903 
2300.823 10527546 10524524 10519398 10512474 10504191 10495162 10485284 
2304.198 10474015 10460302 10443569 10424257 10404064 10385196 10370671 
2307.573 10361780 10358930 10360627 10364902 10369449 10373352 10376847 
2310.948 10380886 10386892 10395580 10406915 10419743 10432675 10444418 
2314.323 10453819 10460777 10465190 10467260 10467532 10466038 10463323 
2317.699 10460302 10457824 10456569 10457349 10460302 10465122 10471401 
2321.074 10478292 10484198 10487389 10485115 10474286 10452257 10417877 
2324.449 10371961 10317702 10260804 10207068 10162124 10129665 10110198 
2327.824 10102194 10101923 10105382 10109113 10111284 10111113 10109316 
2331.200 10107179 10105823 10106739 10111588 10121593 10137974 10160937 
2334.575 10189666 10222198 10256258 10289846 10321299 10350718 10378850 
2337.950 10406168 10433218 10459046 10482399 10502290 10518312 10531687 
2341.325 10544282 10558371 10575040 10594121 10614221 10633541 10651810 
2344.701 10670622 10693579 10725570 10771660 10834604 10915122 11011017 
2348.076 11117913 11230377 11342121 11447500 11541164 11619330 11679980 
2351.451 11723788 11754120 11775635 11794326 11815061 11840598 11871175 
2354.826 11905297 11940954 11976239 12011153 12046205 12083066 12123167 
2358.202 12167088 12215069 12266668 12321988 12380964 12443562 12509374 
2361.577 12577175 12645395 12712331 12776989 12839439 12900465 12961055 
2364.952 13021825 13081886 13139325 13192400 13239299 13279268 13313432 
2368.327 13342679 13367725 13388841 13405313 13416248 13421784 13423391 
2371.703 13423391 13425373 13432344 13446254 13468195 13498375 13537069 
2375.078 13585337 13644828 13717593 13805524 13909243 14028249 14161085 
2378.453 14305741 14460309 14623364 14793952 14971193 15153584 15339587 
2381.828 15526700 15712244 15893847 16069166 16235473 16390285 16530761 
2385.204 16653897 16757887 16841578 16905752 16952570 16985164 17006770 
2388.579 17019518 17024790 17022172 17010698 16988782 16954914 16908302 
2391.954 16848776 16777137 16694905 16604908 16510488 16415711 16324671 
2395.329 16240599 16165586 16100731 16045922 16001299 15967198 15944820 
2398.705 15936228 15943343 15967678 16009377 16067000 16138555 16221475 
2402.080 16313560 16413407 16520195 16633930 16754547 16882602 17018658 
2405.455 17163818 17319202 17485748 17664022 17853210 18052184 18258994 
2408.830 18472054 18691170 18916900 19150230 19392068 19641736 19896752 
2412.206 20153134 20405428 20648174 20876908 21087848 21278114 21445908 
2415.581 21589320 21707314 21799908 21868410 21915176 21943648 21957448 
2418.956 21959052 21950164 21930960 21901374 21861266 21811476 21753228 
2422.331 21688890 21620556 21550252 21479606 21410020 21343472 21282812 
2425.707 21231662 21193740 21172968 21172238 21193496 21237822 21305364 
2429.082 21396096 21509514 21645074 21801268 21976618 22169368 22377832 
2432.457 22600706 22837770 23088974 23354728 23634990 23929928 24238730 
2435.832 24561844 24899168 25251500 25620042 26005464 26408306 26828404 
2439.208 27265174 27717958 28186594 28671026 29171698 29688700 30222160 
2442.583 30771676 31337238 31919050 32517496 33133150 33766076 34415276 
2445.958 35078348 35752356 36434008 37120168 37808456 38496748 39182872 
2449.333 39863944 40536956 41198476 41846232 42478840 43095944 43697324 
2452.708 44281708 44845200 45381984 45884780 46345504 46758188 47118372 
2456.084 47423088 47670700 47859032 47984720 48044152 48033196 47948456 
2459.459 47788416 47552940 47242924 46860156 46406592 45885076 45299636 
2462.834 44656556 43963604 43230324 42467624 41685140 40892528 40098412 
2466.209 39309552 38533428 37777044 37046688 36348764 35688932 35070944 
2469.585 34498028 33971976 33494018 33065100 32685332 32354440 32070350 
2472.960 31829872 31628404 31459980 31319040 31200042 31097876 31008440 
2476.335 30927488 30850926 30775482 30698594 30618944 30536856 30453184 
2479.710 30369246 30285146 30200102 30111844 30017958 29916354 29806398 
2483.086 29689232 29567170 29443082 29319456 29198134 29080248 28966502 
2486.461 28857636 28754496 28657966 28568004 28484074 28404760 28328112 
2489.836 28252290 28176448 28100370 28024342 27948786 27873702 27798314 
2493.211 27721242 27641678 27558210 27470628 27378546 27281438 27178604 
2496.587 27068776 26950864 26824316 26689630 26548118 26401652 26252172 
2499.962 26100282 25946368 25789802 25630058 25466826 25300948 25133626 
2503.337 24966684 24801700 24640144 24483104 24331654 24187020 24050242 
2506.712 23922190 23803066 23691848 23586886 23485970 23386652 23287916 
2510.088 23188992 23089882 22991038 22892638 22794362 22695516 22596030 
2513.463 22495518 22394682 22294182 22194612 22096288 21998994 21902386 
2516.838 21806878 21713308 21623378 21538726 21461156 21391502 21329828 
2520.213 21275784 21228810 21188938 21156862 21133102 21118074 21111430 
2523.589 21111988 21117588 21126806 21138356 21152060 21167784 21186154 
2526.964 21206924 21229714 21253758 21277628 21301188 21323842 21345488 
2530.339 21365988 21384890 21401004 21414022 21423282 21429236 21432786 
2533.714 21435048 21436648 21438006 21438738 21438772 21438458 21439084 
2537.090 21442566 21450746 21465196 21486116 21512926 21544436 21579604 
2540.465 21618014 21659842 21705364 21754724 21807122 21860744 21913606 
2543.840 21964072 22011752 22057312 22102250 22147716 22194160 22240822 
2547.215 22286090 22328400 22366634 22401206 22432886 22463450 22493774 
2550.591 22524064 22553902 22582138 22607862 22630830 22651424 22670274 
2553.966 22688220 22705570 22722434 22738494 22753542 22767300 22779766 
2557.341 22790626 22799250 22804350 22804244 22797296 22782140 22757942 
2560.716 22724528 22682214 22631772 22573762 22509476 22440456 22368204 
2564.092 22294532 22221256 22149388 22079832 22012868 21949014 21888482 
2567.467 21832312 21781654 21737900 21702230 21675096 21656462 21646260 
2570.842 21643612 21648382 21659702 21677152 21699756 21726682 21756886 
2574.217 21789806 21825552 21864716 21908170 21956334 22009102 22065226 
2577.593 22123412 22181956 22240228 22298404 22357634 22419138 22484178 
2580.968 22552890 22624790 22698972 22774528 22851214 22929172 23009170 
2584.343 23091524 23176340 23263270 23351686 23440854 23530672 23621170 
2587.718 23712600 23804850 23897648 23989764 24080292 24168172 24253024 
2591.094 24335228 24415136 24493726 24571524 24648912 24726212 24803278 
2594.469 24880394 24957104 25033228 25108102 25181164 25252168 25321776 
2597.844 25391432 25463100 25539140 25621622 25711188 25808086 25911124 
2601.219 26019466 26132758 26250764 26374222 26504022 26640270 26782376 
2604.594 26929112 27079178 27231622 27386134 27542958 27703126 27867060 
2607.970 28034874 28205616 28377876 28549920 28719874 28886212 29047548 
2611.345 29202246 29348844 29485456 29610442 29722440 29820700 29904780 
2614.720 29975318 30032870 30078320 30112980 30137910 30154282 30163090 
2618.095 30165294 30161316 30151512 30136170 30115394 30089966 30061134 
2621.471 30030100 29998394 29967296 29937580 29909822 29884656 29862686 
2624.846 29845258 29833582 29829110 29832766 29844726 29864354 29890938 
2628.221 29923028 29960052 30001590 30047534 30097994 30152898 30211824 
2631.596 30274026 30338794 30405812 30474652 30545530 30618482 30693506 
2634.972 30770574 30849256 30929516 31010894 31093784 31178326 31264738 
2638.347 31353266 31443842 31536184 31630006 31725098 31820816 31916626 
2641.722 32011598 32104920 32195832 32284442 32371040 32457008 32543782 
2645.097 32632712 32724916 32820604 32919280 33020514 33123850 33229068 
2648.473 33336852 33447850 33562884 33682316 33806332 33934716 34067724 
2651.848 34205508 34347924 34495912 34649368 34808192 34971852 35140276 
2655.223 35313080 35490812 35673968 35863828 36060684 36264796 36475524 
2658.598 36691728 36912188 37135796 37361536 37589056 37817780 38047568 
2661.974 38278088 38509168 38740732 38973036 39206080 39440448 39675852 
2665.349 39912248 40149216 40386312 40623392 40860672 41098816 41338616 
2668.724 41580880 41826312 42075348 42328072 42584816 42845772 43110980 
2672.099 43380492 43653724 43929692 44207160 44484472 44759608 45031540 
2675.475 45298824 45560388 45815736 46064640 46307312 46544624 46778368 
2678.850 47010472 47243588 47480268 47722732 47973024 48232980 48503952 
2682.225 48787692 49085788 49399644 49730784 50079800 50446960 50831972 
2685.600 51234404 51653664 52088872 52539396 53004092 53481840 53971444 
2688.976 54471588 54981188 55500156 56028344 56565928 57113176 57669776 
2692.351 58235160 58808568 59389228 59976488 60570448 61171360 61779716 
2695.726 62396344 63021780 63656284 64300364 64953908 65616572 66287576 
2699.101 66965492 67648928 68336344 69026368 69718224 70411224 71104712 
2702.477 71797464 72487424 73171288 73845472 74505960 75149256 75771840 
2705.852 76370784 76942632 77484104 77991192 78460056 78887416 79270384 
2709.227 79607520 79897952 80141808 80339176 80490616 80596512 80657592 
2712.602 80675192 80650648 80584984 80478976 80332560 80144992 79915408 
2715.978 79642704 79326584 78967296 78566136 78125312 77647424 77136584 
2719.353 76597128 76034968 75456280 74867528 74275008 73684480 73100592 
2722.728 72528536 71972200 71436312 70925448 70443376 69993872 69579280 
2726.103 69201152 68860000 68556552 68291288 68065088 67878976 67733304 
2729.479 67627704 67560344 67528992 67530264 67561392 67619928 67704376 
2732.854 67813744 67947168 68103568 68281200 68478144 68691680 68919256 
2736.229 69158368 69406288 69660416 69917848 70176048 70432808 70686136 
2739.604 70934888 71177936 71414048 71641488 71858216 72062504 72253112 
2742.979 72430696 72597488 72757232 72914160 73072720 73235768 73405232 
2746.355 73581584 73764544 73953104 74146312 74342872 74540976 74738216 
2749.730 74932176 75120304 75300824 75473304 75638280 75797520 75953304 
2753.105 76108432 76265800 76428224 76598824 76780208 76974592 77182568 
2756.480 77402920 77633168 77868448 78104136 78335624 78558984 78771448 
2759.856 78970792 79154040 79318512 79460000 79574288 79657512 79706312 
2763.231 79718696 79693536 79630680 79530040 79392728 79220008 79014752 
2766.606 78780592 78522456 78245200 77953760 77652224 77344360 77033464 
2769.981 76723224 76417600 76121032 75837960 75571680 75324352 75096464 
2773.357 74887488 74695792 74520280 74359304 74211992 74076712 73951456 
2776.732 73832904 73716560 73597168 73468200 73323664 73157560 72964480 
2780.107 72740576 72483272 72192424 71869320 71517784 71142968 70750592 
2783.482 70346896 69937232 69526240 69117648 68714424 68318704 67931512 
2786.858 67553456 67184008 66821864 66465392 66112912 65763236 65415876 
2790.233 65070944 64729400 64392164 64060456 63735672 63418836 63111736 
2793.608 62815764 62532052 62261520 62003888 61758284 61522900 61295812 
2796.983 61075208 60859896 60649232 60442780 60240192 60040820 59843672 
2800.359 59647332 59450780 59252488 59051596 58847076 58637916 58422600 
2803.734 58199664 57968016 57727296 57478164 57222368 56962872 56702732 
2807.109 56445356 56193376 55948696 55712296 55484908 55266560 55056972 
2810.484 54856056 54663388 54478580 54301316 54130964 53966940 53809056 
2813.860 53656404 53508448 53364816 53225504 53091512 52964224 52846292 
2817.235 52741076 52652120 52583528 52538948 52521596 52534200 52578964 
2820.610 52657320 52769436 52914332 53090280 53294424 53523328 53773692 
2823.985 54042320 54326100 54622124 54926776 55235288 55542140 55840128 
2827.361 56122296 56381328 56610580 56805100 56961132 57076068 57149192 
2830.736 57180524 57171828 57125456 57044932 56933932 56796112 56634968 
2834.111 56453736 56254924 56041764 55817068 55584316 55345856 55104104 
2837.486 54860076 54614160 54366168 54115612 53862500 53607516 53351628 
2840.862 53095520 52839860 52584572 52328916 52072212 51814388 51556052 
2844.237 51298572 51044192 50795176 50553260 50320184 50097388 49885928 
2847.612 49687276 49502904 49334460 49183032 49049136 48932708 48833216 
2850.987 48749988 48682192 48629416 48591504 48568048 48558412 48561824 
2854.363 48577088 48602808 48637716 48680672 48729972 48784204 48841040 
2857.738 48897924 48951624 48999172 49036932 49061676 49070132 49059188 
2861.113 49025916 48967832 48883648 48772860 48636640 48477160 48297820 
2864.488 48102336 47894916 47680016 47462228 47245992 47036468 46838304 
2867.864 46655908 46493504 46354680 46241888 46157492 46102440 46076764 
2871.239 46079340 46107416 46156900 46222424 46298760 46381192 46466472 
2874.614 46552920 46641116 46731988 46827160 46927408 47033404 47144820 
2877.989 47260952 47381368 47505880 47634128 47765816 47900280 48036600 
2881.365 48173780 48310964 48447784 48584392 48720964 48857616 48994312 
2884.740 49130532 49265528 49398940 49530236 49659604 49787040 49911948 
2888.115 50033548 50150564 50261220 50364388 50459352 50546708 50627084 
2891.490 50701812 50772192 50839088 50903084 50964896 51025072 51084476 
2894.865 51143968 51204168 51265760 51328964 51394004 51460584 51529040 
2898.241 51599292 51671432 51744920 51819056 51892608 51964120 52032280 
2901.616 52095560 52152684 52202152 52242320 52270988 52285968 52285484 
2904.991 52268516 52235408 52187020 52125708 52053532 51972708 51884952 
2908.366 51791428 51693112 51590604 51484756 51375840 51264720 51151496 
2911.742 51036476 50919588 50801020 50681108 50560332 50439408 50318736 
2915.117 50198620 50078832 49959304 49839956 49720864 49602584 49485896 
2918.492 49371912 49262004 49157248 49059560 48970572 48892548 48827732 
2921.867 48777976 48744356 48726708 48723704 48732344 48748356 48767300 
2925.243 48784016 48793772 48792732 48777644 48746504 48698648 48634492 
2928.618 48555636 48464492 48364592 48260308 48156680 48059992 47977204 
2931.993 47915376 47881784 47882816 47923480 48007220 48135648 48309040 
2935.368 48526584 48786244 49085380 49420548 49787260 50180320 50593724 
2938.744 51022616 51461740 51907548 52357548 52809360 53260784 53708480 
2942.119 54147212 54570352 54969492 55334300 55653840 55916588 56110980 
2945.494 56227580 56259412 56204348 56065588 55852376 55579272 55263476 
2948.869 54923844 54578128 54239932 53919332 53621948 53349416 53100836 
2952.245 52873536 52664312 52469700 52286940 52113976 51949556 51793036 
2955.620 51644484 51503708 51370172 51242796 51120260 51001040 50884532 
2958.995 50770888 50660704 50555532 50456300 50363380 50275952 50193076 
2962.370 50113636 50036928 49963392 49893992 49830256 49773404 49724024 
2965.746 49682524 49648716 49623160 49606188 49598688 49600804 49611648 
2969.121 49628996 49649052 49667216 49679140 49681224 49671340 49649128 
2972.496 49615732 49573204 49524964 49474756 49427416 49387096 49357736 
2975.871 49340880 49334976 49333752 49327072 49301460 49241224 49131868 
2979.247 48961712 48723480 48416040 48043784 47616420 47147068 46651632 
2982.622 46146880 45647980 45168436 44718436 44304056 43928116 43590784 
2985.997 43290612 43026172 42796992 42603092 42444128 42318028 42218072 
2989.372 42131568 42040704 41923188 41754152 41512664 41183940 40762688 
2992.748 40254408 39675376 39049628 38403240 37762512 37149148 36576152 
2996.123 36049848 35569020 35127812 34717700 34329852 33957644 33596212 
2999.498 33243020 32897334 32559068 32228484 31905748 31591020 31284142 
3002.873 30985344 30695108 30413700 30141498 29878372 29623744 29377134 
3006.249 29137716 28904982 28679026 28460300 28249602 28047668 27854942 
3009.624 27671200 27495548 27326602 27162660 27002198 26844300 26688574 
3012.999 26535684 26386440 26242246 26103940 25972680 25848666 25732140 
3016.374 25623168 25521430 25426562 25337792 25254028 25173440 25094412 
3019.750 25014732 24932714 24847272 24757712 24663712 24565456 24463228 
3023.125 24357798 24250010 24141482 24034552 23931714 23835550 23748258 
3026.500 23670994 23604132 23546516 23496604 23451834 23409732 23367350 
3029.875 23321198 23268094 23204406 23127134 23034152 22924876 22800228 
3033.250 22662456 22515200 22362098 22206714 22052396 21901478 21756050 
3036.626 21617702 21487614 21366302 21253758 21149452 21052440 20961570 
3040.001 20875900 20794728 20717848 20644978 20576080 20510910 20449326 
3043.376 20391120 20336152 20284660 20236440 20191314 20148586 20107008 
3046.751 20065366 20022756 19978864 19934076 19889328 19845798 19803940 
3050.127 19763572 19723834 19683130 19640142 19593620 19543120 19488362 
3053.502 19429002 19365114 19296348 19222710 19144792 19063876 18981970 
3056.877 18901498 18824780 18753438 18688124 18628908 18575198 18526060 
3060.252 18480662 18438450 18398418 18359946 18322064 18284394 18246934 
3063.628 18210376 18176238 18145972 18120962 18101684 18087592 18077228 
3067.003 18068730 18060234 18050424 18038612 18024900 18009392 17992608 
3070.378 17974478 17954966 17933660 17910076 17884006 17855524 17824934 
3073.753 17792968 17761074 17730630 17703262 17680482 17662436 17649080 
3077.129 17638900 17629962 17619956 17606912 17589798 17568234 17542980 
3080.504 17514760 17484610 17453324 17421248 17388412 17354824 17320444 
3083.879 17285482 17250348 17215630 17182468 17152066 17125662 17104364 
3087.254 17088474 17077586 17070176 17064110 17057254 17048154 17036300 
3090.630 17022586 17008664 16996468 16987094 16980824 16977000 16974312 
3094.005 16971900 16969352 16967422 16967524 16970970 16978342 16989540 
3097.380 17003392 17018142 17032474 17045640 17057562 17069418 17082204 
3100.755 17096954 17114290 17133934 17155064 17176264 17196292 17213802 
3104.131 17228316 17239798 17248898 17256896 17264966 17274552 17285894 
3107.506 17298754 17312514 17326100 17338994 17350858 17362790 17375618 
3110.881 17390828 17408968 17429906 17453012 17477194 17501650 17525938 
3114.256 17550122 17574686 17599908 17625720 17651772 17676998 17700812 
3117.632 17722450 17741778 17758830 17773778 17786756 17797838 17806984 
3121.007 17814682 17821794 17829320 17838400 17849930 17864188 17880346 
3124.382 17897162 17913390 17927962 17940498 17951444 17961734 17972508 
3127.757 17984906 17999550 18016784 18036020 18056780 18078194 18099716 
3131.133 18120994 18142000 18163248 18185358 18209270 18235288 18263244 
3134.508 18292792 18323066 18353378 18383242 18412798 18442564 18473058 
3137.883 18504312 18536226 18568214 18599372 18628978 18656924 18683628 
3141.258 18709744 18735932 18762606 18789800 18817514 18845508 18874160 
3144.634 18904060 18935970 18970442 19007446 19046738 19087418 19128760 
3148.009 19170452 19212666 19255960 19300782 19347166 19394734 19442482 
3151.384 19489748 19535910 19580900 19625374 19669956 19715202 19761180 
3154.759 19807928 19855164 19903308 19952568 20004088 20058182 20115130 
3158.135 20174270 20234564 20294694 20354172 20412826 20471832 20532342 
3161.510 20595952 20663394 20734810 20809292 20886226 20964144 21042564 
3164.885 21120718 21198506 21275680 21352208 21427982 21502900 21577098 
3168.260 21650404 21722642 21793256 21861406 21926082 21986376 22041904 
3171.635 22092904 22139974 22183804 22225302 22264780 22301996 22336738 
3175.011 22368588 22397262 22423116 22446492 22468300 22489412 22510106 
3178.386 22531184 22552716 22575052 22598194 22622034 22646712 22671812 
3181.761 22697332 22723270 22750052 22778370 22808958 22842414 22879400 
3185.136 22920020 22964070 23011196 23061020 23113084 23167358 23223176 
3188.512 23280398 23338574 23397388 23456628 23516120 23576250 23637440 
3191.887 23700036 23764288 23830332 23898454 23968230 24039772 24112584 
3195.262 24186144 24259646 24332284 24403218 24472236 24539476 24606096 
3198.637 24673286 24742452 24814260 24888712 24965140 25042320 25119232 
3202.013 25194894 25269340 25343062 25417076 25492684 25570942 25652272 
3205.388 25736748 25823664 25911722 25999450 26084870 26166754 26244112 
3208.763 26317294 26387566 26457006 26527618 26601308 26678956 26760386 
3212.138 26844794 26931122 27018596 27106934 27196488 27287614 27380486 
3215.514 27474440 27568590 27661736 27752818 27841482 27927796 28012324 
3218.889 28095810 28178604 28261096 28343604 28425948 28508804 28592810 
3222.264 28678566 28766710 28857316 28949962 29043864 29138178 29232334 
3225.639 29325978 29419290 29512550 29605724 29698882 29791422 29882810 
3229.015 29972442 30059750 30144658 30227240 30307812 30387014 30465660 
3232.390 30544464 30623744 30703750 30784198 30864516 30944424 31023884 
3235.765 31103466 31184236 31267512 31354014 31443808 31535864 31628512 
3239.140 31720072 31809584 31896726 31982924 32069672 32158472 32249752 
3242.516 32343302 32437834 32531854 32624568 32716092 32807558 32900694 
3245.891 32997064 33097282 33200990 33307266 33414568 33522256 33629756 
3249.266 33737572 33846412 33956964 34069304 34183244 34298080 34412948 
3252.641 34527340 34641368 34755532 34870840 34988368 35108448 35231324 
3256.017 35355748 35480240 35602612 35721024 35834288 35942572 36047000 
3259.392 36149940 36253916 36360940 36471992 36586676 36703552 36820716 
3262.767 36936828 37051168 37163908 37275636 37387064 37498160 37608532 
3266.142 37717404 37824144 37928880 38032520 38136404 38241792 38349816 
3269.518 38460256 38572168 38684260 38795148 38903776 39010188 39114560 
3272.893 39217652 39320112 39422308 39524632 39627060 39729548 39831948 
3276.268 39934516 40037116 40140240 40244192 40349696 40457152 40567112 
3279.643 40679280 40793188 40907744 41021676 41134072 41244856 41354648 
3283.019 41464760 41576468 41690648 41807452 41925852 42044760 42162896 
3286.394 42279644 42395176 42510156 42625860 42742912 42862048 42983148 
3289.769 43106188 43231128 43357788 43486540 43617636 43750896 43886328 
3293.144 44023700 44162628 44303028 44445012 44588184 44732904 44878856 
3296.520 45025332 45172552 45320376 45469284 45619860 45772660 45928052 
3299.895 46086048 46245976 46407368 46569664 46733168 46898540 47066856 
3303.270 47239452 47417212 47600744 47790488 47985904 48186552 48391816 
3306.645 48601064 48813236 49027732 49244192 49462840 49684196 49909308 
3310.021 50139372 50375252 50617176 50865236 51118808 51377372 51640492 
3313.396 51908404 52180928 52458484 52741116 53028652 53320984 53618088 
3316.771 53920496 54228560 54543000 54863836 55190364 55521696 55856144 
3320.146 56192732 56530904 56870440 57211592 57554612 57898992 58243836 
3323.521 58588164 58931016 59271936 59610920 59948604 60284768 60619400 
3326.897 60951200 61278832 61600944 61916528 62225384 62527844 62823848 
3330.272 63113576 63396216 63671060 63937016 64192840 64437324 64669408 
3333.647 64886884 65087684 65269476 65431236 65573296 65697544 65807568 
3337.022 65906936 65998228 66081860 66156088 66217488 66261368 66284524 
3340.398 66284484 66261096 66215016 66147676 66060372 65953872 65827964 
3343.773 65682396 65516344 65329440 65121368 64892000 64641768 64371720 
3347.148 64083188 63778416 63459404 63127868 62784864 62430004 62062444 
3350.523 61680980 61284668 60873772 60449940 60015408 59573100 59125436 
3353.899 58674060 58220232 57764648 57307540 56849512 56391440 55934188 
3357.274 55478548 55025456 54575308 54128976 53687408 53252248 52824592 
3360.649 52406144 51997436 51598660 51208976 50827092 50451536 50080840 
3364.024 49714328 49351496 48992828 48639420 48292412 47953708 47624736 
3367.400 47306248 46998880 46701808 46414004 46134020 45860144 45591524 
3370.775 45327736 45068812 44814708 44565384 44319904 44077352 43836400 
3374.150 43596680 43357900 43121228 42887936 42659272 42436240 42218944 
3377.525 42006836 41799096 41594700 41392880 41192868 40994692 40797736 
3380.901 40601928 40407220 40213516 40021016 39830060 39641000 39453908 
3384.276 39268276 39083780 38899208 38714720 38530060 38346268 38164764 
3387.651 37986556 37812684 37643468 37478044 37315388 37154092 36992892 
3391.026 36830888 36667824 36503960 36339940 36176624 36014780 35855084 
3394.402 35697600 35541620 35386444 35230856 35074396 34916800 34759588 
3397.777 34604300 34453008 34307332 34167616 34033032 33901576 33770804 
3401.152 33638384 33503178 33364796 33223920 33081654 32938688 32795552 
3404.527 32652396 32509248 32366470 32224488 32084834 31947900 31814326 
3407.903 31683680 31554888 31426388 31297032 31165796 31032816 30898384 
3411.278 30763212 30628332 30494414 30361676 30230402 30100656 29972656 
3414.653 29846288 29721518 29598240 29476166 29354834 29233788 29112346 
3418.028 28990410 28867408 28743026 28617088 28489842 28361606 28233230 
3421.404 28105708 27980308 27857802 27738832 27623352 27511328 27401944 
3424.779 27294494 27187810 27080800 26972406 26861396 26747630 26630970 
3428.154 26511770 26391722 26271672 26152676 26035718 25920586 25807242 
3431.529 25695650 25585668 25477894 25372778 25270816 25171754 25075104 
3434.905 24979810 24884746 24789388 24693522 24597330 24501788 24406794 
3438.280 24312346 24217638 24121444 24022786 23921070 23816962 23711478 
3441.655 23606442 23503598 23404032 23308262 23215872 23125350 23035234 
3445.030 22943320 22848140 22749038 22646432 22541966 22437910 22337402 
3448.406 22242564 22154338 22072616 21995090 21919252 21842452 21762458 
3451.781 21678648 21591444 21501890 21411272 21320398 21229646 21138948 
3455.156 21048058 20957224 20866930 20777836 20690186 20604152 20519072 
3458.531 20434080 20347992 20260428 20171356 20081606 19992152 19904104 
3461.906 19817846 19733614 19650786 19568698 19486628 19403812 19319730 
3465.282 19234070 19146904 19058648 18970132 18882292 18796338 18712926 
3468.657 18632126 18553378 18475372 18396724 18315914 18232144 18145386 
3472.032 18055882 17964740 17872856 17781162 17690354 17601082 17513794 
3475.407 17428836 17346788 17267794 17191776 17118390 17046880 16976276 
3478.783 16905510 16833554 16759539 16683130 16604047 16523017 16441004 
3482.158 16359283 16278952 16200839 16124938 16050462 15976341 15901169 
3485.533 15823912 15744368 15662914 15580618 15498302 15417135 15337424 
3488.908 15259102 15182029 15106066 15031318 14958298 14887655 14820110 
3492.284 14756449 14696877 14641183 14588822 14538591 14489085 14438797 
3495.659 14385775 14328890 14267629 14202405 14134453 14065485 13997280 
3499.034 13930420 13864769 13799264 13732298 13662436 13589337 13513654 
3502.409 13437266 13362121 13291054 13225363 13165862 13111663 13061705 
3505.785 13013529 12964708 12913196 12857289 12796338 12730925 12663374 
3509.160 12596378 12533451 12476569 12426889 12382941 12342134 12301195 
3512.535 12257397 12209003 12156286 12100612 12044399 11989523 11937412 
3515.910 11888100 11841040 11795041 11749081 11702649 11655508 11607589 
3519.286 11558927 11509589 11459509 11408992 11358277 11308044 11258429 
3522.661 11209330 11160644 11110944 11059619 11005783 10948965 10889199 
3526.036 10827538 10764663 10701898 10640502 10581627 10526493 10476119 
3529.411 10430807 10390760 10355231 10323131 10293001 10263484 10233630 
3532.787 10202251 10168331 10131090 10089714 10043832 9993277 9938557 
3536.162 9881742 9824495 9769153 9716901 9668856 9624883 9584503 9547109 
3540.019 9512359 9480084 9450352 9422551 9395836 9368817 9339803 9307304 
3543.877 9270271 9228335 9181563 9130803 9077003 9021791 8966482 8913042 
3547.734 8863091 8818421 8779199 8744849 8713543 8682207 8647864 8608522 
3551.592 8562932 8511974 8457474 8401833 8347786 8296887 8250283 8208478 
3555.449 8171810 8140106 8113099 8089704 8068607 8047781 8025672 8000427 
3559.306 7971470 7938904 7903608 7866729 7829752 7793891 7759686 7728081 
3563.164 7698536 7670172 7640597 7606202 7562571 7505966 7434267 7349100 
3567.021 7255964 7163657 7080261 7012404 6962402 6928195 6905033 6887224 
3570.879 6869787 6849219 6823907 6793312 6758312 6719039 6676406 6631355 
3574.736 6585669 6541669 6501946 6468650 6442149 6421232 6403208 6384345 
3578.594 6361816 6333843 6300862 6264892 6228891 6195751 6167452 6144834 
3582.451 6127460 6114052 6102324 6089892 6073662 6050176 6016074 5968370 
3586.308 5906464 5832443 5751249 5670641 5599278 5543968 5508799 5494034 
3590.166 5496484 5510879 5530746 5549539 5561218 5560983 5546284 5516450 
3594.023 5473431 5420889 5364259 5308745 5258670 5216817 5184089 5159041 
3597.881 5139125 5121221 5102144 5079582 5053166 5023501 4993200 4965482 
3601.738 4943128 4928215 4921077 4920842 4925366 4932605 4939609 4943765 
3605.595 4942391 4932739 4911928 4878519 4832515 4776465 4716001 4658391 
3609.453 4609564 4573868 4550998 4537471 4527561 4515507 4497830 4474329 
3613.310 4448485 4424551 4407045 4397405 4393622 4391012 4383414 4365608 
3617.168 4334249 4288838 4232390 4170328 4109413 4055664 4014027 3987375 
3621.025 3976006 3978346 3992090 4014027 4041383 4072019 4104697 4138783 
3624.883 4173640 4206962 4233661 4246242 4234564 4189163 4105567 3989013 
3628.740 3856880 3733842 3643985 3599281 3598044 3627613 3671418 3714459 
3632.597 3745840 3761014 3761181 3751723 3738588 3727025 3719205 3713824 
3636.455 3708778 3701694 3691568 3679171 3666105 3653742 3642816 3633326 
3640.312 3623670 3613547 3603357 3594503 3589893 3591897 3602221 3620630 
3644.170 3645054 3671752 3695044 3709848 3710549 3692905 3654912 3596474 
3648.027 3520741 3432932 3340999 3253927 3180891 3130660 3108935 3117912 
3651.885 3154957 3213702 3284441 3355157 3413729 3449697 3455408 3429425 
3655.742 3377763 3313120 3250422 3202453 3176051 3170511 3179823 3196212 
3659.599 3212200 3222982 3226921 3224718 3219210 3213102 3209029 3208462 
3663.457 3212434 3221246 3235300 3254395 3277997 3304606 3331650 3355257 
3667.314 3369916 3369783 3349547 3306442 3243245 3169142 3099657 3050738 
3671.172 3034088 3052106 3097855 3156259 3208495 3235967 3223516 3165204 
3675.029 3068790 2956218 2855281 2787214 2759803 2766472 2794750 2830701 
3678.886 2864953 2893872 2917922 2939671 2961589 2984275 3006094 3025546 
3682.744 3041962 3057078 3074429 3097355 3127190 3161165 3192507 3212200 
3686.601 3211199 3184296 3131762 3061716 2987144 2920924 2872291 2843841 
3690.459 2832302 2832402 2839372 2850878 2866521 2886800 2911217 2938003 
3694.316 2964391 2987010 3003358 3012934 3017205 3019207 3022143 3028749 
3698.174 3038892 3051405 3062583 3068323 3065219 3051138 3027014 2996419 
3702.031 2964891 2938337 2921791 2918255 2927495 2947778 2975400 3006795 
3705.888 3038459 3068089 3094351 3116944 3135333 3149017 3156025 3154256 
3709.746 3140806 3114174 3074863 3026480 2976101 2932733 2904679 2897841 
3713.603 2913452 2948545 2996452 3049370 3099424 3139738 3166405 3178688 
3717.461 3178454 3170110 3158362 3147314 3139037 3133998 3130961 3129125 
3721.318 3128258 3128625 3131328 3137202 3145112 3152921 3157093 3154223 
3725.176 3143276 3125621 3105631 3090347 3086643 3099157 3128391 3170644 
3729.033 3219277 3265946 3302970 3325340 3331550 3324372 3309147 3291619 
3732.890 3275794 3260037 3239706 3208962 3164269 3107834 3048268 2997453 
3736.748 2966693 2961756 2980838 3017572 3064585 3115743 3168942 3224918 
3740.605 3285275 3348646 3409354 3455175 3469637 3437808 3352753 3225452 
3744.463 3085875 2973832 2919022 2928296 2988312 3074496 3162000 3229024 
3748.320 3262574 3258701 3222815 3166539 3103528 3044632 2995551 2959053 
3752.177 2937469 2932933 2948445 2984174 3036857 3099290 3162233 3217107 
3756.035 3256999 3278732 3283005 3273090 3253794 3229358 3202954 3177587 
3759.892 3156760 3144678 3145312 3160498 3188802 3224885 3260871 3289048 
3763.750 3303938 3304973 3296259 3285376 3280267 3285242 3299264 3316759 
3767.607 3329280 3330115 3315190 3286310 3248953 3212200 3184095 3169276 
3771.465 3168742 3180056 3199082 3221947 3245248 3267381 3287646 3306075 
3775.322 3323504 3339764 3354556 3366310 3372454 3371018 3360366 3341367 
3779.179 3317227 3293021 3274726 3266046 3267715 3277630 3290851 3302369 
3783.037 3308512 3307878 3301468 3292320 3283840 3277997 3275360 3274692 
3786.894 3274792 3275026 3275226 3276261 3278899 3283239 3288380 3293588 
3790.752 3298296 3303104 3309647 3319397 3332953 3348579 3362403 3369248 
3794.609 3364907 3347978 3321267 3292320 3270953 3265612 3280134 3311818 
3798.467 3352519 3389952 3410489 3403944 3365809 3301201 3224751 3157928 
3802.324 3119347 3118479 3153155 3212067 3279233 3336926 3371051 3373422 
3806.181 3344138 3293021 3236869 3193675 3174649 3182727 3212467 3255029 
3810.039 3301735 3346976 3389184 3429525 3469870 3510085 3546864 3573222 
3813.896 3581073 3563734 3519839 3456744 3390586 3340565 3321734 3339163 
3817.754 3386446 3449430 3508850 3547298 3551140 3515063 3445322 3359465 
3821.611 3281803 3232229 3221046 3245448 3294223 3352152 3404745 3442450 
3825.469 3460853 3462322 3453505 3443385 3439778 3445790 3460452 3479557 
3829.326 3497727 3510553 3516466 3516633 3514695 3514962 3521276 3535606 
3833.183 3557921 3585817 3615451 3642214 3660592 3665838 3654711 3626277 
3837.041 3583445 3532399 3481661 3439945 3412527 3400838 3402007 3411391 
3840.898 3423681 3434568 3441615 3444020 3442116 3437206 3431562 3427288 
3844.756 3427521 3435036 3452102 3479657 3517167 3562531 3613079 3666172 
3848.613 3720274 3774149 3826560 3874932 3912677 3929361 3912042 3847419 
3852.470 3730467 3570315 3394527 3239072 3134599 3093884 3110870 3168408 
3856.328 3246984 3331951 3412861 3484934 3546530 3597777 3638706 3669113 
3860.185 3688393 3696815 3695979 3688861 3678235 3665604 3650735 3631723 
3864.043 3608067 3581340 3556819 3541853 3542788 3561028 3591997 3625207 
3867.900 3647894 3648696 3621933 3571986 3513192 3465094 3441915 3448896 
3871.758 3479256 3519973 3555884 3576195 3577164 3563500 3545527 3534771 
3875.615 3540183 3564168 3602922 3648162 3690465 3721310 3734711 3728662 
3879.472 3705603 3672621 3638873 3614382 3606263 3616921 3643183 3677032 
3883.330 3708411 3726524 3723917 3699321 3659890 3619460 3593701 3594971 
3887.187 3626310 3682111 3749450 3813757 3860757 3880214 3868079 3827396 
3891.045 3768133 3703498 3646692 3607566 3590494 3595639 3620029 3659422 
3894.902 3709112 3764189 3819941 3871455 3913914 3943772 3958517 3958317 
3898.760 3945410 3924546 3901143 3880114 3864067 3852968 3843575 3831106 
3902.617 3811284 3781636 3742799 3699321 3658019 3625909 3608335 3607199 
3906.474 3620931 3645856 3677166 3709948 3741128 3768668 3791897 3811150 
3910.332 3827295 3841603 3855108 3869349 3885496 3904051 3924881 3946280 
3914.189 3965071 3977510 3980353 3971759 3952699 3926485 3898434 3873829 
3918.047 3856178 3846851 3844845 3848054 3854372 3862663 3871890 3881953 
3921.904 3891882 3899872 3903750 3901377 3892183 3877907 3861994 3849224 
3925.761 3843876 3848054 3861158 3880147 3901076 3919565 3932604 3938322 
3929.619 3936449 3927689 3913413 3895325 3876102 3858585 3846082 3841703 
3933.476 3846918 3861292 3881919 3904386 3924212 3937085 3941632 3938489 
3937.334 3930197 3920534 3912476 3907963 3906559 3906793 3906191 3902848 
3941.191 3895793 3885831 3874798 3865070 3858986 3858016 3862396 3871555 
3945.049 3883724 3896930 3909234 3918829 3924847 3926853 3925215 3920601 
3948.906 3914082 3906325 3897833 3889207 3880883 3873327 3867377 3863666 
3952.763 3862696 3864435 3868112 3872425 3876370 3878777 3879545 3879144 
3956.621 3878476 3877941 3878074 3878743 3879211 3878977 3877406 3875032 
3960.478 3872659 3871087 3871455 3874665 3880649 3889341 3900006 3912008 
3964.336 3924479 3936483 3947483 3956879 3963934 3968916 3972026 3974233 
3968.193 3976641 3980185 3985369 3992157 3999781 4007372 4013392 4017104 
3972.051 4018040 4016301 4012188 4007004 4001387 3996738 3993929 3993728 
3975.908 3997106 4004028 4014529 4027805 4042822 4057771 4071618 4082622 
3979.765 4090014 4093459 4093459 4090950 4087003 4082822 4078942 4075598 
3983.623 4072320 4068440 4063557 4057838 4051751 4046735 4043758 4043892 
3987.480 4047135 4052788 4059075 4064260 4066902 4065998 4062052 4056032 
3991.338 4049343 4043423 4038708 4035798 4034527 4034093 4034093 4034126 
3995.195 4034159 4034159 4034394 4034761 4035263 4036133 4036902 4037303 
3999.052 4036969 4035230 4031986 4026969 
##END=
