
##TITLE=Z316_1_b
##JCAMP-DX=5.01  $$ Nicolet v. 1
##DATATYPE=INFRARED SPECTRUM
##ORIGIN=UniL
##OWNER=Nicolet
##LONGDATE=2011/09/09
##TIME=12:08:44
##SPECTROMETER/DATA SYSTEM=Nicolet iS5
##DATA PROCESSING=
Ratio against background
%Transmittance->Absorbance
Truncated
ElementMultiply or ElementDivide
##COMMENTS=
Number of sample scans: 32
Collection length: 51.20 sec
Sample gain: 2.0
Background collected on: Ven Sep 09 12:03:29 2011 (GMT+02:00);
Number of background scans: 32
Background gain: 2.0
Sample spacing:  1.000
Number of scan points: 12415
Resolution points: 8192
Number of FFT points: 65536
Apodization: N-B fort;
Phase correction: Mertz;
Laser frequency: 15798.0 cm-1
Number of rejected sample scans: 0
Number of rejected background scans: 0
Bench serial number: ASB1000141;
##RESOLUTION=4.000
##XUNITS=1/CM
##YUNITS=ABSORBANCE
##FIRSTX=649.893372
##LASTX=4000.122314
##FIRSTY=0.079930
##MAXX=4000.122314
##MINX=649.893372
##MAXY=0.265894
##MINY=0.000429
##XFACTOR=1.000000
##YFACTOR=1.000000E-009
##NPOINTS=6950
##DELTAX=0.482117
##ZPD=6100
##XYDATA=(X++(Y..Y))
649.893 79930376 79826560 79816080 79901096 80058960 80253000 80447984 
653.268 80628552 80802560 80997008 81240432 81548352 81916872 82324984 
656.643 82742896 83144088 83514808 83848296 84141392 84389640 84583480 
660.018 84715472 84785872 84805768 84795696 84778576 84771568 84778896 
663.393 84792672 84794208 84761136 84671376 84500192 84220264 83801960 
666.767 83224264 82496632 81677776 80868936 80163168 79604056 79172128 
670.142 78809192 78444888 78019824 77499944 76879704 76181200 75441176 
673.517 74699536 73981664 73293184 72625928 71968440 71315440 70672496 
676.892 70052888 69467912 68921192 68406160 67909232 67418032 66928340 
680.267 66446088 65984032 65554412 65162748 64804712 64470804 64149708 
683.642 63835792 63532196 63247628 62991476 62768592 62576516 62407016 
687.016 62251692 62105368 61969340 61850236 61755536 61687320 61641492 
690.391 61606748 61569936 61520952 61455716 61376216 61288064 61196996 
693.766 61104076 61007824 60905680 60795864 60681196 60567704 60460564 
697.141 60363116 60273388 60185196 60091692 59989080 59878812 59767692 
700.516 59664552 59575228 59500400 59434440 59367464 59289100 59193668 
703.890 59080524 58954392 58821848 58688356 58555932 58422940 58285592 
707.265 58140676 57987404 57827860 57665956 57506760 57355900 57220212 
710.640 57108832 57035824 57018104 57073268 57214544 57441780 57736040 
714.015 58054356 58337172 58513048 58513128 58289764 57824684 57137060 
717.390 56278644 55331968 54397488 53572916 52954008 52617112 52607872 
720.765 52938548 53575164 54435948 55384736 56253152 56864960 57056532 
724.139 56727012 55855500 54513776 52843936 51031260 49263268 47676616 
727.514 46349704 45295776 44481572 43849816 43342416 42918916 42553640 
730.889 42233480 41950596 41694040 41451240 41211772 40970296 40729244 
734.264 40496796 40281924 40088964 39917080 39760664 39614244 39476008 
737.639 39348512 39235744 39139684 39056188 38974956 38882544 38768120 
741.013 38627576 38465796 38294156 38124356 37965620 37821720 37691712 
744.388 37573844 37468000 37376556 37302784 37247476 37206212 37170228 
747.763 37129476 37076532 37009960 36934808 36859560 36791468 36733520 
751.138 36682788 36633432 36581272 36525472 36469904 36420248 36380072 
754.513 36347972 36318468 36284716 36242824 36196432 36154120 36126896 
757.888 36122792 36143244 36183360 36235872 36296060 36364976 36449900 
761.262 36560796 36704060 36879760 37081660 37302752 37539812 37800900 
764.637 38103812 38477416 38954732 39566480 40340132 41294336 42433424 
768.012 43741480 45175900 46670224 48137980 49505612 50742068 51893396 
771.387 53089492 54526772 56418488 58897164 61945184 65326320 68623216 
774.762 71265968 72674800 72451752 70461656 66906856 62238576 57073988 
778.136 52018160 47522700 43874264 41152176 39284780 38108008 37438240 
781.511 37119476 37032580 37105656 37296540 37576736 37927940 38339356 
784.886 38810360 39349892 39973860 40698164 41532536 42480924 43545732 
788.261 44732688 46058560 47551348 49244080 51172632 53368336 55857276 
791.636 58666852 61828652 65379588 69359368 73794424 78681288 83964704 
795.010 89533720 95211616 100754416 105889624 110315736 113734216 115909856 
798.385 116688408 116046000 114098600 111103192 107418088 103421632 99493112 
801.760 95928824 92899408 90450640 88497648 86866616 85328176 83674752 
805.135 81766736 79561080 77122016 74594120 72164096 69989936 68169776 
808.510 66713592 65548592 64541184 63535608 62405752 61069296 59506484 
811.885 57747616 55856520 53905116 51953884 50051096 48229168 46509252 
815.259 44909608 43445268 42127296 40961668 39946908 39075184 38334832 
818.634 37715492 37210184 36816788 36536072 36369624 36317600 36378992 
822.009 36553300 36843076 37256140 37805452 38506996 39374236 40414676 
825.384 41623436 42980880 44446956 45961056 47446152 48803780 49932836 
828.759 50742660 51165212 51179268 50815400 50159716 49332084 48475976 
832.133 47736488 47227928 47030156 47172336 47629024 48319300 49112872 
835.508 49856680 50377484 50521320 50186012 49332084 47999968 46293120 
838.883 44365884 42379212 40472356 38751672 37272348 36047184 35059484 
842.258 34278932 33671936 33208180 32864132 32618138 32448870 32337948 
845.633 32268848 32230732 32219776 32237228 32286302 32369182 32485608 
849.008 32633108 32810024 33017192 33258650 33539868 33865360 34234872 
852.382 34643628 35083016 35544244 36022160 36516104 37029876 37570560 
855.757 38146532 38766052 39439684 40181456 41009076 41945560 43016476 
859.132 44246156 45659128 47277948 49123220 51215092 53567592 56180100 
862.507 59023356 62028616 65081724 68012920 70627816 72722832 74108312 
865.882 74654320 74299616 73067384 71057176 68435472 65412440 62194948 
869.256 58982212 55936072 53162508 50726464 48649428 46922720 45519540 
872.631 44404748 43544192 42904212 42455748 42173448 42033044 42014392 
876.006 42102620 42288188 42568552 42945616 43423004 44000748 44673188 
879.381 45426608 46241480 47094260 47960592 48820684 49658564 50464524 
882.756 51234928 51970992 52677332 53358676 54018756 54657220 55269532 
886.131 55849284 56392572 56902880 57395752 57897212 58440492 59060100 
889.505 59780052 60609872 61540540 62548540 63598672 64651572 65672108 
892.880 66626444 67485296 68222928 68813680 69233600 69463560 69488440 
896.255 69300912 68901816 68300552 67515440 66574456 65517344 64390896 
899.630 63245944 62134808 61099192 60168488 59357588 58666852 58087496 
903.005 57606360 57212652 56899068 56662828 56503544 56421776 56417284 
906.379 56489468 56639796 56872136 57193224 57611544 58134504 58765548 
909.754 59504620 60348648 61293864 62338276 63483260 64732364 66091196 
913.129 67564416 69157784 70879736 72743512 74770376 76990024 79434704 
916.504 82138112 85127352 88417672 92009080 95880600 99988656 104252480 
919.879 108553224 112736520 116603672 119949552 122594632 124415184 
922.771 125391272 125621752 125334752 124838856 124502024 124704872 
925.664 125756728 127882872 131178352 135591792 140913888 146781280 
928.557 152735056 158202544 162583024 165341728 166021936 164349440 
931.450 160268000 153945344 145756288 136217504 125956656 115581088 
934.342 105624720 96526448 88560496 81870176 76489592 72370832 69425376 
937.717 67550664 66653824 66644208 67422016 68868032 70808240 73011832 
941.092 75217880 77131040 78483944 79084944 78833064 77746296 75944696 
944.467 73633800 71049104 68415928 65930232 63719748 61850772 60337228 
947.841 59155544 58262708 57610068 57156220 56866244 56713040 56675284 
951.216 56734072 56871984 57075312 57332984 57637916 57985736 58373592 
954.591 58797796 59253212 59733440 60232656 60747084 61275700 61819636 
957.966 62380240 62957384 63548304 64148248 64751936 65356748 65963052 
961.341 66574604 67196072 67830632 68478424 69136648 69800512 70466176 
964.716 71132344 71800632 72473984 73154544 73842416 74535664 75231672 
968.090 75929544 76631432 77342536 78069552 78817968 79591160 80390168 
971.465 81215104 82067984 82953936 83879936 84853984 85881504 86963472 
974.840 88097088 89277296 90500016 91764208 93071096 94422448 95816432 
978.215 97246080 98698664 100157080 101603832 103023872 104403016 105728984 
981.590 106987408 108161112 109232872 110187728 111017744 111725088 
984.482 112321520 112825272 113255120 113628664 113961080 114264872 
987.375 114554256 114846032 115156872 115503136 115895096 116336056 
990.268 116822288 117346880 117903488 118488712 119102880 119747384 
993.160 120422240 121123656 121844944 122578240 123318544 124064480 
996.053 124818368 125582368 126356008 127133552 127905728 128662304 
998.946 129396720 130108160 130801272 131483408 132161424 132839472 
1001.839 133520352 134207336 134907904 135633904 136399408 137217424 
1004.731 138095536 139034048 140028448 141073776 142169120 143320688 
1007.624 144539456 145837632 147223216 148697040 150252096 151877344 
1010.517 153562192 155297616 157076496 158891008 160728672 162573008 
1013.409 164407488 166220416 168011792 169795424 171597424 173447536 
1016.302 175372752 177392816 179517728 181751584 184095888 186551232 
1019.195 189116272 191783232 194536496 197352592 200206352 203081904 
1022.087 205979008 208917168 211928464 215050336 218311808 221725024 
1024.980 225285248 228974304 232767424 236633936 240538576 244434528 
1027.873 248253728 251913136 255316384 258362256 260966480 263061856 
1030.766 264600064 265550912 265894080 265621520 264742640 263292320 
1033.659 261335728 258955712 256247168 253292464 250144928 246828880 
1036.552 243341008 239665488 235785584 231696016 227406448 222942336 
1039.446 218342624 213660640 208967808 204344768 199878832 195651120 
1042.339 191712432 188075568 184704848 181527568 178445424 175360544 
1045.232 172204256 168944064 165592176 162194304 158819728 155543776 
1048.125 152432080 149541152 146908128 144551296 142471648 140652560 
1051.018 139063616 137662752 136406800 135255472 134176152 133148488 
1053.911 132159728 131200848 130263328 129334688 128399808 127445192 
1056.804 126458928 125433864 124365896 123251216 122083680 120855864 
1059.697 119560328 118194216 116762584 115279440 113765000 112241368 
1062.590 110730408 109249192 107810592 106426232 105105560 103857080 
1065.483 102686160 101591856 100564752 99586904 98636408 97691024 96734312 
1068.858 95759592 94770360 93778240 92798720 91849560 90947824 90107960 
1072.234 89343720 88666264 88083168 87597888 87208440 86907816 86684896 
1075.609 86526952 86420408 86349984 86298536 86243536 86156488 86008272 
1078.984 85770392 85424288 84967112 84413344 83794240 83149024 82522832 
1082.359 81957480 81487552 81143480 80950256 80929056 81100712 81482792 
1085.735 82090440 82936248 84027992 85369920 86959752 88785392 90817880 
1089.110 93002504 95261376 97486928 99552936 101341488 102749672 103715696 
1092.485 104229272 104332104 104110040 103672192 103146456 102653880 
1095.378 102295024 102152016 102276448 102691576 103394728 104359368 
1098.271 105537304 106857752 108236992 109574608 110756656 111673536 
1101.164 112219480 112308424 111892632 110965376 109567184 107773520 
1104.057 105689296 103428816 101095024 98781472 96558600 94473104 92554512 
1107.433 90813928 89248640 87843664 86575888 85416664 84334152 83299208 
1110.808 82286776 81276152 80252880 79206600 78130704 77022504 75884008 
1114.183 74722912 73551368 72386224 71245672 70145640 69099976 68117944 
1117.558 67205160 66365204 65600536 64912700 64302408 63769244 63310488 
1120.934 62921152 62594616 62321256 62087940 61876904 61663148 61412432 
1124.309 61087524 60647972 60059388 59302548 58375864 57299144 56107100 
1127.684 54846804 53567628 52311872 51113624 49994248 48962860 48019172 
1131.059 47156080 46362572 45624756 44929484 44265160 43623204 42999464 
1134.435 42395176 41815108 41266320 40756716 40292832 39879268 39519412 
1137.810 39215872 38971076 38787900 38668868 38615120 38625840 38698496 
1141.185 38829640 39015876 39255620 39548152 39893872 40291672 40738812 
1144.560 41229516 41756596 42311928 42887496 43476544 44072180 44666876 
1147.936 45252824 45821480 46365080 46878904 47361300 47814088 48240940 
1151.311 48646500 49035000 49409780 49774332 50132864 50490428 50852684 
1154.686 51223552 51604596 51993696 52385548 52772956 53147644 53502192 
1158.061 53829568 54122068 54370860 54565880 54695892 54750992 54722688 
1161.437 54605556 54396620 54094260 53697796 53206888 52622796 51949180 
1164.812 51192536 50363604 49475240 48540740 47573896 46586376 45588836 
1168.187 44591304 43603608 42635436 41697072 40797156 39942728 39138780 
1171.562 38388472 37693736 37056976 36480892 35969176 35525616 35153176 
1174.938 34853680 34627728 34475752 34398492 34398204 34478300 34643304 
1178.313 34897700 35245772 35691884 36240772 36899024 37675592 38579848 
1181.688 39621940 40810988 42153328 43654712 45319824 47153088 49157876 
1185.063 51333552 53671812 56151552 58736188 61376708 64007120 66553204 
1188.438 68938784 71081800 72906400 74347232 75351472 75890480 75962544 
1191.814 75596160 74842800 73773016 72468240 71003840 69447928 67854072 
1195.189 66255188 64668564 63096524 61532672 59966484 58389660 56801096 
1198.564 55208912 53631096 52091412 50618408 49238216 47971064 46830628 
1201.939 45821556 44941616 44182764 43533900 42981980 42511728 42106928 
1205.315 41749632 41420144 41100488 40774480 40430204 40061348 39666920 
1208.690 39249600 38814636 38369032 37920960 37479380 37055532 36661840 
1212.065 36310868 36015720 35787436 35634656 35564528 35582504 35693576 
1215.440 35902876 36214836 36632492 37156580 37785752 38516732 39346120 
1218.816 40272476 41296160 42419724 43646100 44977440 46414996 47959592 
1222.191 49613320 51381024 53270600 55291812 57453576 59760928 62213032 
1225.566 64801716 67511456 70316944 73184744 76069552 78910544 81639040 
1228.941 84175656 86437352 88351760 89856824 90909784 91492480 91612640 
1232.317 91308496 90645120 89722656 88665656 87607744 86695864 86066160 
1235.692 85833456 86097904 86932632 88388512 90500304 93284632 96740816 
1239.067 100845304 105551120 110778896 116412032 122313104 128313464 
1241.960 134222048 139849008 144991344 149452368 153066144 155695824 
1244.853 157259456 157737040 157168160 155642896 153283872 150245264 
1247.746 146690272 142780912 138678096 134511504 130369424 126287968 
1250.639 122243864 118164032 113941392 109474064 104685304 99550400 94105552 
1254.015 88446264 82712280 77052536 71620464 66543900 61906744 57756212 
1257.390 54097036 50902416 48123028 45700024 43574812 41690212 40000524 
1260.765 38470392 37072672 35790172 34610684 33524584 32523244 31597328 
1264.140 30737144 29934422 29182966 28479862 27824878 27219170 26663416 
1267.516 26156688 25696388 25279348 24903274 24567736 24273942 24024082 
1270.891 23819446 23659272 23541024 23460964 23416094 23405184 23429138 
1274.266 23489818 23589194 23727786 23904230 24114930 24354538 24615108 
1277.641 24885484 25150900 25394418 25596844 25742056 25819902 25828200 
1281.017 25773100 25665244 25517070 25337864 25131238 24896604 24631518 
1284.392 24335124 24011266 23668824 23320568 22981328 22663782 22378356 
1287.767 22132338 21930508 21775662 21668722 21608264 21589320 21603910 
1291.142 21642812 21697180 21761274 21833984 21918380 22019316 22141614 
1294.518 22288150 22459614 22655962 22877862 23127656 23409522 23728346 
1297.893 24087752 24489764 24934818 25423190 25955900 26534346 27158744 
1301.268 27824702 28520906 29229038 29923772 30577346 31165438 31668212 
1304.643 32074488 32381464 32593888 32722880 32784120 32798414 32788408 
1308.019 32776472 32783370 32822676 32900586 33015438 33160076 33324440 
1311.394 33498742 33675764 33849960 34016228 34169084 34301056 34404300 
1314.769 34472164 34500504 34488304 34437152 34349468 34227268 34072384 
1318.144 33887068 33675548 33445418 33207394 32972504 32750498 32547600 
1321.520 32365720 32204646 32064430 31947720 31861354 31815502 31820924 
1324.895 31888384 32026618 32241974 32540210 32925676 33399936 33957964 
1328.270 34585568 35257668 35937428 36584260 37160516 37635988 37995452 
1331.645 38238356 38377108 38431148 38423944 38379496 38318656 38260828 
1335.021 38222688 38217588 38255688 38343664 38485092 38682956 38941616 
1338.396 39268352 39673380 40167208 40756244 41440956 42213944 43061880 
1341.771 43965768 44904060 45851896 46777300 47644704 48414780 49047948 
1345.146 49514416 49796736 49892508 49811824 49571792 49190640 48681304 
1348.521 48052408 47308720 46455120 45501880 44467108 43375144 42257692 
1351.897 41147548 40074212 39064964 38140852 37317588 36607188 36016508 
1355.272 35546544 35191908 34941868 34782132 34697960 34678400 34716264 
1358.647 34807440 34949368 35137836 35366780 35630844 35927640 36261300 
1362.022 36642952 37089092 37615536 38231988 38941072 39737424 40612624 
1365.398 41555212 42552216 43585108 44621888 45618240 46514784 47241408 
1368.773 47733488 47936984 47818116 47367992 46600096 45548940 44261712 
1372.148 42802512 41247260 39675048 38171096 36810292 35643936 34696632 
1375.523 33963628 33421156 33039142 32795590 32683722 32715234 32916598 
1378.899 33325906 33990824 34960432 36282984 37996172 40108480 42578056 
1382.274 45290148 48066840 50660480 52793608 54216848 54715356 54160200 
1385.649 52530424 49936816 46621972 42913832 39185228 35742676 32775580 
1389.024 30355032 28451348 26982348 25848418 24962122 24254110 23673688 
1392.400 23188224 22777148 22429326 22141402 21915244 21753854 21658972 
1395.775 21628114 21655106 21731734 21848618 21996242 22165254 22344972 
1399.150 22525180 22697576 22856418 22999422 23126434 23237822 23333400 
1402.525 23412738 23476318 23527278 23572262 23620576 23680686 23757464 
1405.901 23850706 23955626 24066458 24179872 24297488 24426316 24575134 
1409.276 24751396 24958156 25193420 25452000 25728626 26021400 26332574 
1412.651 26666870 27027976 27416274 27828162 28258796 28704796 29167624 
1416.026 29654466 30176376 30745856 31372142 32058936 32802128 33589624 
1419.402 34403764 35223956 36029324 36800700 37522440 38186180 38793844 
1422.777 39362916 39927144 40534696 41234256 42062280 43036524 44155144 
1426.152 45406744 46780588 48273120 49883216 51602656 53408768 55256212 
1429.527 57082868 58827160 60440112 61899256 63211024 64405196 65524548 
1432.903 66614972 67724440 68902744 70207248 71709880 73490376 75620736 
1436.278 78142056 81035296 84227304 87619664 91119360 94648712 98127904 
1439.653 101464224 104519544 107113072 109062168 110190592 110375456 
1442.546 109569272 107793608 105132960 101710152 97685048 93227992 88499848 
1445.921 83662096 78858968 74225080 69900336 66009224 62644832 59847052 
1449.297 57593008 55812168 54413976 53324280 52499352 51930732 51631088 
1452.672 51614592 51879576 52407116 53164004 54116852 55246016 56538304 
1456.047 57981496 59547904 61186504 62831960 64427720 65946736 67386104 
1459.422 68757352 70075160 71352344 72596320 73806360 74974928 76079816 
1462.798 77080032 77923112 78548784 78910352 78995272 78833064 78484624 
1466.173 78013992 77474352 76895480 76287872 75653112 74987376 74280192 
1469.548 73509760 72637592 71611008 70375384 68904232 67227832 65448612 
1472.923 63709728 62147692 60846440 59823932 59056304 58508880 58161740 
1476.299 58017508 58096284 58418088 58993216 59814544 60864012 62120892 
1479.674 63572696 65221080 67079044 69165440 71495168 74075848 76907304 
1483.049 79988968 83328344 86946512 90874128 95135304 99729704 104601408 
1486.424 109610728 114544640 119099576 122912128 125622224 126896072 
1489.317 126511112 124420560 120784480 115947192 110335592 104376976 
1492.210 98389392 92552336 86949064 81584536 76439448 71519312 66867084 
1495.586 62571652 58750752 55507840 52898576 50915752 49509216 48606216 
1498.961 48136796 48048632 48301228 48861472 49698276 50773384 52041132 
1502.336 53452236 54941628 56431396 57827180 58990180 59740472 59861508 
1505.711 59134928 57441552 54851316 51629260 48110368 44561052 41116916 
1509.087 37808272 34623892 31556208 28614610 25836992 23273512 20962094 
1512.462 18924792 17157614 15637323 14331218 13205346 12228803 11372155 
1515.837 10610758 9926895 9311806 8768548 8305668 7929557 7635775 7405988 
1519.695 7209067 7012437 6793312 6552871 6317705 6125511 6001998 5946569 
1523.552 5936223 5937869 5924366 5881945 5815820 5744634 5691018 5667888 
1527.409 5673360 5694275 5715492 5729593 5738793 5752491 5779118 5819346 
1531.267 5863104 5892223 5888092 5842920 5767466 5689239 5637341 5629117 
1535.124 5661812 5718044 5774988 5813704 5823913 5804100 5758837 5694510 
1538.982 5615490 5522658 5418339 5312132 5222115 5166217 5153643 5178355 
1542.839 5221780 5260347 5276378 5264807 5235329 5206858 5197468 5215207 
1546.697 5254880 5301601 5338765 5356712 5355269 5344535 5337826 5345340 
1550.554 5366641 5391835 5405892 5397035 5361844 5306933 5245523 5192941 
1554.411 5159175 5145227 5143752 5142980 5131245 5097015 5030305 4923221 
1558.269 4776699 4608024 4450058 4340340 4300316 4328660 4407814 4513231 
1562.126 4620849 4709837 4767889 4793081 4794254 4787788 4790435 4812379 
1565.984 4852618 4900635 4941653 4964744 4965583 4948792 4925702 4909783 
1569.841 4911225 4934314 4978754 5042372 5123601 5220707 5330078 5444878 
1573.698 5553902 5644827 5709315 5749100 5779521 5825961 5913920 6054712 
1577.556 6244286 6469255 6716717 6980449 7262635 7571000 7915485 8303000 
1581.413 8735315 9209551 9719882 10259888 10821830 11394263 11959516 
1584.789 12491402 12959212 13335094 13599115 13747174 13792389 13764754 
1588.164 13705179 13659735 13677208 13799230 14060145 14483501 15077284 
1591.539 15829410 16701585 17633724 18540446 19324406 19897342 20184926 
1594.914 20146156 19779942 19124570 18249662 17238108 16179033 15147649 
1598.290 14199735 13375173 12694862 12166373 11787211 11548446 11438383 
1601.665 11446037 11563929 11787755 12113525 12535293 13041799 13614911 
1605.040 14232602 14867802 15490199 16068272 16565699 16944820 17172058 
1608.415 17219320 17072278 16732644 16219411 15566709 14819288 14030679 
1611.791 13249410 12514490 11850744 11265162 10752061 10296971 9883675 
1615.166 9497424 9130397 8785860 8476429 8220195 8032322 7918860 7875164 
1619.023 7888289 7939680 8010012 8082041 8142605 8186362 8216379 8244171 
1622.881 8283580 8346469 8437608 8553774 8687514 8831203 8979945 9131378 
1626.738 9284657 9437991 9587857 9730488 9863032 9985919 10102805 10218364 
1630.595 10336127 10456059 10573886 10680810 10766565 10820064 10831750 
1633.971 10795097 10709099 10581559 10429213 10275426 10142757 10044307 
1637.346 9981444 9945371 9922725 9898419 9859676 9799483 9717443 9620309 
1641.203 9518523 9422686 9338212 9263739 9191106 9108301 9002947 8865086 
1645.061 8690860 8484841 8260447 8037823 7840075 7687710 7591871 7554513 
1648.918 7568337 7619622 7689261 7752266 7780094 7739751 7603909 7367871 
1652.776 7069821 6785908 6585770 6497002 6499861 6555931 6629168 6696460 
1656.633 6746701 6777326 6790755 6790620 6779985 6759590 6728394 6684145 
1660.490 6625063 6550281 6460915 6360303 6254807 6153471 6066169 6001091 
1664.348 5962257 5948551 5953019 5964709 5971629 5961686 5925912 5861492 
1668.205 5772570 5669399 5566051 5476485 5410019 5369962 5354364 5357181 
1672.063 5369493 5380026 5376101 5345340 5279229 5178154 5055948 4937129 
1675.920 4845280 4795192 4785510 4803031 4829030 4848128 4852853 4845515 
1679.778 4835832 4834592 4847793 4870645 4888337 4877949 4817806 4697042 
1683.635 4527393 4343888 4192241 4103961 4082488 4109246 4159054 4211278 
1687.492 4252130 4275453 4280505 4269564 4246643 4217668 4189699 4170395 
1691.350 4165946 4178625 4204653 4233929 4250458 4237709 4183710 4089746 
1695.207 3973263 3867009 3803295 3795507 3834115 3891246 3934844 3934410 
1699.065 3872157 3751556 3603256 3475248 3406248 3408686 3466664 3552710 
1702.922 3638706 3704835 3739424 3739324 3710416 3665069 3619394 3586251 
1706.780 3572620 3578634 3599682 3629384 3662196 3695211 3728094 3762518 
1710.637 3800588 3843274 3889508 3937319 3983697 4026702 4065798 4102088 
1714.494 4135939 4166381 4188896 4196691 4184279 4151528 4106904 4066601 
1718.352 4049109 4065196 4116270 4193814 4284789 4376352 4458661 4527293 
1722.209 4582440 4627413 4667032 4704980 4743166 4781490 4819147 4855734 
1726.067 4890649 4923389 4952378 4974933 4988072 4990988 4984787 4974297 
1729.924 4964711 4958846 4953752 4940145 4901841 4820855 4685520 4498868 
1733.781 4286495 4088809 3945912 3876068 3872324 3911106 3965071 4012355 
1737.639 4037437 4033992 4004430 3958284 3908732 3867878 3843307 3836288 
1741.496 3843642 3860356 3881518 3904018 3926485 3948854 3971960 3997441 
1745.354 4025932 4057537 4091652 4126205 4158854 4186754 4207664 4219174 
1749.211 4219876 4208467 4185717 4155208 4122960 4097171 4084996 4089779 
1753.069 4109714 4137913 4163437 4174042 4160526 4118545 4052420 3973330 
1756.926 3896562 3835418 3795206 3772612 3757237 3737285 3701827 3645322 
1760.783 3569012 3480391 3390920 3311918 3251991 3214437 3197981 3198014 
1764.641 3207861 3219978 3226521 3221513 3202654 3172713 3138871 3111538 
1768.498 3099290 3103662 3119180 3133898 3134532 3111004 3062517 2998954 
1772.356 2939471 2903478 2901377 2932332 2986543 3050671 3113907 3170878 
1776.213 3221347 3267414 3311250 3352419 3387781 3413328 3426353 3427855 
1780.071 3422645 3417870 3419440 3430160 3447693 3466731 3481995 3490144 
1783.928 3491347 3488942 3487740 3491648 3502837 3521242 3545494 3574391 
1787.785 3606597 3640377 3672588 3697583 3708411 3697884 3661427 3599548 
1791.643 3519505 3434034 3356092 3295759 3256398 3234833 3224885 3220412 
1795.500 3216940 3211833 3204590 3194409 3180424 3161265 3135767 3103528 
1799.358 3066421 3026680 2988011 2953249 2924593 2902311 2886967 2878462 
1803.215 2877061 2883065 2896340 2915253 2937836 2961789 2984775 3006228 
1807.073 3025513 3042963 3058613 3071426 3080136 3084073 3083706 3080469 
1810.930 3077700 3078367 3084274 3095619 3110870 3127657 3144211 3159863 
1814.787 3174983 3190671 3208028 3226988 3246950 3267147 3286778 3306242 
1818.645 3326542 3348379 3372454 3397933 3423180 3445790 3463658 3474446 
1822.502 3476784 3470371 3455475 3435069 3413662 3397365 3392223 3401873 
1826.360 3425384 3457346 3489343 3511455 3516232 3501835 3473344 3441715 
1830.217 3420375 3419874 3443519 3487773 3543891 3602054 3655613 3701761 
1834.074 3741295 3777893 3815362 3856178 3901343 3950693 4004028 4063022 
1837.932 4130353 4209103 4301721 4408183 4525920 4650387 4775661 4896011 
1841.789 5006238 5103586 5187911 5263634 5339201 5424579 5529504 5658657 
1845.647 5809943 5974652 6141373 6297433 6432498 6541165 6622002 6677415 
1849.504 6711333 6726443 6722876 6698647 6651037 6578301 6481766 6365750 
1853.362 6236320 6099334 5959368 5818271 5676851 5535914 5396666 5262125 
1857.219 5135067 5016964 4907371 4804003 4703607 4604976 4508343 4415647 
1861.076 4329564 4251562 4180364 4113628 4048808 3985101 3924379 3870720 
1864.934 3827763 3797178 3776556 3760279 3741462 3715328 3681409 3644687 
1868.791 3613012 3594035 3591262 3603256 3624172 3646792 3666005 3678335 
1872.649 3683114 3681176 3673256 3659756 3641245 3618291 3592298 3565471 
1876.506 3539615 3514628 3489109 3459951 3423948 3379834 3328812 3273791 
1880.364 3218509 3165705 3115309 3065453 3013401 2956918 2897007 2836937 
1884.221 2780644 2731860 2691151 2656178 2623042 2587675 2547712 2503553 
1888.078 2458333 2415483 2379234 2352615 2336824 2332360 2339689 2358045 
1891.936 2385497 2419448 2455334 2488691 2516517 2538413 2556744 2576176 
1895.793 2600175 2630242 2664779 2699152 2728593 2750566 2764738 2773942 
1899.651 2781811 2790915 2801420 2811691 2819161 2822797 2823731 2825832 
1903.508 2832802 2847743 2871124 2900143 2930698 2958453 2979771 2992982 
1907.365 2997954 2994183 2982506 2963957 2940572 2915787 2894172 2878862 
1911.223 2871724 2871591 2875059 2877861 2877428 2872625 2864653 2855214 
1915.080 2843808 2827299 2801487 2761670 2707121 2642343 2576509 2520383 
1918.938 2481659 2460832 2451869 2445604 2432542 2407886 2372770 2333226 
1922.795 2296651 2268771 2250319 2237697 2226306 2212285 2195401 2178650 
1926.653 2165663 2158604 2156506 2155874 2152344 2144019 2131766 2118547 
1930.510 2107659 2100567 2094441 2085219 2068373 2042272 2009516 1975664 
1934.367 1945508 1922078 1904805 1889164 1871460 1850496 1828701 1810934 
1938.225 1801884 1801551 1805477 1805344 1792035 1760329 1710995 1650557 
1942.082 1589296 1537187 1499847 1477804 1469692 1471820 1482957 1502807 
1945.940 1530238 1562093 1593286 1616732 1627042 1623351 1609682 1591524 
1949.797 1576459 1567148 1561927 1556440 1546032 1528775 1507661 1489374 
1953.655 1478768 1478203 1484021 1487246 1478270 1450044 1399814 1331442 
1957.512 1252382 1169382 1088391 1013592 945946 887407 841458 810020 794020 
1961.852 790966 794452 796709 793290 781904 766370 752164 743733 741576 
1966.191 743235 743368 738257 729030 719106 712568 710743 709183 698729 
1970.531 671781 625258 563976 501110 452581 429463 434670 460907 494707 
1974.870 525757 549046 568687 595030 636805 694979 763416 829606 882925 
1979.210 919049 942525 961520 985131 1017179 1054079 1088557 1114400 1128452 
1983.550 1134067 1138884 1149515 1168784 1194964 1221745 1243111 1256934 
1987.407 1265341 1274281 1289468 1312997 1342576 1374784 1404600 1431926 
1991.264 1460051 1494095 1537952 1591025 1647364 1698454 1737840 1763124 
1995.122 1775766 1782287 1788575 1796860 1806641 1814727 1817655 1814893 
1998.979 1808837 1801917 1796128 1789839 1776997 1751679 1709930 1651787 
2002.837 1582811 1510753 1441068 1375715 1313063 1248294 1178850 1107225 
2006.694 1039464 984267 947971 929575 923067 919282 909719 891524 868416 
2011.034 845840 830038 823133 822568 823266 822668 821008 822668 834154 
2015.373 858688 894280 934855 972312 1000474 1020666 1037937 1059991 1091779 
2019.713 1132273 1173967 1207723 1226098 1226796 1215731 1201410 1191343 
2023.570 1190778 1198553 1210581 1222576 1233142 1242812 1253977 1266006 
2027.428 1274214 1271689 1252083 1212873 1159016 1101811 1053680 1025382 
2031.285 1022327 1041358 1076300 1121775 1174365 1235103 1307081 1392434 
2035.143 1489008 1593652 1699984 1804179 1904340 2000329 2091545 2175953 
2039.000 2248887 2305411 2343687 2366840 2382165 2399557 2427444 2467597 
2042.857 2517184 2567643 2611042 2643077 2665213 2682116 2700686 2725125 
2046.715 2755235 2787180 2816327 2840039 2858616 2875460 2892837 2912318 
2050.572 2932966 2952315 2969062 2985809 3005727 3034455 3075164 3126088 
2054.430 3181425 3233898 3275761 3304573 3322468 3334054 3344505 3356827 
2058.287 3369849 3380435 3386412 3388149 3389084 3395095 3410723 3435637 
2062.145 3466697 3496524 3518303 3529660 3532132 3530529 3530328 3534103 
2066.002 3539548 3543089 3540316 3529860 3515831 3504474 3501835 3511054 
2069.859 3530395 3553512 3573322 3584948 3587387 3584280 3580505 3579636 
2073.717 3582275 3586551 3588890 3587053 3582209 3576563 3574357 3577698 
2077.574 3585616 3594904 3602421 3605261 3604025 3601653 3600717 3603156 
2081.432 3608335 3613513 3616019 3615284 3613079 3613714 3621532 3638839 
2085.289 3664401 3694542 3724184 3748147 3764724 3773347 3774049 3767498 
2089.146 3752993 3729197 3696815 3658453 3618659 3584113 3560260 3549202 
2093.004 3549235 3555249 3561028 3562464 3558122 3549469 3540016 3532733 
2096.861 3528491 3526554 3526086 3526386 3529059 3536909 3551507 3573355 
2100.719 3600350 3628582 3654444 3676865 3697048 3718904 3746375 3781703 
2104.576 3824655 3872659 3922340 3970421 4016602 4061350 4105600 4150390 
2108.434 4195018 4238211 4280003 4320964 4363667 4410927 4464018 4521333 
2112.291 4579125 4632102 4675606 4708531 4732749 4752177 4771808 4794455 
2116.148 4820084 4846855 4872153 4894268 4914308 4935655 4961025 4992865 
2120.006 5030875 5072710 5114851 5154883 5191298 5224832 5256725 5287178 
2123.863 5315755 5340946 5361072 5375330 5384555 5389822 5391567 5389755 
2127.721 5381133 5362750 5331855 5287647 5232075 5169402 5104424 5041199 
2131.578 4982407 4929656 4882976 4844342 4815863 4798844 4794254 4799313 
2135.436 4808760 4816299 4816634 4806750 4787754 4763735 4737941 4713556 
2139.293 4691482 4670281 4649316 4628987 4610234 4595433 4585085 4576479 
2143.150 4564291 4542226 4503655 4446008 4370461 4280472 4181301 4078340 
2147.008 3974468 3872391 3775118 3685286 3606130 3539147 3481193 3425150 
2150.865 3362069 3281703 3178621 3054141 2915286 2771907 2632909 2502687 
2154.723 2379167 2259445 2140456 2025361 1923908 1850297 1817122 1830532 
2158.580 1886269 1971137 2071502 2174222 2273501 2369605 2463565 2554545 
2162.438 2639610 2713689 2772975 2818661 2856081 2891370 2930798 2976101 
2166.295 3023277 3065420 3096287 3112839 3116811 3114808 3112405 3114608 
2170.152 3122517 3133297 3143009 3148583 3148015 3141374 3130527 3115709 
2174.010 3097689 3077232 3055176 3033988 3016104 3002658 2991948 2979971 
2177.867 2961855 2933433 2896607 2856949 2823364 2805388 2807756 2828766 
2181.725 2861885 2896707 2924326 2941172 2948211 2949245 2949045 2950780 
2185.582 2953682 2957385 2961989 2969062 2982940 3007829 3044765 3091782 
2189.439 3143977 3194976 3241142 3282972 3322468 3363505 3407617 3451868 
2193.297 3490545 3518503 3531998 3533569 3529794 3528992 3537510 3556852 
2197.154 3582375 3606163 3620997 3623102 3613480 3598145 3584514 3578032 
2201.012 3582108 3595238 3615050 3638305 3663532 3689196 3714961 3739624 
2204.869 3760780 3777324 3788053 3793970 3798382 3804298 3812621 3823384 
2208.727 3833780 3840834 3843943 3845012 3848121 3858819 3880782 3914315 
2212.584 3955775 3999380 4039209 4071551 4095900 4113528 4127175 4139820 
2216.441 4152264 4165110 4179227 4195152 4214356 4238747 4267656 4300014 
2220.299 4332743 4362295 4386360 4404769 4418392 4429271 4438811 4447180 
2224.156 4452234 4453540 4449556 4440886 4429438 4417421 4406241 4396301 
2228.014 4387531 4379230 4372637 4369926 4373909 4386661 4408049 4435129 
2231.871 4463583 4488222 4505430 4514737 4517851 4518018 4518387 4521467 
2235.729 4527494 4536031 4546545 4558465 4571691 4586525 4601862 4616262 
2239.586 4628485 4637494 4643857 4650153 4658894 4672559 4692119 4716905 
2243.443 4744674 4774220 4805008 4837239 4872454 4910353 4949127 4985223 
2247.301 5013981 5032115 5038685 5036104 5028495 5021255 5018506 5021690 
2251.158 5031578 5046697 5066508 5091483 5122025 5157968 5197468 5236033 
2255.016 5267994 5288486 5294590 5286306 5267289 5242941 5217789 5195624 
2258.873 5177617 5163433 5152302 5144053 5138890 5137985 5142511 5152369 
2262.730 5167256 5186101 5208065 5232176 5258536 5285937 5313776 5340476 
2266.588 5364662 5385763 5404349 5421761 5440046 5460178 5481853 5502826 
2270.445 5520578 5533061 5539203 5540713 5540109 5540914 5545546 5554506 
2274.303 5566621 5580013 5592095 5601460 5607837 5611596 5613577 5614919 
2278.160 5616933 5620323 5626332 5636234 5650802 5670272 5694308 5721267 
2282.018 5749536 5777909 5805309 5831502 5856522 5879896 5901258 5919295 
2285.875 5933234 5942774 5948652 5952381 5955471 5959771 5965750 5973611 
2289.732 5983453 5995312 6009557 6027128 6048362 6072385 6097990 6122756 
2293.590 6144431 6162410 6177232 6190776 6205834 6224185 6246774 6273094 
2297.447 6301030 6328430 6353747 6376073 6395071 6410639 6422342 6429303 
2301.305 6430614 6426175 6416121 6402166 6386328 6370458 6355966 6343089 
2305.162 6331624 6321504 6313301 6307889 6306812 6311452 6321773 6336835 
2309.020 6354755 6372811 6388447 6400652 6408588 6413162 6415650 6417500 
2312.877 6420492 6425873 6434314 6445983 6460007 6474905 6488190 6498078 
2316.734 6503325 6503695 6500634 6496228 6492831 6492159 6494715 6500029 
2320.592 6507024 6514256 6520142 6523808 6523909 6519167 6508471 6491251 
2324.449 6467876 6440568 6412489 6387202 6367801 6356235 6351931 6353141 
2328.307 6357008 6361110 6364304 6366792 6369449 6373483 6379671 6387337 
2332.164 6395777 6404822 6414607 6426343 6441779 6461184 6484154 6509278 
2336.021 6534067 6556638 6576787 6595054 6613523 6633911 6656689 6680847 
2339.879 6704637 6725231 6741081 6751985 6758816 6763158 6766388 6769518 
2343.736 6772614 6776956 6784461 6799337 6826364 6870460 6934457 7018431 
2347.594 7118724 7229348 7342528 7449940 7544399 7620364 7674590 7706866 
2351.451 7719851 7718873 7709699 7698300 7689328 7684775 7685079 7689969 
2355.309 7698536 7710846 7727440 7749128 7776350 7809375 7847903 7891563 
2359.166 7940963 7996883 8060775 8133186 8213543 8298879 8385719 8469468 
2363.023 8546948 8616802 8679503 8736633 8790323 8841313 8889165 8933133 
2366.881 8971929 9005214 9033326 9057245 9077477 9093819 9105324 9110703 
2370.738 9109654 9103564 9095308 9089184 9089793 9100485 9123426 9159431 
2374.596 9208299 9269527 9343155 9428916 9526889 9636638 9756817 9885912 
2378.453 10022267 10164701 10312748 10466445 10625867 10790036 10957732 
2381.828 11126683 11293931 11457060 11613749 11762085 11901006 12028695 
2385.204 12143610 12243968 12328125 12394669 12443528 12475034 12490550 
2388.579 12491880 12480968 12459895 12430673 12394737 12352839 12305592 
2391.954 12252421 12192543 12125484 12051247 11970892 11887146 11803587 
2395.329 11723959 11651424 11588293 11535176 11491931 11458352 11434233 
2398.705 11420592 11418585 11429504 11454236 11492680 11543955 11606772 
2402.080 11679980 11762698 11854933 11956451 12067326 12187056 12315136 
2405.455 12450927 12594127 12744948 12904014 13071710 13248966 13435830 
2408.830 13632450 13838703 14054362 14279168 14512073 14751376 14994240 
2412.206 15237412 15476361 15706852 15925091 16127104 16309638 16469775 
2415.581 16604356 16711261 16789846 16840578 16866276 16870856 16859626 
2418.956 16836860 16806068 16769562 16727548 16679686 16625425 16564287 
2422.331 16496757 16424453 16348824 16272726 16199015 16130337 16069680 
2425.707 16019829 15983079 15961491 15956542 15969431 16001023 16052388 
2429.082 16124079 16216487 16329901 16463649 16616819 16788192 16976622 
2432.457 17180502 17399312 17631690 17876238 18131948 18397382 18671762 
2435.832 18956254 19252290 19563084 19891722 20240640 20610614 21001074 
2439.208 21410124 21835204 22274966 22728684 23196926 23680930 24181868 
2442.583 24700152 25236296 25789626 26359682 26945964 27548044 28165240 
2445.958 28796592 29440530 30095330 30758944 31429558 32104884 32782868 
2449.333 33460412 34134140 34800364 35456080 36098560 36726052 37337808 
2452.708 37932460 38507792 39060684 39586516 40079804 40534916 40945752 
2456.084 41306180 41610744 41853276 42028008 42130584 42157820 42107984 
2459.459 41981252 41778520 41500960 41149956 40726548 40232668 39671384 
2462.834 39047888 38368856 37643036 36880156 36090060 35282896 34469584 
2466.209 33659832 32864240 32093182 31355008 30657166 30005034 29401136 
2469.585 28846730 28341762 27885786 27478640 27120406 26810676 26547590 
2472.960 26328348 26147504 25998076 25872896 25764908 25667844 25577972 
2476.335 25492088 25408576 25326590 25245320 25163926 25081916 24998656 
2479.710 24913310 24825382 24733648 24637514 24536286 24430276 24320160 
2483.086 24207900 24095422 23985212 23878850 23777516 23681664 23590874 
2486.461 23504682 23421830 23342000 23264180 23187560 23111478 23035618 
2489.836 22959004 22881494 22803056 22723270 22642000 22559206 22474338 
2493.211 22387390 22298368 22207098 22114032 22018792 21920576 21818026 
2496.587 21709580 21593150 21467596 21332440 21187930 21035400 20877394 
2499.962 20716182 20554192 20393760 20236058 20082266 19932934 19787986 
2503.337 19647664 19512136 19381812 19257102 19138560 19026764 18921676 
2506.712 18823154 18730396 18641844 18556318 18472538 18389086 18304922 
2510.088 18219048 18130080 18037160 17939494 17836812 17729976 17620370 
2513.463 17509724 17400002 17292376 17186916 17083684 16981926 16881672 
2516.838 16783716 16689843 16601603 16521124 16449746 16387772 16334958 
2520.213 16290855 16255252 16227871 16208921 16198190 16194887 16197605 
2523.589 16204655 16214252 16225912 16239360 16255079 16273964 16295705 
2526.964 16319649 16344214 16367402 16387669 16404495 16417501 16427686 
2530.339 16435498 16441314 16444996 16446441 16445719 16442759 16439214 
2533.714 16435876 16433777 16433675 16435465 16438974 16444342 16451707 
2537.090 16461790 16475350 16493039 16514860 16540881 16570862 16604494 
2540.465 16642157 16684230 16730716 16780892 16833448 16886288 16937240 
2543.840 16984614 17027374 17065798 17101056 17134142 17166404 17198566 
2547.215 17230800 17263172 17295480 17327720 17359480 17390482 17420110 
2550.591 17447598 17472848 17495614 17516692 17537116 17557952 17579860 
2553.966 17603532 17628444 17654290 17680000 17705090 17728698 17749924 
2557.341 17767770 17780438 17786756 17785098 17774466 17754688 17725868 
2560.716 17688456 17643180 17590490 17530836 17464810 17393588 17318376 
2564.092 17240762 17162854 17086030 17011904 16941444 16875920 16815986 
2567.467 16762845 16716771 16677929 16646219 16620882 16601086 16586559 
2570.842 16577369 16574269 16578607 16591311 16612619 16642088 16678240 
2574.217 16718561 16761433 16804794 16847296 16889010 16929972 16971004 
2577.593 17013180 17057598 17105088 17156304 17210978 17268310 17327306 
2580.968 17387034 17446942 17507550 17570202 17636450 17708024 17785790 
2584.343 17869680 17958522 18051080 18145558 18241302 18337584 18434164 
2587.718 18530730 18626418 18720086 18810664 18897380 18980378 19059964 
2591.094 19137348 19212804 19286682 19358738 19428276 19495432 19560588 
2594.469 19625026 19690170 19757262 19826516 19897654 19970088 20043052 
2597.844 20116344 20191106 20268726 20350770 20438560 20532412 20632086 
2601.219 20736652 20845412 20957886 21073970 21194192 21318830 21448276 
2604.594 21582704 21721980 21866004 22014610 22167274 22323656 22482956 
2607.970 22644478 22807456 22971370 23135764 23299978 23462642 23622010 
2611.345 23775486 23920334 24053884 24174232 24280494 24372798 24451450 
2614.720 24517424 24571102 24612688 24642882 24661994 24671078 24671778 
2618.095 24665466 24653296 24636464 24615738 24592070 24566578 24540808 
2621.471 24516162 24493830 24473954 24456216 24439566 24423058 24406584 
2624.846 24391092 24378404 24370694 24369958 24377354 24392494 24414574 
2628.221 24442126 24474094 24510202 24550520 24595576 24645756 24701098 
2631.596 24760834 24824328 24890746 24959280 25029684 25101644 25175230 
2634.972 25250412 25327256 25406046 25486712 25570100 25655998 25744342 
2638.347 25834706 25925932 26017426 26108234 26198216 26287620 26377004 
2641.722 26467184 26558614 26651614 26746220 26842116 26938984 27036790 
2645.097 27135254 27234234 27333484 27433108 27533108 27633628 27735158 
2648.473 27838514 27944438 28053536 28166512 28283868 28405856 28533078 
2651.848 28665682 28803744 28947232 29095836 29249062 29406916 29569580 
2655.223 29737450 29911420 30092028 30279390 30473196 30672384 30875866 
2658.598 31082394 31291444 31503122 31717614 31935632 32157332 32382604 
2661.974 32610890 32841616 33073894 33307124 33540584 33773632 34005368 
2665.349 34235408 34463412 34689776 34915868 35143224 35373468 35608184 
2668.724 35847528 36091540 36339108 36589344 36841780 37096272 37353120 
2672.099 37612652 37874900 38139116 38404544 38669736 38933676 39195348 
2675.475 39454056 39708924 39959256 40204424 40443772 40677568 40907124 
2678.850 41134400 41362048 41593244 41830324 42075460 42330520 42596804 
2682.225 42875904 43169532 43479548 43807592 44154704 44521180 44906668 
2685.600 45310080 45730136 46165896 46615772 47078676 47553564 48039156 
2688.976 48534628 49039228 49552856 50075708 50608096 51150416 51703040 
2692.351 52265940 52839296 53423868 54019884 54628176 55249100 55882108 
2695.726 56526416 57180184 57841940 58510472 59185084 59865612 60552124 
2699.101 61244608 61942740 62645672 63352624 64062760 64775860 65491148 
2702.477 66207648 66923164 67634488 68337664 69028000 69701032 70352976 
2705.852 70980272 71579952 72148640 72682912 73178824 73632624 74041272 
2709.227 74402128 74713816 74975288 75186560 75347688 75459704 75524088 
2712.602 75542856 75518488 75452728 75346616 75199640 75010496 74777296 
2715.978 74498336 74173272 73802832 73389096 72935320 72444936 71921760 
2719.353 71369680 70793496 70197904 69588896 68972888 68356200 67744808 
2722.728 67144984 66561900 66000736 65466800 64964184 64496904 64067864 
2726.103 63678576 63329852 63021316 62752588 62523516 62334072 62184276 
2729.479 62073720 62001708 61966092 61964560 61994332 62052848 62137944 
2732.854 62248020 62381504 62537140 62713160 62907748 63118860 63344920 
2736.229 63584128 63835144 64096056 64364536 64637608 64911932 65183884 
2739.604 65450468 65709108 65957844 66195028 66419600 66630924 66828588 
2742.979 67013316 67187256 67353208 67514824 67675952 67839768 68008352 
2746.355 68182912 68363448 68549296 68739656 68933272 69128416 69323104 
2749.730 69515272 69702696 69883984 70058496 70227120 70391936 70555464 
2753.105 70720840 70890968 71068424 71255000 71452360 71661304 71881792 
2756.480 72113552 72355216 72604584 72859176 73115608 73370272 73619424 
2759.856 73858752 74083432 74288768 74469968 74622568 74743256 74829568 
2763.231 74879648 74892448 74866976 74802328 74698280 74554864 74373856 
2766.606 74158376 73912728 73642712 73353872 73052328 72743240 72432016 
2769.981 72123104 71820496 71528096 71249144 70985304 70738160 70508224 
2773.357 70295512 70099728 69920728 69758376 69612224 69481016 69362368 
2776.732 69252680 69147136 69040072 68924648 68794000 68641376 68459912 
2780.107 68244912 67992808 67702288 67375616 67016488 66631116 66226520 
2783.482 65809532 65386712 64963220 64543300 64129852 63724852 63329428 
2786.858 62943444 62565988 62195828 61831096 61470412 61113152 60759468 
2790.233 60410104 60066580 59729980 59401428 59081508 58770856 58469756 
2793.608 58178824 57898352 57629176 57371288 57124208 56887132 56658828 
2796.983 56438036 56223656 56014360 55809384 55607516 55407624 55208500 
2800.359 55008604 54807296 54603676 54397336 54187604 53973768 53755016 
2803.734 53530260 53298580 53059276 52813256 52561572 52306412 52050060 
2807.109 51794788 51542880 51296000 51055448 50822476 50598120 50382916 
2810.484 50177232 49981460 49795104 49617404 49447764 49285092 49128456 
2813.860 48977284 48830992 48689308 48552596 48421708 48298188 48184516 
2817.235 48084164 48000112 47936320 47896104 47882336 47897432 47943388 
2820.610 48021576 48132800 48277192 48453936 48661252 48896180 49155280 
2823.985 49434172 49728036 50032204 50341728 50651060 50954800 51247196 
2827.361 51522508 51775528 52000832 52194640 52353212 52473740 52554692 
2830.736 52595008 52595232 52556676 52481964 52374404 52237648 52075796 
2834.111 51892756 51691920 51477480 51252748 51021200 50785752 50548532 
2837.486 50310512 50072068 49832596 49591328 49347748 49101664 48853832 
2840.862 48604848 48355332 48105484 47855108 47603404 47349848 47094368 
2844.237 46837308 46580140 46324856 46073964 45829948 45595644 45373232 
2847.612 45164832 44972704 44798180 44642528 44506424 44389812 44292124 
2850.987 44212332 44149272 44101960 44069432 44050984 44045924 44053772 
2854.363 44073720 44104564 44145312 44194320 44249752 44309740 44371752 
2857.738 44433156 44491372 44543208 44585576 44615648 44630592 44627800 
2861.113 44605148 44560756 44493024 44401336 44284860 44144140 43980800 
2864.488 43797404 43598076 43387996 43173740 42961312 42757316 42567128 
2867.864 42394740 42243452 42115688 42013220 41937348 41888884 41867720 
2871.239 41872464 41900016 41946580 42006944 42076444 42151284 42229388 
2874.614 42310284 42394520 42483628 42578824 42680912 42789860 42905128 
2877.989 43026172 43152256 43282776 43417180 43554668 43694392 43835484 
2881.365 43977060 44118832 44260980 44403832 44547760 44692912 44838772 
2884.740 44984316 45128400 45269552 45407108 45540112 45668332 45791028 
2888.115 45907724 46017856 46121200 46217636 46307460 46391696 46471456 
2891.490 46547756 46621048 46692284 46761360 46828268 46893152 46955980 
2894.865 47017044 47076644 47135068 47192796 47250868 47309832 47370688 
2898.241 47433916 47499708 47567356 47635720 47703016 47767592 47827992 
2901.616 47882816 47930808 47970732 48001296 48020692 48028088 48021984 
2904.991 48002188 47968880 47922740 47864248 47794148 47712632 47620188 
2908.366 47517636 47406384 47288252 47165684 47040900 46915188 46789404 
2911.742 46663212 46535660 46405856 46273252 46137704 45999808 45860552 
2915.117 45721008 45582100 45444560 45309236 45176304 45046388 44919564 
2918.492 44796196 44676492 44561232 44451472 44349368 44257160 44178068 
2921.867 44114944 44069576 44042368 44032172 44035472 44047352 44062388 
2925.243 44074344 44078012 44069284 44045520 44005476 43949636 43879504 
2928.618 43797548 43706448 43609868 43511516 43415864 43328464 43255324 
2931.993 43203056 43178900 43188820 43238192 43330920 43468744 43652220 
2935.368 43880640 44152172 44464132 44812616 45193032 45599324 46025188 
2938.744 46464228 46910428 47359788 47809536 48258532 48705952 49150380 
2942.119 49588436 50014436 50419272 50790780 51115376 51378748 51567244 
2945.494 51670948 51684044 51606832 51445476 51212260 50924248 50599568 
2948.869 50257912 49916336 49587876 49281564 49001396 48747540 48517288 
2952.245 48305928 48109260 47923000 47744440 47572532 47407272 47249092 
2955.620 47099168 46957532 46823948 46697416 46576708 46460352 46347716 
2958.995 46238716 46133360 46032188 45935420 45842836 45754176 45669324 
2962.370 45588172 45511300 45439776 45374484 45316516 45266648 45225168 
2965.746 45192296 45168696 45154720 45151120 45157996 45174576 45198584 
2969.121 45226900 45254992 45278196 45292576 45295148 45284560 45260840 
2972.496 45225316 45180604 45129800 45077452 45028124 44986520 44956348 
2975.871 44939040 44932204 44929008 44918392 44885836 44814340 44688800 
2979.247 44497320 44233388 43897136 43495476 43041572 42550828 42041656 
2982.622 41531952 41036536 40568204 40135660 39743744 39394188 39086936 
2985.997 38820144 38592016 38401032 38245844 38124648 38032988 37963192 
2989.372 37901040 37828048 37721348 37556180 37312064 36974964 36541764 
2992.748 36020868 35431592 34801228 34158152 33529632 32936472 32390282 
2996.123 31894516 31445302 31034774 30652828 30290438 29941096 29600616 
2999.498 29267174 28940682 28621866 28311490 28010170 27717922 27434592 
3002.873 27159590 26892486 26632520 26379258 26132372 25891360 25656314 
3006.249 25427756 25205920 24992022 24786826 24591228 24405392 24229166 
3009.624 24061414 23900728 23745564 23594268 23445856 23299942 23156594 
3012.999 23016368 22879818 22747502 22620042 22497822 22381740 22272802 
3016.374 22172018 22080182 21997496 21923258 21855656 21791896 21729364 
3019.750 21665344 21597642 21525390 21447788 21364876 21276342 21182294 
3023.125 21082734 20978504 20871102 20763066 20657800 20559472 20470964 
3026.500 20395044 20332366 20282334 20242272 20208808 20177568 20144074 
3029.875 20104024 20053672 19990176 19911980 19818644 19711076 19591264 
3033.250 19461678 19325446 19185446 19044488 18905168 18769698 18639872 
3036.626 18517036 18402116 18295210 18195828 18103722 18018096 17938528 
3040.001 17864880 17797284 17735324 17679208 17628064 17581138 17537598 
3043.376 17496788 17458014 17420972 17385208 17349858 17314098 17276586 
3046.751 17236590 17193810 17149274 17104398 17061146 17021070 16984856 
3050.127 16951746 16919636 16885874 16847364 16801900 16747935 16685678 
3053.502 16616199 16541259 16463201 16384710 16307883 16234752 16166789 
3056.877 16104443 16047951 15996726 15949976 15906667 15866112 15827520 
3060.252 15790513 15754709 15720010 15686102 15652953 15620803 15590234 
3063.628 15562244 15537757 15517463 15501805 15490301 15482163 15476189 
3067.003 15471210 15466128 15460498 15453802 15445802 15436018 15424035 
3070.378 15409239 15391353 15370413 15346555 15320777 15294074 15267544 
3073.753 15242423 15219637 15199666 15182749 15168852 15157186 15146962 
3077.129 15137150 15126891 15115707 15103390 15090149 15075912 15061058 
3080.504 15045176 15028026 15009264 14988924 14967112 14944477 14921569 
3083.879 14898903 14876614 14854328 14831698 14808420 14784731 14760974 
3087.254 14738727 14718846 14702395 14689919 14681316 14675798 14672850 
3090.630 14671616 14671308 14671720 14672473 14673295 14674015 14674666 
3094.005 14675558 14676963 14679807 14684572 14691769 14701571 14713602 
3097.380 14727484 14742703 14758849 14775852 14793850 14813185 14834202 
3100.755 14857071 14881552 14906927 14932337 14956480 14978087 14996435 
3104.131 15010876 15022160 15031216 15039517 15048675 15059892 15073545 
3107.506 15089530 15106924 15125141 15143257 15161304 15179455 15198190 
3110.881 15217887 15238991 15261264 15284602 15308971 15334301 15360801 
3114.256 15388675 15417856 15447897 15477872 15506818 15534014 15558638 
3117.632 15580514 15599610 15616131 15629973 15641445 15650891 15658963 
3121.007 15666625 15675418 15686238 15700014 15716745 15735779 15756359 
3124.382 15777282 15797934 15818071 15838139 15858449 15878897 15899519 
3127.757 15919385 15937945 15954684 15969364 15982494 15994905 16007796 
3131.133 16022269 16039597 16060570 16085360 16114553 16147427 16183091 
3134.508 16220614 16258519 16295258 16330177 16362654 16392658 16420530 
3137.883 16446820 16471805 16496137 16520092 16544288 16569348 16596096 
3141.258 16625391 16657650 16693011 16730681 16770147 16810304 16849880 
3144.634 16888390 16925320 16960254 16993606 17026064 17058286 17091438 
3148.009 17126662 17164682 17205702 17249968 17296168 17343582 17391380 
3151.384 17438872 17485990 17533044 17580240 17627962 17676066 17724488 
3154.759 17773188 17822346 17872510 17924198 17978172 18034710 18093188 
3158.135 18153264 18213968 18274510 18334886 18395274 18456218 18518730 
3161.510 18583256 18650284 18720400 18793570 18869834 18949260 19031402 
3164.885 19115430 19199956 19284224 19366810 19447126 19525132 19600900 
3168.260 19674532 19745992 19814446 19879098 19939246 19994476 20044996 
3171.635 20091704 20135570 20177430 20217728 20256158 20292576 20326464 
3175.011 20358026 20387474 20415706 20443420 20470964 20498752 20526574 
3178.386 20554576 20582960 20611900 20641782 20673056 20705580 20738980 
3181.761 20773004 20807208 20841622 20876734 20913412 20952146 20993876 
3185.136 21038982 21087290 21138356 21191374 21245650 21300386 21354990 
3188.512 21409150 21463070 21517556 21573162 21631212 21692548 21757442 
3191.887 21825900 21897542 21971458 22047272 22124422 22202912 22282498 
3195.262 22362900 22443316 22522808 22600706 22676490 22750120 22822542 
3198.637 22894522 22966654 23039252 23112036 23184380 23256174 23327596 
3202.013 23399590 23473728 23551274 23632996 23718968 23808106 23898838 
3205.388 23989764 24079380 24166702 24251412 24333442 24412822 24490010 
3208.763 24565948 24641514 24718004 24796368 24877166 24960016 25044110 
3212.138 25128008 25210942 25292662 25373656 25455090 25538470 25624540 
3215.514 25713508 25804464 25896354 25987700 26077552 26166050 26253262 
3218.889 26340212 26427426 26515644 26605112 26696008 26788366 26882476 
3222.264 26978434 27075968 27174970 27274522 27373606 27471546 27567248 
3225.639 27660218 27750558 27838620 27925180 28011618 28099310 28189140 
3229.015 28281782 28376708 28472610 28567684 28659772 28747594 28830794 
3232.390 28910612 28988922 29067990 29149834 29235204 29324208 29415602 
3235.765 29507692 29599304 29689444 29777724 29863962 29948870 30032904 
3239.140 30116816 30201914 30289196 30379656 30473942 30571552 30671640 
3242.516 30772672 30872948 30971716 31068726 31164656 31260568 31357608 
3245.891 31456240 31556494 31658732 31763062 31870340 31981960 32098782 
3249.266 32220810 32347228 32475506 32602924 32727022 32846510 32961924 
3252.641 33074934 33187900 33302936 33421404 33542946 33666456 33790464 
3256.017 33913720 34035616 34156072 34275740 34395048 34514388 34634584 
3259.392 34755604 34877628 35000904 35124724 35248788 35372068 35493400 
3262.767 35612000 35727892 35841160 35952832 36064248 36175944 36288460 
3266.142 36401764 36515204 36628384 36741344 36853828 36966016 37078156 
3269.518 37189828 37300584 37409960 37517524 37623344 37727852 37831660 
3272.893 37935460 38039864 38144868 38250228 38355792 38460980 38565072 
3276.268 38667888 38768628 38867036 38963576 39058692 39153648 39250144 
3279.643 39349928 39453800 39562308 39674360 39788224 39901896 40013312 
3283.019 40121088 40225144 40326352 40426240 40526952 40630376 40737868 
3286.394 40850008 40966872 41087412 41210536 41334968 41459292 41582812 
3289.769 41705020 41825656 41944792 42062756 42179836 42296660 42414320 
3293.144 42533764 42656600 42784268 42917308 43055732 43198884 43345016 
3296.520 43492292 43639252 43784684 43928152 44070092 44210900 44351168 
3299.895 44491556 44632540 44774852 44919308 45067120 45219212 45376656 
3303.270 45540000 45709228 45884376 46065048 46250804 46441436 46636876 
3306.645 46836352 47039828 47247208 47458236 47673360 47892992 48117696 
3310.021 48347516 48582056 48820316 49061564 49305132 49551292 49801196 
3313.396 50056340 50318216 50587732 50864380 51147320 51434772 51726180 
3316.771 52020852 52319572 52623432 52933460 53249960 53572580 53900424 
3320.146 54232576 54568400 54907824 55250792 55597384 55946816 56297956 
3323.521 56649388 56999928 57348712 57695808 58041368 58385380 58727460 
3326.897 59066632 59401196 59729980 60052236 60367420 60676168 60978768 
3330.272 61275164 61565048 61847332 62120624 62383224 62633960 62870488 
3333.647 63091464 63295656 63481652 63649536 63800060 63934980 64056344 
3337.022 64165764 64263680 64349280 64420836 64475880 64511852 64527728 
3340.398 64522312 64495252 64446704 64376412 64284504 64171864 64039564 
3343.773 63889488 63723588 63542588 63346064 63132584 62899396 62643684 
3347.148 62364592 62062712 61740296 61400868 61048052 60684324 60311376 
3350.523 59929396 59538556 59138460 58729400 58311552 57885400 57451120 
3353.899 57008812 56558872 56102388 55641108 55177572 54714944 54255588 
3357.274 53801780 53354740 52914744 52482412 52057644 51640492 51230712 
3360.649 50828212 50431628 50039792 49651988 49267536 48886872 48511504 
3364.024 48143020 47782976 47432256 47090824 46758188 46433508 46116220 
3367.400 45806016 45503316 45208476 44922028 44643556 44372784 44108600 
3370.775 43850256 43596536 43346480 43099820 42855868 42614312 42375556 
3374.150 42139860 41907680 41679852 41456704 41237860 41022840 40811020 
3377.525 40601892 40395292 40191996 39992204 39796720 39605608 39417916 
3380.901 39232012 39046364 38859276 38669844 38478140 38284820 38090972 
3384.276 37898144 37707396 37519656 37336040 37156980 36983112 36814732 
3387.651 36651420 36492572 36336984 36183184 36029684 35875416 35718612 
3391.026 35559024 35396364 35230824 35063440 34895760 34729832 34567092 
3394.402 34408748 34254408 34102920 33952484 33801496 33649052 33495984 
3397.777 33344474 33196698 33055198 32920960 32793410 32670434 32549140 
3401.152 32426768 32301396 32171924 32038208 31900898 31760674 31618032 
3404.527 31473768 31329118 31185374 31043886 30906070 30772246 30641734 
3407.903 30513254 30384952 30255196 30123420 29989482 29854522 29719958 
3411.278 29586854 29455848 29327114 29200120 29074046 28948012 28821448 
3414.653 28693502 28564146 28433164 28300844 28167854 28034980 27902710 
3418.028 27771574 27641326 27511400 27381546 27251696 27122416 26995252 
3421.404 26871370 26752140 26637768 26527864 26420630 26314478 26207824 
3424.779 26099824 25990478 25880422 25769830 25658952 25547748 25435556 
3428.154 25322092 25207500 25091850 24975880 24860466 24745820 24632326 
3431.529 24520334 24410054 24302010 24197178 24095490 23996768 23900030 
3434.905 23803520 23705740 23605566 23502688 23398016 23293300 23190040 
3438.280 23089392 22991842 22896618 22802184 22707422 22611072 22512584 
3441.655 22412092 22310122 22207098 22103678 22000040 21895904 21791062 
3445.030 21684918 21577342 21468642 21360282 21253652 21151122 21054840 
3448.406 20965848 20884104 20807904 20734706 20661066 20584140 20502224 
3451.781 20414874 20323234 20228732 20133280 20037986 19943098 19848192 
3455.156 19752996 19657162 19561246 19466044 19372596 19281592 19193378 
3458.531 19107154 19021502 18935210 18846856 18755652 18662078 18566934 
3461.906 18471708 18377920 18286640 18198040 18111702 18026454 17940740 
3465.282 17853728 17764768 17674514 17584106 17495338 17409212 17326340 
3468.657 17246382 17167886 17089784 17010938 16930488 16848674 16765876 
3472.032 16682027 16597299 16511418 16423937 16334994 16245035 16154891 
3475.407 16065486 15977820 15892163 15808553 15726434 15645225 15564029 
3478.783 15482747 15400313 15316247 15229761 15140546 15048847 14956103 
3482.158 14864134 14775749 14692763 14615996 14544690 14477129 14410435 
3485.533 14341937 14270505 14195353 14117270 14037490 13957451 13877939 
3488.908 13799845 13723475 13649101 13577201 13507638 13439624 13372337 
3492.284 13304036 13233082 13158963 13081613 13002364 12923812 12848415 
3495.659 12777843 12713252 12654401 12600266 12549242 12499451 12448915 
3499.034 12395760 12338283 12275052 12205254 12129436 12048521 11964898 
3502.409 11881357 11800455 11723856 11653057 11588089 11528643 11474205 
3505.785 11423517 11375080 11326919 11276928 11222659 11163024 11098095 
3509.160 11029404 10959873 10892596 10829610 10771999 10718879 10668415 
3512.535 10618839 10569167 10519398 10470552 10423341 10377933 10333446 
3515.910 10288048 10239736 10187801 10132514 10075470 10019283 9966051 
3519.286 9916522 9869675 9823715 9775998 9724829 9669838 9611907 9553137 
3523.143 9496272 9442563 9392890 9346439 9301414 9255853 9207892 9156419 
3527.000 9101433 9044017 8985425 8927586 8872256 8820788 8773755 8731731 
3530.858 8694274 8660641 8629815 8600343 8569927 8536709 8498492 8454062 
3534.715 8403083 8347178 8288511 8230561 8176401 8127548 8084270 8045181 
3538.573 8007818 7970255 7931109 7890347 7849151 7809038 7770345 7733005 
3542.430 7695804 7656581 7613215 7564763 7510685 7451895 7390417 7327836 
3546.288 7266847 7209909 7158403 7113671 7075681 7042778 7011831 6979034 
3550.145 6940752 6894630 6840569 6780826 6719779 6662342 6612212 6571035 
3554.002 6538339 6511767 6488156 6465825 6442956 6418676 6392885 6364674 
3557.860 6332599 6295248 6251782 6202103 6148598 6094764 6044229 6000486 
3561.717 5965817 5939683 5920537 5904583 5886547 5861392 5823510 5768977 
3565.575 5695315 5604279 5500913 5394351 5295731 5214000 5155051 5119344 
3569.432 5102345 5096847 5095037 5090042 5077671 5055915 5024942 4986463 
3573.290 4942927 4896480 4849033 4802931 4759346 4719752 4684951 4654607 
3577.147 4627581 4602264 4576279 4547717 4516144 4481526 4445539 4409789 
3581.004 4376553 4347736 4324812 4308314 4297538 4290511 4283818 4272441 
3584.862 4251160 4214356 4158352 4083357 3993628 3897331 3805434 3729097 
3588.719 3675361 3646591 3640176 3649565 3665905 3681042 3687458 3680474 
3592.577 3658052 3621332 3574157 3522345 3471307 3425818 3388650 3359899 
3596.434 3337493 3319163 3302102 3284441 3265612 3245081 3223616 3201452 
3600.292 3179055 3156092 3133164 3110604 3089279 3070592 3055876 3045633 
3604.149 3040160 3037825 3035489 3029383 3014902 2987511 2945476 2889469 
3608.006 2823697 2754734 2690784 2637043 2595909 2565210 2539980 2514251 
3611.864 2483859 2447703 2409286 2374969 2350749 2341455 2346951 2363076 
3615.721 2382499 2396891 2399057 2384564 2352881 2307277 2254383 2202694 
3619.579 2158837 2128003 2112287 2110023 2117848 2132232 2149646 2168094 
3623.436 2187042 2206990 2228404 2250619 2269571 2278098 2266840 2224908 
3627.293 2144818 2026560 1882608 1736543 1616366 1544735 1528043 1558269 
3631.151 1616865 1684816 1746257 1790704 1814394 1819651 1812165 1798690 
3635.008 1784749 1773537 1765586 1759630 1754341 1748818 1742930 1736975 
3638.866 1730921 1724766 1717880 1709731 1700483 1691069 1683751 1680558 
3642.723 1683918 1694495 1711527 1732850 1754208 1769911 1774834 1763390 
3646.581 1731153 1676434 1599904 1505400 1400213 1293854 1198088 1124599 
3650.438 1083940 1082412 1120380 1191841 1285347 1386916 1480364 1550754 
3654.295 1587600 1585405 1546498 1482160 1409354 1345036 1301365 1282256 
3658.153 1283818 1298241 1316885 1333636 1345501 1352282 1354941 1354874 
3662.010 1353445 1350620 1346864 1343009 1340383 1341014 1346199 1355905 
3665.868 1368169 1379238 1382928 1372391 1340915 1284317 1203238 1105631 
3669.725 1007083 928612 888137 895143 945547 1025050 1110979 1178784 1208421 
3674.065 1186426 1113105 1005156 893948 811016 775365 786485 828577 881995 
3678.404 929309 962051 979917 989116 997551 1011433 1032921 1060190 1089121 
3682.744 1117091 1143834 1171109 1202108 1236731 1271855 1300002 1312199 
3686.601 1299404 1257333 1187821 1100548 1009739 929011 867851 828743 809854 
3690.941 807232 818087 840694 873595 914998 960922 1005821 1044978 1074805 
3695.281 1094868 1108022 1119184 1132937 1152106 1175528 1198785 1215000 
3699.138 1217658 1201875 1167654 1119383 1064674 1013592 975600 956372 
3702.995 957734 977426 1010204 1050757 1093074 1133269 1168651 1197988 
3706.853 1220981 1237827 1248693 1252913 1249424 1236365 1212342 1177322 
3710.710 1133901 1086896 1044380 1015219 1005787 1019205 1053481 1103040 
3714.568 1158950 1213206 1258363 1289933 1307148 1311900 1308809 1302561 
3718.425 1297211 1294120 1292558 1290199 1284516 1274646 1261885 1248893 
3722.282 1239024 1233674 1232079 1231015 1225300 1210614 1185794 1153534 
3726.140 1121044 1097658 1093473 1113570 1158219 1221313 1292824 1361223 
3729.997 1415537 1448681 1458289 1447584 1423249 1393099 1361987 1329348 
3733.855 1290365 1239223 1173003 1095997 1018806 955775 919448 915463 940666 
3738.194 986791 1044945 1108155 1172704 1237960 1301930 1359062 1399980 
3742.052 1409221 1371493 1277371 1133668 968991 827980 755416 770917 864299 
3746.391 1002931 1149216 1272021 1348725 1370596 1340150 1271655 1183901 
3750.249 1095167 1017876 957037 914467 892287 893250 920145 972080 1043085 
3754.588 1122905 1199417 1262052 1303625 1321871 1318813 1300169 1271855 
3758.446 1238791 1204766 1173468 1149016 1136724 1141608 1165096 1203935 
3762.303 1251252 1296812 1331143 1348758 1349290 1338821 1326158 1320209 
3766.161 1325161 1339087 1354841 1363184 1357766 1335996 1301232 1261919 
3770.018 1228656 1209584 1208753 1225267 1254475 1290199 1326690 1359694 
3773.875 1386617 1407127 1421753 1431926 1438907 1442697 1442664 1437444 
3777.733 1425377 1406595 1383293 1360059 1343108 1338223 1347994 1370895 
3781.590 1402074 1434286 1460350 1475111 1476408 1465137 1444725 1419559 
3785.448 1393664 1369964 1350852 1337624 1332041 1334932 1346365 1364879 
3789.305 1387249 1409354 1427870 1441001 1449246 1455097 1461048 1468262 
3793.163 1475610 1479134 1474912 1460383 1437112 1410916 1391603 1388811 
3797.020 1407725 1446886 1496988 1544469 1573466 1570972 1530171 1454432 
3800.877 1358996 1267368 1205597 1191144 1226264 1299371 1390606 1478103 
3804.735 1541576 1567680 1551552 1499016 1426308 1354708 1304888 1287374 
3808.592 1301797 1339652 1390008 1443495 1494893 1544370 1594018 1645667 
3812.450 1698753 1747255 1781755 1791802 1769112 1713090 1633494 1550854 
3816.307 1488443 1464140 1482725 1535225 1603163 1663428 1695593 1685148 
3820.165 1629304 1539216 1438574 1356935 1315024 1320242 1364015 1429100 
3824.022 1495658 1547562 1576326 1581181 1569476 1552317 1541510 1544702 
3827.879 1562459 1589861 1618794 1641344 1652253 1650690 1639481 1624548 
3831.737 1612542 1608119 1613839 1629104 1650823 1673540 1692034 1700150 
3835.594 1692965 1668118 1626743 1573666 1517935 1469659 1437477 1424945 
3839.452 1430895 1449711 1474313 1498218 1516605 1527943 1532532 1532299 
3843.309 1530005 1528675 1530969 1539083 1554578 1577590 1607886 1643672 
3847.167 1683419 1725964 1770742 1817921 1867234 1916221 1958988 1984384 
3851.024 1978293 1925539 1815359 1650723 1451972 1259061 1114068 1043915 
3854.881 1051953 1120247 1223107 1336295 1444060 1537453 1613806 1674371 
3858.739 1721639 1757601 1783585 1800253 1807507 1806475 1797691 1781455 
3862.596 1757767 1726430 1688807 1649126 1615302 1596346 1599804 1627707 
3866.454 1673839 1725997 1767482 1783385 1764588 1712059 1637851 1563723 
3870.311 1512183 1495658 1513812 1554611 1601268 1638516 1658007 1660003 
3874.168 1652619 1647696 1655812 1682355 1725199 1776831 1825840 1861744 
3878.026 1876319 1865537 1831230 1780890 1726895 1683053 1660635 1664925 
3881.883 1693531 1736676 1779825 1808970 1812597 1785381 1732218 1667420 
3885.741 1611710 1583476 1593752 1640080 1710728 1787377 1852360 1891860 
3889.598 1898782 1873357 1824542 1766617 1714088 1678862 1666256 1675137 
3893.456 1700683 1736909 1778261 1821248 1863674 1903508 1938819 1966976 
3897.313 1985416 1991940 1986515 1970438 1947838 1923709 1901411 1882708 
3901.170 1866203 1848500 1825407 1794764 1757235 1717016 1680691 1655280 
3905.028 1645800 1654049 1678130 1713789 1756570 1801884 1846004 1886735 
3908.885 1922078 1950701 1971736 1985050 1991474 1993472 1994637 1998198 
3912.743 2006587 2020135 2036280 2051094 2059817 2058718 2046167 2024063 
3916.600 1995768 1966577 1940882 1921446 1909431 1904972 1907634 1917186 
3920.458 1934126 1957158 1984351 2012212 2035947 2050595 2053391 2043970 
3924.315 2025528 2003558 1984052 1971869 1969240 1975198 1986848 2000894 
3928.172 2014176 2024596 2031520 2034449 2032851 2026293 2014076 1996334 
3932.030 1974632 1952465 1933793 1922777 1921812 1930764 1947705 1968774 
3935.887 1990309 2009549 2025494 2038411 2049862 2061015 2071835 2080891 
3939.745 2086118 2084753 2075497 2058685 2036546 2013211 1993272 1980357 
3943.602 1976263 1981023 1991940 2005521 2018238 2026893 2030121 2027425 
3947.459 2019702 2008850 1997200 1986648 1979026 1975164 1975564 1979957 
3951.317 1987680 1997799 2009117 2020867 2032352 2042772 2051993 2059850 
3955.174 2066142 2071036 2074232 2075531 2075031 2072900 2069205 2064378 
3959.032 2058918 2052592 2046167 2039742 2033883 2029056 2026659 2027259 
3962.889 2031420 2039376 2050195 2062580 2075198 2086717 2096605 2105162 
3966.747 2112920 2120711 2129502 2139025 2148581 2157472 2164198 2168228 
3970.604 2169526 2168061 2164731 2160336 2155207 2149913 2144652 2139890 
3974.461 2135928 2133697 2133564 2136327 2142354 2151611 2163399 2177385 
3978.319 2192704 2207890 2221877 2233200 2240228 2242592 2240128 2233200 
3982.176 2223242 2211753 2199897 2188774 2178917 2170425 2163333 2158138 
3986.034 2154808 2153676 2154542 2156406 2158071 2158304 2156240 2152144 
3989.891 2147582 2144152 2144186 2149147 2158770 2172024 2186676 2200396 
3993.749 2211020 2217980 2220911 2220711 2218014 2213851 2208322 2202261 
3997.606 2195634 2189140 2183512 2179217 2176286 2174455 2172690 
##END=
