
##TITLE=Z316_1_a
##JCAMP-DX=5.01  $$ Nicolet v. 1
##DATATYPE=INFRARED SPECTRUM
##ORIGIN=UniL
##OWNER=Nicolet
##LONGDATE=2011/09/09
##TIME=12:06:20
##SPECTROMETER/DATA SYSTEM=Nicolet iS5
##DATA PROCESSING=
Ratio against background
%Transmittance->Absorbance
Truncated
ElementMultiply or ElementDivide
##COMMENTS=
Number of sample scans: 32
Collection length: 51.20 sec
Sample gain: 2.0
Background collected on: Ven Sep 09 12:03:29 2011 (GMT+02:00);
Number of background scans: 32
Background gain: 2.0
Sample spacing:  1.000
Number of scan points: 12415
Resolution points: 8192
Number of FFT points: 65536
Apodization: N-B fort;
Phase correction: Mertz;
Laser frequency: 15798.0 cm-1
Number of rejected sample scans: 0
Number of rejected background scans: 0
Bench serial number: ASB1000141;
##RESOLUTION=4.000
##XUNITS=1/CM
##YUNITS=ABSORBANCE
##FIRSTX=649.893372
##LASTX=4000.122314
##FIRSTY=0.084182
##MAXX=4000.122314
##MINX=649.893372
##MAXY=0.243404
##MINY=-0.000116
##XFACTOR=1.000000
##YFACTOR=1.000000E-009
##NPOINTS=6950
##DELTAX=0.482117
##ZPD=6100
##XYDATA=(X++(Y..Y))
649.893 84181848 83975848 83846008 83815304 83878968 84012392 84185872 
653.268 84381872 84600184 84854504 85160968 85526152 85942272 86390328 
656.643 86847112 87291640 87710520 88091248 88418120 88672488 88833040 
660.018 88887032 88837144 88703128 88517960 88315448 88125176 87963544 
663.393 87835232 87735864 87656264 87583824 87497688 87364888 87138952 
666.767 86764888 86209176 85489920 84693200 83930376 83284752 82774456 
670.142 82361232 81976928 81551272 81034136 80402616 79667344 78860920 
673.517 78026840 77199192 76393616 75611544 74849568 74108112 73398440 
676.892 72737792 72139920 71608192 71132504 70693120 70267856 69843864 
680.267 69418376 68998400 68594072 68211960 67852016 67509720 67179984 
683.642 66861092 66557996 66277504 66024220 65796660 65586396 65382168 
687.016 65176956 64971732 64776092 64604432 64468840 64371572 64304864 
690.391 64251692 64195260 64125084 64040988 63951680 63869916 63805936 
693.766 63761116 63729680 63700028 63660660 63603884 63527092 63431068 
697.141 63317508 63187152 63039364 62875612 62700756 62523440 62354536 
700.516 62202900 62071460 61957300 61852416 61748700 61641112 61530956 
703.890 61423768 61325800 61239264 61160148 61078144 60981512 60860468 
707.265 60712252 60541080 60356532 60168868 59986188 59813552 59654440 
710.640 59514232 59403664 59338252 59336012 59411492 59567400 59788492 
714.015 60038308 60264440 60403972 60395600 60195620 59784424 59174188 
717.390 58405772 57547500 56685592 55905396 55291284 54910532 54802524 
720.765 54976904 55403632 56013340 56693256 57305612 57707164 57764728 
724.139 57395264 56580388 55376644 53899752 52303088 50744412 49340920 
727.514 48161268 47218616 46484764 45909384 45440184 45040436 44686852 
730.889 44368528 44079880 43812832 43556644 43302144 43043512 42782584 
734.264 42526892 42286144 42066804 41870568 41693820 41531076 41378596 
737.639 41235056 41101144 40977320 40860564 40744744 40622844 40490612 
741.013 40348680 40204460 40068216 39947812 39845964 39758848 39678028 
744.388 39595008 39505184 39409464 39313112 39221384 39136168 39055208 
747.763 38972892 38883700 38785328 38679660 38571480 38465396 38363280 
751.138 38264192 38166176 38069304 37977404 37897820 37837192 37798368 
754.513 37777044 37763780 37747008 37718528 37678812 37635232 37599172 
757.888 37580348 37582916 37603688 37635920 37673824 37716864 37770320 
761.262 37843156 37942004 38068216 38217408 38383552 38563552 38764172 
764.637 39001200 39299796 39689140 40195048 40839484 41635944 42586644 
768.012 43677760 44876100 46129636 47369876 48536404 49600392 50591788 
771.387 51608848 52805772 54355164 56369292 58842260 61592044 64286464 
774.762 66464616 67649856 67506544 65906240 62994428 59126420 54803388 
778.136 50529508 46691364 43544632 41172576 39528628 38484148 37888204 
781.511 37608168 37539524 37615720 37796020 38051580 38364256 38723380 
784.886 39127940 39585864 40110804 40716944 41412964 42203500 43091404 
788.261 44083220 45194504 46450140 47878420 49509516 51368344 53474456 
791.636 55847140 58508008 61482856 64799712 68476560 72508992 76852616 
795.010 81419888 86072696 90620264 94849088 98521448 101399480 103292536 
798.385 104070040 103701216 102264840 99950864 97032664 93803896 90565360 
801.760 87558528 84930688 82735200 80923464 79375312 77924032 76413248 
805.135 74734008 72847536 70797088 68690080 66670828 64865380 63355876 
808.510 62156024 61211532 60414752 59635168 58761260 57713556 56463316 
811.885 55025568 53446724 51785980 50096980 48427448 46812472 45277496 
815.259 43843656 42527368 41339636 40286324 39366472 38573908 37899304 
818.634 37334632 36873664 36513436 36252764 36090276 36023492 36049776 
822.009 36167912 36380972 36697140 37129224 37692072 38397704 39251812 
825.384 40249572 41373528 42590116 43849776 45090316 46232232 47193316 
828.759 47898948 48291004 48347740 48088864 47578596 46909908 46196480 
832.133 45555936 45083296 44848948 44884364 45178032 45673744 46274764 
835.508 46861960 47296492 47450288 47232872 46601276 45576064 44230856 
838.883 42683104 41060464 39477352 38025032 36755044 35685624 34810524 
842.258 34110732 33563172 33145450 32838650 32624212 32483180 32398384 
845.633 32354332 32340552 32353156 32392636 32462008 32564030 32699764 
849.008 32868386 33069250 33303152 33571940 33877720 34220420 34595756 
852.382 34995696 35409992 35829824 36250316 36672404 37101292 37545376 
855.757 38014256 38517568 39066088 39673308 40355224 41131264 42022856 
859.132 43049328 44229756 45581144 47118704 48857208 50806756 52966020 
862.507 55311192 57787588 60304792 62728852 64906620 66677048 67888240 
865.882 68434160 68259800 67374688 65848440 63804856 61405068 58812512 
869.256 56188584 53668584 51345408 49280080 47498932 46002492 44776028 
872.631 43796596 43039924 42481364 42097872 41868596 41772392 41790812 
876.006 41909212 42117148 42409860 42786424 43247128 43790368 44410476 
879.381 45096052 45832416 46601904 47387056 48173264 48948396 49704144 
882.756 50436168 51143220 51826484 52488172 53129744 53750516 54347204 
886.131 54915648 55454264 55967468 56469656 56982512 57532780 58146624 
889.505 58840664 59618824 60470196 61373124 62298040 63213328 64091556 
892.880 64907008 65636188 66258512 66752232 67097612 67279008 67285352 
896.255 67112112 66761584 66242420 65569980 64766168 63862852 62897636 
899.630 61912552 60951620 60050600 59235592 58520860 57907892 57390536 
903.005 56958940 56604316 56320556 56104760 55955596 55871928 55852488 
906.379 55896048 56003540 56178476 56427396 56757708 57175876 57684572 
909.754 58283284 58969272 59739520 60593188 61532520 62561668 63685596 
913.129 64908660 66235164 67671304 69227688 70921400 72776616 74819496 
916.504 77076472 79568200 82304760 85283336 88484488 91871416 95378688 
919.879 98911856 102349920 105537176 108313056 110536120 112106744 113004552 
923.254 113300576 113166152 112837432 112600848 112757136 113555192 
926.146 115181416 117720920 121142664 125291080 129888880 134583952 
929.039 138936400 142484800 144816352 145571456 144520416 141590000 
931.932 136869440 130606664 123168392 115023208 106646136 98475560 90891568 
935.306 84151160 78408616 73727112 70094352 67456032 65737596 64865112 
938.681 64762020 65342844 66507176 68110976 69964824 71854856 73536608 
942.056 74784864 75432312 75381264 74630552 73264712 71443144 69356808 
945.431 67195256 65129684 63276492 61701376 60424652 59432044 58690672 
948.806 58161248 57809656 57607080 57531080 57563916 57689188 57890892 
952.181 58155680 58472144 58832244 59231220 59665728 60132296 60626564 
955.555 61143208 61677736 62227524 62792636 63375012 63976520 64596624 
958.930 65232360 65877824 66526868 67175728 67823896 68474536 69131720 
962.305 69798528 70474744 71157640 71842664 72526416 73209016 73893432 
965.680 74584048 75284112 75994672 76713704 77438400 78167280 78902320 
969.055 79648832 80413976 81203720 82021792 82868880 83743936 84647496 
972.429 85582800 86555264 87571984 88638384 89756344 90924288 92138712 
975.804 93396688 94697704 96043096 97433848 98867752 100336928 101827928 
979.179 103322920 104803896 106254760 107660312 109007272 110280704 
982.072 111463528 112539232 113494560 114323544 115029944 115626488 
984.964 116131448 116562808 116936952 117267664 117566608 117847896 
987.857 118128104 118424032 118751528 119120664 119534016 119988200 
990.750 120476888 120995672 121543216 122122128 122735440 123383696 
993.643 124062848 124764712 125479864 126201120 126925480 127653240 
996.535 128384840 129118160 129845944 130558464 131246120 131903840 
999.428 132533696 133143304 133743048 134341264 134942672 135549104 
1002.321 136161648 136785088 137428480 138103552 138821840 139590032 
1005.213 140408352 141273008 142179920 143129184 144127392 145185472 
1008.106 146315232 147523936 148811392 150170160 151589488 153059456 
1010.999 154572544 156123296 157705760 159309056 160917744 162516208 
1013.891 164092352 165645024 167185488 168736432 170323216 171967920 
1016.784 173685856 175482816 177359904 179316848 181354016 183471360 
1019.677 185664560 187922160 190225760 192554496 194894752 197245104 
1022.570 199620656 202046320 204551008 207156288 209869600 212684704 
1025.462 215585440 218551888 221560656 224585056 227588832 230518608 
1028.355 233308144 235881232 238159408 240079008 241591312 242662656 
1031.249 243271968 243403536 243048496 242210592 240913168 239204592 
1034.142 237148784 234820656 232285728 229587152 226744848 223758208 
1037.035 220617520 217314592 213850896 210239088 206503200 202673920 
1039.928 198791184 194907520 191083200 187386848 183885488 180625184 
1042.821 177623824 174860880 172284064 169817872 167383808 164923552 
1045.714 162404560 159828288 157221936 154631344 152107840 149697952 
1048.607 147443424 145374464 143508784 141851696 140394480 139115552 
1051.500 137981856 136958048 136009840 135109600 134240336 133391944 
1054.393 132557616 131730856 130901472 130056664 129184408 128274632 
1057.286 127320664 126318424 125262904 124146848 122961648 121699296 
1060.179 120356824 118939848 117463024 115947280 114415080 112888136 
1063.072 111383408 109913752 108490776 107124224 105823720 104596096 
1065.965 103442568 102356888 101325040 100329496 99352176 98379624 97406312 
1069.341 96434176 95470984 94527024 93613912 92742512 91922760 91165128 
1072.716 90478920 89871088 89345464 88900976 88531696 88227960 87978760 
1076.091 87772528 87596152 87435360 87270904 87078408 86833552 86512680 
1079.466 86101384 85599136 85020752 84394912 83756480 83144448 82594400 
1082.842 82135312 81792288 81585888 81533080 81650392 81950840 82445024 
1086.217 83140680 84042384 85152304 86468608 87982936 89674264 91501032 
1089.592 93402400 95292976 97070376 98637408 99906872 100822824 101369728 
1092.967 101573520 101496960 101224552 100859816 100504568 100247184 
1095.860 100162464 100299520 100681504 101307256 102153016 103175664 
1098.753 104312856 105493240 106633600 107640872 108426248 108903672 
1101.646 109002504 108682704 107936960 106796400 105321344 103596192 
1104.540 101713408 99756544 97802192 95908984 94117400 92454800 90933968 
1107.915 89556072 88310536 87178592 86135120 85150816 84198616 83254848 
1111.290 82300312 81321536 80309440 79258528 78167248 77038888 75882032 
1114.665 74709728 73539200 72388336 71272376 70203976 69191624 68240608 
1118.041 67355032 66538416 65793380 65121940 64523464 63994600 63528480 
1121.416 63116640 62748148 62409848 62086368 61757292 61395828 60972284 
1124.791 60454892 59815836 59038920 58122000 57079844 55939804 54739900 
1128.166 53520968 52318860 51164504 50078464 49071580 48146164 47297788 
1131.542 46517220 45791912 45108916 44456720 43826576 43214256 42620564 
1134.917 42049940 41508764 41004560 40543864 40131700 39772428 39470204 
1138.292 39228276 39050496 38939112 38894572 38915228 38997392 39137184 
1141.667 39330848 39576932 39874876 40224924 40626196 41075648 41567572 
1145.042 42094732 42649292 43223736 43811440 44406292 45001184 45589132 
1148.418 46162320 46713872 47239596 47738372 48211728 48663324 49097512 
1151.793 49517868 49927560 50329488 50726908 51123652 51523556 51928644 
1155.168 52338856 52751144 53159852 53558260 53939140 54296324 54623556 
1158.543 54914032 55159552 55350596 55476664 55528472 55497900 55379016 
1161.919 55167640 54860416 54454540 53948220 53341436 52637760 51843960 
1165.294 50971564 50033992 49045132 48019320 46969012 45905700 44840756 
1168.669 43784980 42748652 41742188 40773572 39849088 38973184 38148668 
1172.044 37377712 36662960 36007368 35414412 34887144 34427472 34036296 
1175.420 33713864 33460162 33276144 33164118 33127070 33168766 33292204 
1178.795 33500318 33795800 34182168 34664944 35251772 35950640 36770012 
1182.170 37716828 38795400 40009208 41360880 42853452 44489392 46268532 
1185.545 48184812 50221676 52350596 54532368 56714588 58837784 60840836 
1188.921 62657044 64223804 65485632 66395624 66925720 67069612 66845284 
1192.296 66291204 65462448 64424760 63240996 61969224 60656964 59335476 
1195.671 58023036 56725312 55439284 54157124 52871068 51578176 50282388 
1199.046 48995612 47735528 46524228 45382980 44328524 43372620 42519440 
1202.422 41767360 41110320 40539828 40046052 39617368 39241332 38903268 
1205.797 38586544 38275156 37954188 37612216 37242928 36845100 36421724 
1209.172 35978712 35524140 35067460 34618472 34189016 33791000 33436470 
1212.547 33136830 32901552 32737564 32650072 32642606 32718342 32880786 
1215.923 33133042 33477626 33915760 34446660 35068540 35779016 36576872 
1219.298 37461972 38435384 39498036 40650424 41892132 43222640 44643040 
1222.673 46157052 47770660 49491468 51326016 53277080 55342508 57513792 
1226.048 59777124 62111064 64488256 66872224 69214712 71461344 73549600 
1229.424 75414256 76998928 78255352 79150736 79671208 79822808 79635096 
1232.799 79158728 78471768 77672464 76866688 76172200 75698664 75539344 
1236.174 75776064 76468848 77659632 79377016 81634192 84429680 87742112 
1239.549 91530528 95727120 100234368 104939096 109705072 114381496 118821088 
1242.925 122869136 126378072 129224744 131308216 132568536 132991072 
1245.818 132604328 131474344 129690664 127367304 124626288 121591176 
1248.711 118386824 115116584 111853072 108629000 105429536 102199056 
1251.604 98852320 95305440 91491952 87384664 83005760 78425400 73752288 
1254.979 69106272 64614228 60385392 56495092 52989304 49878756 47146888 
1258.354 44757040 42663328 40818884 39177940 37703384 36366528 35145020 
1261.729 34024080 32992486 32040742 31160348 30342490 29578910 28863090 
1265.105 28190800 27561000 26974310 26432392 25936238 25484884 25076368 
1268.480 24707938 24377984 24086280 23834078 23623200 23454460 23327038 
1271.855 23238170 23184204 23161836 23169142 23205596 23271766 23368084 
1275.230 23494644 23650104 23832432 24037986 24261362 24494006 24723792 
1278.606 24935942 25113580 25242088 25311872 25320652 25273168 25178216 
1281.981 25046216 24884992 24697662 24483910 24242162 23972154 23677920 
1285.356 23367666 23052948 22747154 22461496 22205564 21986064 21807680 
1288.731 21673250 21583886 21538238 21531866 21557458 21606662 21671162 
1292.107 21745424 21827816 21920262 22026532 22150574 22295264 22461844 
1295.482 22651460 22866058 23108612 23383400 23695172 24046704 24439530 
1298.857 24873728 25349138 25866354 26426052 27027658 27666750 28332886 
1302.232 29009856 29676106 30308486 30887106 31396218 31826876 32177028 
1305.608 32450118 32654788 32803200 32911916 32999352 33083692 33181966 
1308.983 33305156 33458084 33638956 33841432 34056652 34276316 34493688 
1312.358 34703204 34899568 35076584 35226872 35342664 35418040 35449212 
1315.733 35435372 35377708 35278472 35139668 34963484 34753128 34514028 
1319.109 34254696 33986128 33719412 33464062 33225994 33007574 32809168 
1322.484 32631714 32478184 32354974 32271274 32236480 32259780 32348730 
1325.859 32509212 32746568 33065494 33467784 33949476 34498172 35091600 
1329.234 35696956 36278084 36801456 37239680 37578796 37817020 37963952 
1332.610 38035556 38051108 38030928 37992560 37952672 37925516 37922440 
1335.985 37952092 38019824 38128588 38280836 38480240 38733124 39048360 
1339.360 39435116 39899320 40441696 41056020 41730736 42449028 43191344 
1342.735 43935592 44654056 45316812 45892000 46348820 46665392 46830296 
1346.111 46844504 46718300 46467284 46107232 45649412 45101528 44467916 
1349.486 43753056 42965188 42118060 41230392 40325916 39429380 38563552 
1352.861 37749572 37004584 36341628 35771172 35299208 34926676 34649260 
1356.236 34458208 34342044 34288900 34290192 34339928 34434000 34569028 
1359.612 34739812 34939532 35162160 35405028 35671920 35973456 36325780 
1362.987 36744876 37241844 37821140 38480020 39211884 40006956 40853756 
1366.362 41736132 42627288 43490608 44277524 44930624 45395816 45626408 
1369.737 45589976 45273048 44679360 43829764 42757536 41511828 40155320 
1373.113 38756488 37392628 36134712 35034416 34120520 33394676 32839578 
1376.488 32430124 32146376 31980642 31940802 32047626 32332488 32835040 
1379.863 33595820 34654392 36040808 37760960 39778640 41997820 44271104 
1383.238 46393908 48137464 49295372 49688320 49205560 47823888 45627844 
1386.614 42812932 39649132 36448784 33473224 30888530 28761860 27074346 
1389.989 25761146 24740488 23939346 23298404 22773132 22334016 21961736 
1393.364 21645214 21381268 21171612 21019888 20928296 20895402 20915638 
1396.739 20981112 21082770 21211274 21358124 21513900 21670152 21820432 
1400.115 21960550 22088688 22204866 22308868 22400368 22478734 22544410 
1403.490 22600356 22652962 22710424 22780010 22865638 22966026 23076184 
1406.865 23190110 23304312 23420118 23543718 23683380 23846574 24037110 
1410.240 24254320 24494636 24754202 25031580 25328624 25649110 25995790 
1413.615 26368694 26764228 27177722 27605380 28047526 28508840 28997388 
1416.991 29522586 30091920 30709582 31375204 32082300 32820248 33574340 
1420.366 34326656 35058840 35754012 36401364 36998916 37559068 38108728 
1423.741 38688280 39339336 40093832 40968040 41960884 43062644 44262996 
1427.116 45557556 46943468 48412152 49943620 51499268 53027524 54478352 
1430.492 55812548 57014024 58090792 59070384 59989920 60887536 61800800 
1433.867 62766216 63824548 65027260 66433304 68098880 70060792 72312168 
1437.242 74804032 77463984 80218200 83000984 85743264 88367552 90764472 
1440.617 92795512 94323992 95219656 95391152 94800568 93457368 91414608 
1443.993 88753248 85583248 82026592 78203616 74240920 70257960 66372500 
1447.368 62711932 59393944 56510792 54108068 52174240 50652960 49467516 
1450.743 48553372 47871388 47412740 47187476 47206572 47466516 47947604 
1454.118 48615408 49433396 50375888 51423992 52565724 53785164 55056484 
1457.494 56344244 57613516 58843248 60024536 61156636 62242056 63283852 
1460.869 64283044 65234556 66127852 66940404 67634792 68166672 68491104 
1464.244 68581384 68443432 68119384 67672776 67161688 66628716 66093004 
1467.619 65557228 65016716 64463580 63885188 63258976 62548660 61706148 
1470.995 60682988 59456592 58054396 56566348 55116744 53821920 52751404 
1474.370 51917068 51294844 50852532 50571352 50453100 50515072 50774728 
1477.745 51240668 51906016 52754732 53768176 54935648 56259260 57751628 
1481.120 59430148 61308592 63392648 65679468 68164312 70847120 73739520 
1484.496 76861272 80228640 83840456 87653872 91562352 95403616 98946184 
1487.871 101912888 104028312 105036392 104763872 103170160 100372120 
1490.764 96628672 92264296 87606360 82899672 78281544 73813984 69497696 
1494.139 65315188 61271540 57405852 53799904 50563420 47796108 45556928 
1497.514 43848936 42634744 41854660 41449668 41374984 41595940 42084328 
1500.890 42813152 43748956 44851080 46075656 47364032 48645724 49835644 
1504.265 50809512 51407952 51442196 50728400 49175800 46862148 44032868 
1507.640 40984204 37942800 35015632 32217778 29529502 26937010 24444018 
1511.015 22081262 19891896 17910352 16157882 14633439 13318728 12186614 
1514.391 11208344 10357199 9607741 8938543 8334681 7789506 7306842 6895135 
1518.248 6560809 6300190 6096881 5922385 5747186 5550076 5331755 5116594 
1522.105 4939274 4824206 4772043 4762562 4765745 4756231 4720221 4660602 
1525.963 4593356 4538375 4508175 4502450 4510787 4520730 4526355 4529704 
1529.820 4539112 4561880 4598480 4639067 4666832 4663985 4622457 4551098 
1533.678 4474362 4419229 4403095 4425254 4471684 4522706 4561780 4579928 
1537.535 4575408 4551768 4513499 4462545 4397070 4316680 4228575 4148483 
1541.393 4093793 4074594 4087337 4116739 4142496 4149420 4132695 4101218 
1545.250 4071417 4059744 4073490 4107875 4149721 4183677 4200873 4200471 
1549.107 4191070 4184613 4190401 4208668 4231353 4245840 4241858 4216430 
1552.965 4175112 4129182 4091251 4069811 4065296 4071250 4077872 4075130 
1556.822 4053256 4002992 3916121 3790694 3639441 3490579 3379099 3327811 
1560.680 3338696 3398668 3486571 3580738 3661661 3717099 3743702 3747946 
1564.537 3743601 3745272 3762485 3795407 3835719 3871355 3892851 3896228 
1568.395 3885128 3868814 3858217 3862095 3884192 3924948 3983396 4059075 
1572.252 4151227 4256949 4370027 4479719 4573968 4643455 4687899 4719551 
1576.109 4760854 4835698 4956266 5121053 5319176 5539505 5776129 6030151 
1579.967 6308023 6617897 6965970 7353582 7777733 8232588 8711245 9205489 
1583.824 9703618 10189531 10640332 11030593 11338211 11548820 11661736 
1587.199 11690565 11662588 11613170 11580977 11606092 11722222 11957404 
1590.575 12330953 12850019 13504767 14263280 15074574 15865667 16552480 
1593.950 17058596 17319100 17297928 16993022 16436668 15688026 14817848 
1597.325 13902777 13007998 12182320 11461380 10864601 10399618 10064823 
1600.700 9852321 9751227 9750955 9844220 10026912 10296021 10647464 11072874 
1604.558 11558348 12086166 12634275 13177987 13691228 14143832 14503748 
1607.933 14741504 14831013 14757032 14517417 14124800 13605098 12994785 
1611.308 12338623 11678653 11049829 10475780 9964797 9514086 9113207 8749311 
1615.166 8410582 8090346 7790956 7522586 7299935 7135868 7036111 6997049 
1619.023 7008262 7054127 7117713 7183801 7240466 7281976 7310987 7337170 
1622.881 7372993 7429649 7511966 7617599 7740291 7872600 8009775 8148614 
1626.738 8287363 8423420 8553368 8673993 8783865 8884938 8982516 9082315 
1630.595 9188568 9301549 9416693 9525229 9616583 9679664 9704737 9685255 
1634.453 9619462 9513849 9382529 9246239 9125253 9032447 8970203 8932658 
1638.310 8909356 8887948 8857511 8811861 8749785 8676258 8599295 8527552 
1642.168 8465279 8411494 8358831 8296414 8212968 8098751 7949433 7767883 
1646.025 7565808 7361468 7176492 7030790 6936208 6895640 6903686 6948631 
1649.883 7013750 7076489 7110842 7085683 6973445 6766119 6494378 6225967 
1653.740 6027128 5927591 5913349 5951239 6007944 6061432 6100073 6120471 
1657.597 6124201 6114657 6095235 6067211 6030387 5982916 5923291 5850342 
1661.455 5764545 5668694 5568300 5471418 5387172 5323268 5283757 5267759 
1665.312 5269167 5278055 5283355 5273293 5239051 5177248 5090511 4987334 
1669.170 4880496 4783064 4704445 4648980 4616529 4602799 4601259 4602431 
1673.027 4595332 4568343 4512293 4425020 4316144 4205055 4112825 4053925 
1676.885 4029645 4030247 4040514 4046768 4041852 4026702 4009512 3999848 
1680.742 4003995 4019211 4033791 4027872 3981924 3883892 3740092 3577732 
1684.599 3435470 3341935 3303137 3305908 3330014 3358229 3378632 3385878 
1688.457 3378932 3359665 3331417 3298663 3267381 3244013 3233931 3240107 
1692.314 3260203 3286344 3305574 3303337 3267815 3197413 3104029 3013535 
1696.172 2953782 2938670 2963557 3007629 3044832 3048569 3000756 2900076 
1700.029 2768406 2644544 2563610 2541280 2568743 2625742 2689717 2743464 
1703.886 2775942 2782578 2766439 2735828 2703120 2678782 2668580 2672847 
1707.744 2687850 2708121 2728893 2748332 2766905 2787614 2813625 2847076 
1711.601 2887634 2933300 2980438 3025946 3068323 3107566 3143977 3177019 
1715.459 3202987 3216339 3211700 3187266 3148750 3109302 3084841 3086142 
1719.316 3115976 3168641 3233731 3300533 3360366 3409521 3448161 3479323 
1723.174 3507681 3536508 3567576 3600517 3634296 3667743 3700390 3731470 
1727.031 3759844 3783374 3799384 3807039 3807106 3803496 3800788 3801891 
1730.888 3805200 3803262 3782873 3728128 3627379 3480659 3306609 3137803 
1734.746 3008663 2937269 2920557 2941306 2977335 3010398 3026614 3019507 
1738.603 2989780 2944842 2895373 2852446 2823797 2811391 2813592 2826132 
1742.461 2844442 2864953 2885266 2904645 2923325 2943074 2965092 2990280 
1746.318 3018706 3049203 3079602 3107233 3129793 3144611 3150318 3144911 
1750.176 3128658 3103428 3073729 3046367 3028048 3023044 3031685 3049637 
1754.033 3068690 3078367 3070158 3038692 2985309 2918155 2849311 2790682 
1757.890 2748432 2721391 2702486 2682516 2652111 2605675 2543313 2469696 
1761.748 2393693 2324432 2269704 2233100 2214816 2211986 2219746 2231702 
1765.605 2241194 2241926 2230603 2207823 2178750 2151811 2135162 2131799 
1769.463 2138991 2148248 2148814 2131799 2094741 2043837 1993139 1958189 
1773.320 1948204 1963914 1998798 2042971 2088382 2131066 2170991 2210187 
1777.177 2250519 2291588 2330361 2362876 2385364 2397158 2400690 2400723 
1781.035 2401956 2406987 2414916 2422813 2427045 2425812 2419448 2410918 
1784.892 2404288 2402888 2408486 2421447 2440606 2465098 2493523 2524282 
1788.750 2554511 2579276 2592775 2588809 2563444 2516617 2453934 2385430 
1792.607 2321567 2270803 2236498 2217081 2208123 2205025 2203827 2201895 
1796.465 2197666 2189640 2176253 2156140 2129102 2095706 2058651 2020834 
1800.322 1985949 1956192 1932761 1915156 1903341 1896719 1895687 1900845 
1804.179 1912127 1928235 1947372 1967243 1985616 2001694 2015108 2026260 
1808.037 2035548 2042472 2046167 2046567 2044003 2040009 2037079 2037945 
1811.894 2043437 2053525 2065975 2078360 2089048 2097504 2104796 2113519 
1815.752 2126305 2144752 2169659 2200563 2235998 2274334 2314006 2353414 
1819.609 2391127 2425979 2456600 2482126 2502187 2515784 2522183 2520750 
1823.467 2510819 2493556 2472228 2452035 2439207 2438340 2450369 2471895 
1827.324 2496322 2515151 2521283 2512052 2490723 2465897 2448337 2447337 
1831.181 2466197 2502687 2550045 2600908 2649611 2693584 2732928 2769640 
1835.039 2805989 2843374 2882564 2924159 2969195 3020308 3080703 3153055 
1838.896 3238772 3337026 3444854 3557888 3671686 3781970 3885396 3979650 
1842.754 4064059 4140388 4213318 4289440 4376084 4478179 4595834 4724174 
1846.611 4855701 4980866 5091517 5183150 5254243 5306766 5343965 5367782 
1850.469 5378014 5372378 5347319 5300225 5231606 5144858 5045356 4938738 
1854.326 4829700 4720255 4610903 4501680 4392886 4286127 4183476 4086134 
1858.183 3994130 3905589 3817601 3728462 3637537 3545995 3456110 3370651 
1862.041 3290517 3216606 3149183 3088845 3037791 2998421 2972064 2958052 
1865.898 2952448 2949446 2942740 2928296 2905846 2879395 2855448 2839672 
1869.756 2834936 2840339 2851879 2864953 2876293 2883932 2887501 2887234 
1873.613 2882864 2873825 2859583 2840506 2817794 2793850 2770707 2748566 
1877.470 2726559 2701786 2671714 2635143 2593075 2548045 2502587 2458766 
1881.328 2415483 2370505 2321267 2266140 2206990 2148182 2094641 2050895 
1885.185 2018803 1996467 1980190 1966144 1951266 1935124 1919083 1905238 
1889.043 1895554 1891427 1892725 1899115 1910430 1925939 1944177 1963415 
1892.900 1980523 1993039 2000162 2003125 2005854 2013377 2028790 2052626 
1896.758 2082555 2113353 2140123 2161068 2176486 2189740 2204659 2223342 
1900.615 2244957 2266840 2285426 2298916 2308443 2317903 2331161 2351882 
1904.472 2380499 2414283 2449103 2480559 2505353 2522383 2531648 2533314 
1908.330 2527715 2515218 2496322 2473795 2451402 2432109 2419148 2412517 
1912.187 2410319 2409785 2408586 2405687 2402022 2399190 2396758 2392327 
1916.045 2381699 2359811 2324432 2277765 2226673 2179982 2144752 2122975 
1919.902 2110622 2100634 2085119 2059750 2025128 1986715 1951133 1924075 
1923.760 1906902 1896985 1889963 1882309 1872991 1864173 1858716 1858782 
1927.617 1863241 1869397 1873058 1872026 1866802 1859847 1854556 1853059 
1931.474 1853791 1853824 1849299 1838052 1821548 1803813 1788775 1779592 
1935.332 1776598 1776731 1777030 1776232 1775267 1777197 1785514 1800087 
1939.189 1817721 1832761 1838351 1830731 1810468 1782054 1752478 1728825 
1943.047 1713988 1707668 1708433 1713057 1721041 1732817 1748951 1768347 
1946.904 1788542 1805444 1815559 1817954 1814693 1808305 1802582 1797226 
1950.761 1790272 1778228 1758932 1733382 1706637 1686146 1676899 1680957 
1954.619 1693897 1707402 1712624 1703710 1679228 1643539 1603762 1565452 
1958.476 1532599 1506364 1484919 1467431 1455064 1448581 1449312 1456327 
1962.334 1465835 1473316 1475710 1473083 1468828 1467830 1473848 1486681 
1966.191 1502607 1515475 1520030 1515308 1504336 1490904 1478469 1466401 
1970.049 1450310 1425676 1391238 1350387 1312731 1290132 1290797 1317583 
1973.906 1365643 1425344 1490538 1558835 1634692 1726663 1841013 1975164 
1977.763 2118680 2254150 2364441 2437874 2472362 2471629 2445204 2402789 
1981.621 2351216 2295352 2239928 2187076 2141422 2107060 2084353 2071635 
1985.478 2065210 2059683 2052692 2046400 2044702 2053724 2076596 2111189 
1989.336 2150213 2186543 2212752 2227206 2234366 2241127 2254716 2278431 
1993.193 2310142 2344120 2374003 2396258 2410319 2419681 2428211 2438307 
1997.051 2450269 2462132 2470896 2475794 2476794 2473395 2465731 2451269 
2000.908 2424312 2381332 2320668 2243725 2157339 2070104 1989244 1919915 
2004.765 1864273 1821049 1789274 1769711 1763556 1771973 1794032 1823777 
2008.623 1852992 1873923 1881544 1876153 1863108 1848733 1838850 1835256 
2012.480 1836122 1838584 1841512 1847901 1862010 1890229 1934292 1991408 
2016.338 2054257 2114551 2165563 2206824 2241627 2275333 2311541 2349583 
2020.195 2383431 2406820 2415216 2407620 2389895 2370172 2354680 2347784 
2024.052 2349450 2356146 2365508 2376768 2389561 2405621 2424279 2441172 
2027.910 2450569 2448037 2431776 2406021 2379700 2361343 2358245 2373170 
2031.767 2402489 2441106 2485058 2531715 2582242 2639877 2705153 2776443 
2035.625 2851145 2925060 2996285 3065587 3134332 3203789 3272522 3336058 
2039.482 3388616 3426119 3447727 3456210 3457913 3458915 3461888 3467499 
2043.340 3472108 3472208 3466630 3457245 3448194 3445589 3453939 3475448 
2047.197 3510286 3556151 3609705 3665804 3717467 3756134 3772679 3760780 
2051.054 3718971 3653040 3576730 3505543 3455676 3437106 3449964 3485635 
2054.912 3529994 3568912 3592498 3599381 3593434 3582108 3571518 3564569 
2058.769 3560794 3558756 3557721 3558756 3564937 3578199 3597042 3617623 
2062.627 3633159 3637102 3627379 3606831 3581741 3559558 3546396 3542688 
2066.484 3546129 3551607 3554647 3553779 3550405 3546563 3544492 3544859 
2070.342 3545527 3544926 3542387 3538713 3536909 3539448 3546697 3556151 
2074.199 3564168 3566306 3560761 3549469 3535673 3525151 3521142 3523714 
2078.056 3530128 3536809 3539682 3537644 3532065 3525050 3518804 3514261 
2081.914 3510219 3505376 3498862 3491347 3484934 3482395 3485468 3493819 
2085.771 3505643 3517534 3525919 3529026 3525418 3514729 3497192 3472876 
2089.629 3441982 3406415 3368948 3333554 3305207 3287312 3281035 3285676 
2093.486 3298029 3314255 3331784 3348746 3364573 3379600 3393158 3404478 
2097.344 3412026 3415866 3416334 3415599 3416167 3418872 3423948 3430260 
2101.201 3436505 3442450 3450065 3462890 3484533 3516866 3558589 3606063 
2105.058 3654343 3699755 3740092 3777257 3814259 3853704 3897331 3944140 
2108.916 3991354 4037036 4079979 4120820 4161463 4203382 4246275 4288704 
2112.773 4327824 4361157 4388200 4410560 4430342 4450025 4470847 4492005 
2116.631 4512628 4531679 4549357 4567573 4588936 4614386 4643220 4672793 
2120.488 4698951 4718479 4730839 4736869 4740453 4745478 4753384 4764304 
2124.345 4776297 4786012 4790837 4790501 4784873 4774555 4760519 4741860 
2128.203 4718312 4689305 4655645 4619041 4582273 4547516 4516311 4489528 
2132.060 4468303 4453573 4449021 4457088 4479317 4514771 4557561 4599819 
2135.918 4633676 4653536 4658827 4654641 4648411 4646201 4652296 4666262 
2139.775 4684181 4701664 4715934 4725279 4730873 4733486 4731543 4722264 
2143.633 4702167 4667769 4619577 4561077 4497429 4434493 4376151 4323373 
2147.490 4275252 4230516 4188862 4151260 4118244 4088642 4058239 4021284 
2151.347 3971257 3903383 3818203 3719505 3612678 3502937 3392490 3280468 
2155.205 3167707 3058913 2965892 2906914 2903011 2969462 3109769 3310916 
2159.062 3545728 3784444 3999246 4172703 4300383 4385356 4433957 4454578 
2162.920 4454845 4439815 4417220 4394493 4377524 4370261 4373206 4380469 
2166.777 4385088 4380301 4361258 4328426 4286596 4240754 4197159 4159991 
2170.635 4129316 4103995 4082722 4062153 4039945 4015766 3987341 3955040 
2174.492 3920902 3886800 3856378 3832243 3814058 3797813 3777893 3747679 
2178.349 3703030 3646358 3584380 3528023 3488141 3471206 3477285 3501434 
2182.207 3534203 3566741 3595205 3618859 3639441 3660492 3682947 3704668 
2186.064 3723315 3736616 3743969 3748046 3752959 3761616 3775787 3795908 
2189.922 3819875 3846750 3876737 3910103 3947316 3986439 4023090 4051183 
2193.779 4065497 4063156 4046902 4022220 3997441 3979450 3972127 3974568 
2197.636 3982091 3989381 3991454 3986004 3973765 3957749 3940963 3927355 
2201.494 3918795 3916689 3920902 3930598 3942969 3955475 3965071 3969485 
2205.351 3969117 3966141 3964068 3966743 3975939 3989381 4003895 4014228 
2209.209 4016836 4012121 4004028 3998109 3999949 4012857 4034996 4061550 
2213.066 4087137 4106604 4118879 4126339 4131791 4139451 4151662 4167418 
2216.924 4185149 4203616 4220947 4237208 4253569 4269731 4285692 4299981 
2220.781 4311125 4318520 4322536 4324343 4325046 4325214 4324076 4319658 
2224.638 4312061 4300784 4287432 4274483 4263708 4255744 4249989 4245104 
2228.496 4239851 4235300 4233661 4237576 4249755 4270434 4297304 4327188 
2232.353 4356170 4381306 4401890 4418392 4431011 4438978 4441255 4435497 
2236.211 4420835 4398677 4372436 4347502 4329162 4320428 4321700 4330836 
2240.068 4344155 4358212 4371700 4384351 4397840 4413806 4433589 4457021 
2243.926 4484338 4514737 4547449 4582038 4616731 4649115 4676210 4695368 
2247.783 4704847 4704813 4697712 4686157 4673831 4663214 4655210 4650756 
2251.640 4650990 4657085 4671487 4696205 4730638 4772579 4816433 4855466 
2255.498 4883813 4897619 4896011 4881535 4858649 4830839 4802027 4774388 
2259.355 4748459 4725178 4705550 4689707 4678319 4671554 4667870 4666329 
2263.213 4666497 4668104 4672224 4680965 4694999 4714728 4739247 4766716 
2267.070 4795058 4823167 4850306 4875805 4899295 4918832 4932169 4937297 
2270.927 4933409 4920976 4903316 4883713 4866791 4855332 4850306 4851009 
2274.785 4856404 4864312 4873225 4882976 4893062 4902981 4913001 4923356 
2278.642 4933912 4946178 4961225 4980296 5003792 5031344 5061178 5091618 
2282.500 5120819 5147272 5170441 5189789 5204778 5214906 5219500 5218628 
2286.357 5212793 5204007 5193813 5184290 5176611 5170542 5165311 5160416 
2290.215 5155453 5151296 5149552 5152033 5159443 5171816 5187710 5204812 
2294.072 5221780 5237475 5251594 5264908 5277552 5289392 5299756 5307772 
2297.929 5312434 5314111 5313608 5312032 5310757 5310153 5309818 5309382 
2301.787 5308141 5305558 5302036 5297810 5292980 5287547 5280940 5272622 
2305.644 5262728 5252398 5242706 5235630 5232712 5234088 5239286 5247536 
2309.502 5257362 5267692 5278726 5289861 5301533 5313977 5326925 5340476 
2313.359 5354531 5369325 5384824 5401027 5416896 5430820 5441422 5447360 
2317.217 5448300 5445314 5440113 5435013 5432497 5434007 5440516 5452393 
2321.074 5468734 5487726 5506752 5521282 5525947 5515913 5487558 5440113 
2324.931 5376772 5303848 5229091 5160617 5104927 5064564 5039657 5027221 
2328.789 5023634 5025679 5031378 5039992 5051557 5065636 5081124 5096546 
2332.646 5110928 5123568 5135202 5147104 5160449 5175806 5192807 5210244 
2336.504 5227011 5243008 5258905 5276076 5296033 5319109 5344099 5369224 
2340.361 5392070 5410387 5423740 5432463 5437664 5440751 5442730 5444106 
2344.219 5446253 5451118 5462090 5483196 5518397 5570045 5638214 5720327 
2348.076 5811589 5905960 5996992 6078568 6146212 6197330 6231311 6250471 
2351.933 6259245 6262606 6265598 6272220 6283852 6300425 6320966 6343761 
2355.791 6367970 6393356 6420156 6448841 6480084 6513920 6550886 6591825 
2359.648 6637915 6690033 6748821 6813002 6879818 6946375 7008800 7065005 
2363.506 7114716 7158571 7198590 7236827 7273855 7309572 7343640 7375487 
2367.363 7405146 7433525 7460996 7487694 7512270 7532801 7547298 7555120 
2371.220 7557042 7555761 7554715 7557749 7567258 7584487 7609843 7643261 
2375.078 7685248 7737019 7799862 7875029 7963033 8063071 8173869 8293374 
2378.935 8420075 8552895 8691469 8835294 8983598 9135135 9287840 9439380 
2382.793 9587789 9731234 9867913 9996972 10116608 10225047 10320857 10402299 
2386.650 10468584 10519704 10556131 10578911 10589198 10588179 10577044 
2390.025 10557047 10529447 10495060 10455075 10409698 10358726 10302434 
2393.401 10241093 10175793 10108672 10042713 9980258 9923573 9873574 9830053 
2397.258 9792672 9761324 9736384 9719747 9713377 9718866 9737129 9768169 
2401.115 9811006 9864794 9929133 10004329 10091206 10190548 10302060 
2404.491 10424393 10555485 10692696 10834026 10978664 11126411 11277949 
2407.866 11434505 11596699 11765320 11940954 12124223 12315853 12516126 
2411.241 12724204 12937637 13153123 13365059 13568040 13757435 13929224 
2414.616 14080818 14211580 14321253 14410435 14480213 14531807 14567338 
2417.992 14588617 14598656 14599376 14592763 14579776 14560553 14534411 
2421.367 14500870 14459213 14409614 14353170 14291324 14226918 14163105 
2424.742 14103065 14050187 14007512 13977297 13961215 13960565 13975825 
2428.117 14007512 14056141 14121959 14204768 14304439 14419992 14550515 
2431.493 14694923 14852750 15023498 15207764 15405737 15617127 15841609 
2434.868 16077898 16324878 16582256 16849948 17129074 17421074 17727180 
2438.243 18047834 18383416 18733648 19098116 19477134 19871084 20280320 
2441.618 20704922 21144408 21597226 22062576 22539558 23028002 23528608 
2444.994 24042326 24568964 25107682 25656772 26213560 26775822 27341846 
2448.369 27910200 28479934 29049426 29616260 30177084 30728536 31267230 
2451.744 31791010 32298722 32788980 33260298 33710104 34134424 34528272 
2455.119 34886676 35204268 35476572 35700048 35870916 35986128 36043472 
2458.495 36040916 35977384 35853356 35669008 35425088 35122712 34762280 
2461.870 34345484 33874640 33353992 32788802 32186412 31554640 30901230 
2465.245 30234168 29561564 28890534 28229022 27585148 26966202 26379082 
2468.620 25829466 25320724 24854956 24433012 24054340 23718548 23424734 
2471.996 23171762 22957188 22777776 22628526 22503404 22396670 22302904 
2475.371 22217558 22138544 22063726 21992128 21922806 21854506 21785696 
2478.746 21715292 21642148 21565676 21485456 21401178 21312670 21220112 
2482.121 21123954 21025104 20925548 20827266 20732342 20642408 20558292 
2485.497 20479474 20405116 20334344 20265600 20198742 20133350 20069182 
2488.872 20006136 19944172 19882426 19820654 19758822 19696444 19633866 
2492.247 19571404 19508914 19446466 19383648 19319246 19252636 19182746 
2495.622 19107950 19026970 18939050 18843120 18739184 18628080 18510570 
2498.998 18388290 18263140 18136092 18008184 17880484 17752548 17624546 
2502.373 17496544 17368550 17241004 17115082 16991884 16872888 16759781 
2505.748 16653622 16554993 16463684 16378963 16298939 16222231 16147222 
2509.123 16072363 15997002 15920622 15842194 15761478 15677823 15591058 
2512.499 15501495 15409959 15317963 15227015 15138419 15052346 14968895 
2515.874 14887416 14807254 14728478 14651978 14578714 14510120 14447361 
2519.249 14390844 14340602 14296323 14257904 14225275 14199016 14179194 
2522.624 14165569 14157661 14154444 14154717 14158072 14164166 14173032 
2526.000 14185117 14199872 14216682 14234108 14250886 14265711 14278620 
2529.375 14289783 14300090 14310534 14321253 14332280 14343170 14353650 
2532.750 14362897 14371527 14379576 14386632 14392967 14398277 14402250 
2536.125 14405674 14409510 14415128 14424033 14437496 14455445 14477849 
2539.500 14504228 14533897 14567030 14603865 14644542 14688856 14735745 
2542.876 14783428 14829950 14873872 14914162 14951165 14985804 15018833 
2546.251 15050973 15082636 15113271 15142536 15170328 15196646 15221970 
2549.626 15246816 15271491 15295791 15319782 15342985 15365332 15387028 
2553.001 15408381 15429563 15450849 15471932 15492362 15511797 15529756 
2556.377 15546034 15559874 15570795 15577527 15579141 15574642 15563068 
2559.752 15543974 15517394 15483091 15441991 15394443 15341234 15283744 
2563.127 15223960 15163534 15104077 15046719 14991429 14937790 14884707 
2566.502 14831904 14779382 14728718 14681830 14641149 14608731 14585361 
2569.878 14570832 14564459 14564699 14570387 14580941 14595812 14614762 
2573.253 14637894 14664900 14695060 14728615 14764985 14803518 14844178 
2576.628 14886147 14928565 14970816 15012488 15053546 15094917 15137458 
2580.003 15181960 15229314 15279968 15333752 15390666 15451056 15514750 
2583.379 15582232 15653605 15728254 15805699 15885014 15965169 16046060 
2586.754 16127277 16208507 16289445 16369261 16446408 16519574 16588315 
2590.129 16652383 16712811 16771523 16829730 16888770 16949228 17010524 
2593.504 17072450 17134626 17197360 17260656 17325238 17390932 17456946 
2596.880 17522936 17588004 17651566 17714684 17778366 17844130 17913596 
2600.255 17987738 18066866 18151052 18240230 18334438 18434094 18539616 
2603.630 18650870 18767588 18888764 19013228 19139736 19267632 19396604 
2607.005 19527246 19660282 19796274 19935500 20077790 20221964 20366326 
2610.381 20508618 20646506 20777558 20900064 21012758 21115118 21207518 
2613.756 21290226 21363344 21426972 21480372 21522640 21553732 21573476 
2617.131 21582668 21583052 21576262 21564178 21548510 21530334 21510454 
2620.506 21489772 21469058 21448972 21430314 21413502 21398568 21385760 
2623.882 21374968 21366302 21360524 21358540 21360664 21367728 21379806 
2627.257 21396340 21417052 21441452 21469338 21501088 21536984 21577376 
2630.632 21622402 21672066 21725254 21782004 21841720 21903710 21967940 
2634.007 22034270 22102598 22172750 22244832 22318808 22394472 22472036 
2637.383 22550726 22630026 22709202 22787692 22865570 22943144 23021398 
2640.758 23100960 23182212 23265018 23348330 23431378 23513252 23593496 
2644.133 23672848 23752178 23832608 23914978 23999324 24085440 24172902 
2647.508 24261152 24350264 24440688 24533094 24628258 24726772 24829344 
2650.884 24935872 25046918 25162590 25282722 25407310 25535802 25667424 
2654.259 25801932 25939122 26079452 26224048 26374116 26530542 26693436 
2657.634 26862348 27035980 27212928 27392064 27572932 27755114 27939032 
2661.009 28124620 28311736 28500278 28689716 28879944 29071036 29263204 
2664.385 29456414 29650812 29845684 30040646 30235092 30429160 30623388 
2667.760 30818698 31016374 31217096 31421438 31629224 31839888 32053370 
2671.135 32269526 32488178 32709696 32933790 33159756 33387016 33614364 
2674.510 33840500 34064784 34286460 34504628 34718812 34928364 35132484 
2677.885 35331592 35526444 35718828 35911084 36105940 36305716 36512500 
2681.261 36727928 36953060 37189356 37438060 37700532 37977988 38271212 
2684.636 38580284 38904792 39243908 39596568 39961832 40338896 40726916 
2688.011 41125076 41532460 41948184 42371360 42801632 43238708 43682852 
2691.386 44134344 44593724 45060836 45536140 46019956 46512312 47013872 
2694.762 47524548 48043968 48571756 49106676 49647716 50194268 50745976 
2698.137 51302824 51864904 52432160 53003756 53578728 54155732 54733664 
2701.512 55311868 55889756 56466752 57042020 57613816 58179884 58736792 
2704.887 59281280 59809940 60319180 60805924 61266924 61699084 62099444 
2708.263 62465164 62793976 63084268 63334988 63545464 63716180 63847080 
2711.638 63939588 63994720 64014228 63999288 63951068 63869916 63755244 
2715.013 63606300 63422324 63202516 62947348 62657544 62334604 61980268 
2718.388 61596624 61185820 60750740 60295236 59823364 59340416 58851784 
2721.764 58362564 57877260 57400596 56936388 56488864 56062460 55661144 
2725.139 55288348 54946744 54637460 54360608 54115612 53901628 53718416 
2728.514 53565908 53444216 53353352 53292364 53259736 53253444 53271236 
2731.889 53311208 53372084 53453168 53554324 53674808 53814196 53970692 
2735.265 54142636 54327864 54524292 54729716 54941744 55157820 55375140 
2738.640 55591096 55803316 56010324 56210684 56404080 56589672 56767000 
2742.015 56935292 57093824 57242552 57382332 57514892 57643100 57769760 
2745.390 57897552 58028568 58163936 58304200 58449248 58598820 58752500 
2748.766 58909120 59067312 59225144 59380568 59532016 59678312 59819788 
2752.141 59957660 60093860 60230904 60371228 60516968 60669916 60831504 
2755.516 61002484 61183072 61373044 61570932 61774364 61980688 62186420 
2758.891 62387736 62581568 62764956 62934712 63088172 63222444 63334912 
2762.267 63422940 63484372 63517088 63519732 63491352 63431264 63340200 
2765.642 63219152 63070124 62895992 62699912 62485560 62256432 62016040 
2769.017 61767908 61515916 61264256 61016592 60777152 60549420 60335248 
2772.392 60136404 59953208 59785372 59632468 59494056 59369172 59256932 
2775.768 59155468 59062528 58974888 58888704 58799956 58703756 58595632 
2779.143 58470628 58323944 58151588 57950332 57718632 57457436 57169528 
2782.518 56859672 56534000 56198240 55858028 55517820 55180696 54848684 
2785.893 54522752 54203444 53890524 53583376 53281428 52984028 52690876 
2789.269 52402104 52118084 51839592 51567356 51301892 51043484 50792232 
2792.644 50548120 50311368 50082404 49861696 49649424 49445980 49250572 
2796.019 49062156 48879716 48701908 48527844 48356556 48187772 48020760 
2799.394 47855368 47690704 47526396 47361708 47196120 47028972 46859524 
2802.770 46686532 46509180 46326368 46137412 45942268 45741920 45537720 
2806.145 45331632 45125680 44921332 44720088 44522720 44330068 44142964 
2809.520 43962028 43788240 43622032 43464312 43315068 43174328 43041936 
2812.895 42917416 42799880 42688844 42583208 42481836 42384436 42290744 
2816.271 42201528 42118572 42044720 41982820 41936580 41909576 41904392 
2819.646 41923660 41969572 42043008 42144712 42274272 42430468 42611500 
2823.021 42814760 43037184 43275860 43527160 43787948 44053884 44320712 
2826.396 44583152 44835868 45073404 45291104 45484844 45652172 45790920 
2829.771 45899548 45977516 46024004 46038816 46022716 45976748 45903340 
2833.147 45805316 45685964 45548872 45397108 45233844 45061720 44882936 
2836.522 44699448 44512700 44323576 44132732 43940360 43746756 43552248 
2839.897 43357168 43161996 42967164 42772456 42577724 42382496 42186080 
2843.272 41988548 41790232 41591856 41394412 41199496 41008420 40822452 
2846.648 40643660 40473776 40314864 40169572 40039656 39926852 39831840 
2850.023 39754528 39693860 39648696 39617368 39598712 39591740 39595588 
2853.398 39609636 39633380 39666448 39708128 39758196 39816040 39880468 
2856.773 39950248 40023196 40096596 40167316 40232088 40287668 40331408 
2860.149 40361076 40374856 40371584 40350316 40310320 40251388 40173348 
2863.524 40076464 39961944 39831328 39687104 39532944 39373692 39213696 
2866.899 39058656 38913380 38781632 38666836 38571408 38497184 38445412 
2870.274 38417104 38412292 38429992 38467712 38521912 38587672 38660464 
2873.650 38736492 38813440 38891236 38970824 39054632 39144436 39241220 
2877.025 39344920 39454420 39568116 39684672 39803004 39922856 40044196 
2880.400 40167096 40291380 40416968 40543612 40671276 40799996 40930136 
2883.775 41061736 41194544 41327788 41460604 41591600 41719972 41844844 
2887.151 41965920 42082832 42195356 42303088 42405768 42502848 42594172 
2890.526 42679852 42760536 42836812 42909224 42978832 43045964 43110504 
2893.901 43173084 43233360 43291528 43347868 43402572 43456108 43509432 
2897.276 43562800 43616796 43671456 43726600 43781096 43834312 43884860 
2900.652 43931672 43974020 44010940 44041452 44064260 44077972 44080872 
2904.027 44071888 44050288 44016076 43970092 43913416 43846996 43771496 
2907.402 43687064 43593752 43491708 43381592 43264216 43141612 43015488 
2910.777 42887208 42758052 42628348 42497916 42366572 42233916 42099224 
2914.153 41962816 41824524 41684524 41542964 41400500 41257900 41115856 
2917.528 40975796 40838356 40704716 40575696 40452280 40335696 40227620 
2920.903 40129736 40044016 39972260 39915268 39873168 39844880 39828132 
2924.278 39819816 39816224 39812880 39805292 39789496 39762080 39720436 
2927.654 39663868 39593012 39509756 39417300 39319604 39220984 39125872 
2931.029 39039408 38966440 38912328 38882580 38882000 38914792 38984416 
2934.404 39092044 39238104 39421328 39639512 39889440 40167388 40469116 
2937.779 40789800 41125036 41470520 41822772 42179216 42538004 42897704 
2941.155 43256896 43613352 43963276 44302036 44622808 44917068 45175532 
2944.530 45387948 45544012 45635132 45655084 45601828 45477708 45290664 
2947.905 45052748 44778196 44482784 44180928 43883796 43599652 43332384 
2951.280 43083248 42851040 42633172 42427324 42231472 42044248 41865536 
2954.656 41695900 41535668 41385516 41244928 41113052 40987992 40867844 
2958.031 40750896 40636380 40524624 40416568 40313628 40217260 40127740 
2961.406 40044888 39967940 39895760 39827480 39763024 39702316 39645864 
2964.781 39594356 39548116 39507580 39473756 39446980 39428292 39418096 
2968.156 39415956 39420272 39428584 39437112 39441864 39439468 39427460 
2971.532 39404420 39370356 39326060 39273064 39213480 39150456 39087548 
2974.907 39028712 38977928 38937552 38907400 38883776 38859384 38823696 
2978.282 38763700 38666876 38522708 38324084 38068944 37760308 37406244 
2981.657 37017500 36607548 36190492 35778548 35382740 35011144 34668748 
2985.033 34358112 34080412 33835376 33622884 33442982 33295638 33180178 
2988.408 33093456 33029168 32975830 32918494 32838330 32714770 32530390 
2991.783 32272310 31935312 31523678 31050112 30534688 29999530 29467550 
2995.158 28957540 28481562 28045582 27648776 27286520 26951286 26635586 
2998.534 26333560 26041102 25756048 25477894 25207288 24944470 24690190 
3001.909 24444542 24207128 23977440 23754488 23537106 23324240 23114972 
3005.284 22908564 22705466 22506580 22313228 22127282 21950582 21784058 
3008.659 21627976 21481730 21343784 21212212 21085204 20961118 20838980 
3012.035 20718682 20600330 20484580 20372194 20263482 20159032 20058876 
3015.410 19963286 19872576 19787188 19707608 19634386 19567660 19507042 
3018.785 19451492 19399758 19350146 19300990 19251008 19198536 19142680 
3022.160 19081948 19015442 18942408 18862948 18777862 18689232 18600098 
3025.536 18514168 18434474 18364094 18304506 18255918 18217044 18185704 
3028.911 18158756 18132708 18103896 18068558 18023726 17967018 17897370 
3032.286 17814682 17720518 17617058 17507066 17393346 17278308 17163992 
3035.661 17052048 16943786 16840096 16741907 16649801 16563840 16484331 
3039.037 16410997 16343594 16282048 16226323 16176281 16131574 16091790 
3042.412 16056031 16023438 15993083 15964311 15936708 15910208 15884293 
3045.787 15858758 15832745 15805494 15776733 15746634 15715783 15685517 
3049.162 15656903 15630282 15605552 15581339 15555821 15527215 15494147 
3052.538 15455759 15412260 15364337 15312677 15258381 15202479 15145795 
3055.913 15089497 15034783 14982648 14934155 14890159 14850933 14816408 
3059.288 14786582 14760837 14738556 14718846 14700612 14682687 14664043 
3062.663 14644028 14622780 14601089 14580255 14561616 14546266 14534719 
3066.039 14526634 14521426 14518205 14516321 14515327 14515088 14515294 
3069.414 14515465 14514848 14512416 14507516 14499740 14489290 14476992 
3072.789 14463667 14450204 14437222 14425096 14413689 14403038 14393584 
3076.164 14385364 14378582 14373479 14369815 14366972 14364061 14360088 
3079.540 14354026 14345019 14332931 14317863 14300569 14282352 14264581 
3082.915 14248728 14235786 14225960 14218702 14212676 14206273 14198503 
3086.290 14188951 14177654 14166220 14155847 14147837 14142908 14140923 
3089.665 14141196 14143215 14146605 14151158 14157217 14165090 14174880 
3093.041 14186383 14199085 14212402 14226166 14240443 14255508 14271532 
3096.416 14288722 14306460 14324061 14340910 14356629 14371699 14386803 
3099.791 14403312 14422424 14445306 14471648 14501075 14532389 14564014 
3103.166 14594647 14623398 14649889 14674393 14697699 14720595 14743869 
3106.542 14768139 14793301 14819013 14844555 14869037 14891976 14913339 
3109.917 14933469 14953153 14973251 14994652 15017632 15042604 15069360 
3113.292 15097901 15128092 15159863 15192803 15226775 15260955 15294829 
3116.667 15327882 15359462 15389636 15418405 15445871 15472000 15496688 
3120.042 15519901 15541501 15561831 15581648 15601431 15622142 15644366 
3123.418 15668135 15693385 15720043 15747700 15776321 15806112 15836833 
3126.793 15868140 15899347 15929352 15957195 15982598 16005561 16027186 
3130.168 16048536 16071400 16096570 16124697 16155785 16188800 16223572 
3133.543 16259275 16295534 16332448 16369741 16407143 16444480 16481098 
3136.919 16516168 16549487 16581018 16610485 16638955 16667394 16696833 
3140.294 16728271 16762776 16800626 16841750 16885530 16930832 16976930 
3143.669 17022894 17068176 17112876 17157270 17201600 17246314 17291756 
3147.044 17337788 17384654 17432490 17481300 17531216 17582830 17635450 
3150.420 17689078 17743332 17797766 17852210 17906692 17961424 18016438 
3153.795 18071736 18127076 18182146 18236912 18291306 18345878 18401564 
3157.170 18459020 18518594 18580838 18645094 18710748 18777136 18843742 
3160.545 18910566 18978508 19048020 19120518 19196804 19277054 19361266 
3163.921 19448786 19538164 19628250 19717144 19803972 19887490 19967450 
3167.296 20043956 20117662 20189300 20259872 20330040 20400356 20470582 
3170.671 20540264 20608288 20673646 20735260 20792296 20844508 20891996 
3174.046 20935596 20976314 21015298 21053344 21090874 21128232 21164934 
3177.422 21200976 21236396 21271714 21307520 21344618 21383392 21424326 
3180.797 21466900 21510140 21553488 21595900 21637134 21677430 21717940 
3184.172 21759602 21804264 21853358 21907578 21967138 22031412 22099076 
3187.547 22168566 22238484 22307648 22375878 22443912 22512164 22581788 
3190.923 22653206 22726204 22800334 22874824 22949294 23023668 23098968 
3194.298 23175816 23255020 23336932 23420712 23505312 23589614 23672324 
3197.673 23752948 23831944 23909482 23986684 24063970 24142076 24221316 
3201.048 24302500 24385976 24472448 24562230 24655014 24749852 24845728 
3204.424 24940890 25034282 25125306 25213892 25300422 25385634 25469918 
3207.799 25553934 25638108 25722930 25809000 25896916 25986820 26078502 
3211.174 26171012 26263330 26354260 26443518 26531494 26619414 26708728 
3214.549 26800984 26896822 26995958 27097480 27199558 27300808 27399932 
3217.925 27496396 27590338 27682536 27774186 27866706 27961366 28059332 
3221.300 28161138 28266436 28374516 28483650 28592244 28698884 28802576 
3224.675 28903564 29002240 29099378 29195974 29292410 29388834 29485422 
3228.050 29582244 29679264 29776446 29873546 29969708 30064364 30156734 
3231.426 30246812 30335278 30423688 30513644 30606642 30703288 30802976 
3234.801 30904432 31006376 31107132 31206416 31304512 31401846 31499024 
3238.176 31596758 31695050 31794074 31894586 31996976 32102172 32210604 
3241.551 32321636 32434016 32546066 32655862 32762930 32867632 32971506 
3244.927 33076576 33184502 33295676 33409558 33525192 33641464 33758020 
3248.302 33875748 33996128 34120124 34248672 34380952 34515640 34650840 
3251.677 34785072 34917844 35049464 35180588 35312184 35444788 35578192 
3255.052 35711812 35845116 35977740 36109616 36240772 36371532 36501688 
3258.427 36631304 36760528 36889608 37019052 37149692 37281448 37414368 
3261.803 37547472 37679388 37808744 37935136 38058268 38178948 38298352 
3265.178 38417396 38536504 38655756 38774676 38892580 39009316 39124784 
3268.553 39239012 39352396 39465084 39576788 39687356 39796540 39904220 
3271.928 40010700 40116436 40221872 40327588 40433696 40539900 40645840 
3275.304 40750748 40853500 40953800 41051032 41145620 41238700 41331872 
3278.679 41426776 41525280 41628324 41735404 41845720 41957236 42067684 
3282.054 42175564 42279752 42380380 42478180 42574768 42671260 42769348 
3285.429 42869760 42973016 43079148 43188164 43299104 43411284 43523788 
3288.805 43635772 43746756 43856524 43965072 44072876 44180636 44288644 
3292.180 44397372 44507632 44619612 44734156 44851704 44972704 45096712 
3295.555 45223660 45352596 45482748 45613820 45745120 45876128 46006916 
3298.930 46136416 46263924 46388676 46510620 46630564 46750400 46872740 
3302.306 47000616 47136140 47280568 47433840 47594896 47761856 47933028 
3305.681 48107036 48283340 48461084 48640716 48822504 49007000 49194724 
3309.056 49386432 49582788 49783696 49988820 50197468 50408852 50622468 
3312.431 50838828 51058948 51284476 51516840 51756600 52003632 52256520 
3315.807 52513596 52773664 53035836 53300192 53567444 53837860 54111972 
3319.182 54389564 54670336 54954488 55242104 55533668 55829012 56127840 
3322.557 56428488 56728900 57027020 57321868 57613136 57901756 58189244 
3325.932 58476012 58761904 59045028 59322716 59592444 59852416 60101968 
3329.308 60341684 60572960 60796740 61013768 61223852 61425980 61618736 
3332.683 61800684 61969756 62124716 62264008 62386856 62493556 62585012 
3336.058 62663012 62729692 62786548 62833608 62869796 62892892 62900124 
3339.433 62889516 62860220 62812240 62746772 62664888 62567180 62453536 
3342.809 62323936 62177664 62014932 61836024 61641032 61430180 61203176 
3346.184 60959168 60697544 60419092 60124912 59817660 59500136 59175364 
3349.559 58845144 58510360 58170756 57825628 57474076 57115328 56749136 
3352.934 56375408 55994116 55605632 55210944 54811356 54408828 54005852 
3356.310 53604968 53208088 52816432 52430780 52050992 51677140 51309312 
3359.685 50947456 50591640 50241988 49897936 49559096 49225300 48896512 
3363.060 48572976 48255640 47944976 47641264 47344448 47053820 46769220 
3366.435 46490332 46217340 45950704 45690824 45437572 45190348 44947712 
3369.811 44708372 44471364 44236432 44004120 43775084 43550160 43329932 
3373.186 43114276 42902860 42695204 42490824 42289428 42090900 41895124 
3376.561 41702028 41511936 41325060 41141976 40963416 40789472 40619792 
3379.936 40453300 40287600 40120800 39951192 39777836 39601036 39422308 
3383.312 39243324 39065468 38890188 38717584 38547620 38380328 38215632 
3386.687 38054004 37895688 37740828 37589308 37440408 37293544 37147920 
3390.062 37003320 36859020 36715204 36571428 36427236 36282372 36136872 
3393.437 35991204 35846016 35702028 35559668 35418868 35279012 35139488 
3396.813 35000440 34862512 34727716 34597228 34472488 34352944 34237308 
3400.188 34122668 34006624 33887320 33764284 33638384 33510982 33383116 
3403.563 33254858 33125638 32994452 32860450 32723666 32585282 32447368 
3406.938 32311604 32179024 32049696 31922724 31796750 31670992 31544984 
3410.313 31419228 31294610 31171988 31051394 30932504 30814500 30696104 
3413.689 30576352 30454570 30330126 30202800 30072710 29940136 29805866 
3417.064 29671068 29536630 29403584 29272312 29142572 29013894 28885646 
3420.439 28757684 28630500 28505162 28382652 28264066 28149860 28039256 
3423.814 27931294 27824738 27718028 27610358 27501232 27390192 27277382 
3427.190 27162908 27047158 26930944 26815400 26701046 26588168 26476622 
3430.565 26364998 26252032 26136278 26017460 25896144 25774718 25655120 
3433.940 25539806 25429794 25324798 25223618 25124568 25025822 24926502 
3437.315 24826926 24727544 24629520 24533376 24439040 24345708 24252042 
3440.691 24156474 24058298 23956852 23852980 23747700 23642582 23538646 
3444.066 23436344 23335078 23233070 23128706 23020560 22908494 22793804 
3447.441 22679352 22568456 22464010 22367366 22277756 22193148 22110058 
3450.816 22025452 21937758 21846110 21751798 21656082 21560384 21465124 
3454.192 21370096 21274218 21176900 21078038 20978296 20878784 20780686 
3457.567 20684452 20590186 20496982 20403276 20308096 20210544 20110478 
3460.942 20008738 19906570 19805152 19706116 19610260 19517438 19427512 
3464.317 19339302 19251180 19162246 19071768 18979996 18887796 18796510 
3467.693 18706630 18618498 18531214 18443290 18353344 18260756 18165526 
3471.068 18068836 17972302 17876928 17783372 17691494 17600220 17509034 
3474.443 17417660 17326340 17235798 17146620 17058872 16972038 16885290 
3477.818 16797594 16708128 16617164 16524393 16430097 16334236 16236369 
3481.194 16136561 16035885 15935676 15838929 15747940 15664632 15588585 
3484.569 15518664 15451193 15382805 15310480 15232437 15148712 15060475 
3487.944 14969615 14878021 14787028 14697630 14609999 14524955 14442120 
3491.319 14361698 14283688 14207370 14132262 14057887 13983798 13909790 
3494.695 13836239 13763419 13691228 13619731 13548520 13477526 13406713 
3498.070 13336495 13266901 13197490 13127475 13055662 12980822 12902240 
3501.445 12820157 12735907 12651536 12569399 12491334 12418569 12351236 
3504.820 12288583 12229757 12173324 12117375 12060070 11999401 11933598 
3508.196 11862322 11786189 11707244 11628791 11554061 11484888 11422191 
3511.571 11364638 11310187 11256287 11201714 11145686 11088917 11032360 
3514.946 10976388 10921340 10866639 10811470 10755934 10700541 10645663 
3518.321 10592627 10541567 10491496 10440853 10387978 10331308 10270338 
3521.697 10205915 10139263 10072147 10006160 9941845 9879743 9819344 9760376 
3525.554 9702127 9644226 9585757 9526076 9464947 9401828 9337264 9272303 
3529.411 9208096 9146335 9087898 9033394 8982922 8936143 8892513 8850884 
3533.269 8810373 8769056 8725511 8678455 8627381 8572834 8516705 8461360 
3537.126 8409062 8361061 8316915 8275307 8234276 8191629 8146758 8099798 
3540.984 8052101 8004780 7958511 7912989 7867336 7819564 7768423 7713106 
3544.841 7653479 7590893 7526429 7462109 7400056 7341922 7289321 7242959 
3548.698 7201959 7164129 7125662 7083090 7032979 6974254 6908365 6839188 
3552.556 6771975 6711367 6660356 6619411 6586913 6559598 6534808 6510018 
3556.413 6483650 6454794 6422544 6385622 6343290 6294576 6239950 6181399 
3560.271 6122218 6065396 6014462 5970856 5934611 5904381 5877747 5851014 
3564.128 5820723 5782744 5733253 5669332 5590048 5497423 5397169 5297878 
3567.986 5207562 5133156 5077202 5038081 5011501 4991691 4973191 4952244 
3571.843 4927042 4896614 4861330 4822128 4779145 4733318 4685889 4638666 
3575.700 4593926 4553710 4518822 4488657 4461306 4433455 4401790 4365240 
3579.558 4323072 4277293 4230047 4184847 4144235 4110316 4084160 4065530 
3583.415 4052955 4043557 4032721 4015198 3984499 3935680 3866674 3779698 
3587.273 3681075 3581473 3492182 3421644 3373756 3347844 3338462 3338562 
3591.130 3340532 3338429 3327844 3306810 3275761 3236802 3193074 3148082 
3594.988 3104730 3065053 3029817 2998487 2970496 2944542 2919723 2895272 
3598.845 2870557 2845008 2818395 2790415 2760703 2730160 2699719 2670747 
3602.702 2644977 2624009 2608409 2598175 2592109 2587576 2581242 2569510 
3606.560 2548179 2515118 2469463 2412851 2349283 2284493 2222909 2168061 
3610.417 2120345 2077461 2036447 1994803 1951666 1909431 1872792 1846503 
3614.275 1834358 1837087 1851062 1870196 1886502 1892459 1882209 1853158 
3618.132 1806908 1748419 1685914 1627076 1579153 1546165 1528442 1524053 
3621.990 1529573 1540912 1554778 1569077 1583044 1596479 1609515 1620756 
3625.847 1626710 1621787 1598474 1549424 1471521 1369233 1256004 1150976 
3629.704 1072513 1029733 1021330 1037140 1064608 1091712 1109484 1113935 
3633.562 1105664 1088690 1068461 1049728 1035579 1026146 1019902 1014622 
3637.419 1008511 1000739 991175 980083 968360 956074 943322 930272 917621 
3641.759 907029 899758 897998 902447 913139 928878 946842 962715 972146 
3646.098 970718 954347 920909 869744 802518 723255 637635 553392 478851 
3650.438 422730 391854 389565 414870 462134 522373 584314 635611 666538 
3654.778 670122 645002 597121 538529 482533 440641 418684 415368 425749 
3659.117 442498 459613 472748 479847 480610 475667 466645 454538 441370 
3663.457 429165 419945 415799 418187 426644 439347 452813 462001 461470 
3667.796 446180 412316 359487 292208 219966 156918 115918 105379 125132 
3672.136 167889 219866 264888 288428 278779 232497 158078 74756 5102 -34689 
3676.958 -40885 -21370 11365 44666 70713 86952 95303 100175 105809 114559 
3681.780 126723 140676 155227 170508 187579 208131 232199 257826 279940 
3686.119 292705 289522 266612 224242 167491 105511 47384 695 -31674 -49698 
3690.941 -55297 -49963 -35153 -12491 16467 48411 79031 104915 123176 133318 
3695.763 136898 137229 137726 141240 147902 155923 161724 161326 151183 
3700.102 130136 99612 63025 25812 -5897 -27632 -36379 -31409 -14810 11398 
3704.924 43606 78700 114161 147802 178397 204949 226894 243172 252190 252322 
3709.746 241879 220098 188407 149791 110250 77010 55834 50698 61898 86455 
3714.568 119332 155095 188374 215689 235448 247681 254013 256466 256931 
3718.907 256002 253947 250001 243636 235547 227060 220098 216618 216651 
3723.247 218806 220098 216717 205678 186286 160796 134611 114824 109322 
3727.586 122414 154995 202960 259351 315086 360880 390162 399714 390991 
3731.926 369236 341812 314356 288295 261141 228022 185192 133583 79363 32737 
3736.748 3711 -1921 15009 49538 94541 144521 195899 247813 299402 347416 
3741.570 386150 404456 389532 331765 231469 104981 -16268 -96906 -116251 
3745.909 -75572 6129 102860 191291 253052 278945 268568 230740 177899 123706 
3750.731 77474 42678 19748 8913 10901 27270 58054 99976 147637 193844 232066 
3756.035 257925 269927 268966 258124 240321 217678 191822 164873 139881 
3760.375 121751 115785 124668 147537 179955 214098 241879 257627 259185 
3764.714 249637 235348 223778 220297 225767 237138 248410 254444 251394 
3769.054 239161 221391 203523 190993 187744 194308 209192 228718 249106 
3773.393 266877 279973 287765 291113 292042 292937 294528 296949 298341 
3777.733 296087 288295 274801 257925 242078 232331 231933 241150 256765 
3782.073 274337 288063 294197 291279 280172 263893 246123 229779 216916 
3786.412 208728 205678 208496 217148 231469 249935 269894 288096 302586 
3790.752 312268 318667 324437 332561 344067 357928 370165 375836 371259 
3795.091 356005 333290 311140 298507 301790 322646 356469 393810 422830 
3799.431 432316 414671 369203 304509 236309 184430 164210 180253 227325 
3803.771 292406 359719 413875 443228 441934 412582 365224 315152 278183 
3808.110 263296 271618 297977 334451 373879 411620 447274 481406 515374 
3812.450 548714 577744 596225 597585 576384 532956 474440 415467 372553 
3816.789 358160 375571 418684 474473 526553 559530 561885 529274 467408 
3821.129 391787 324105 281200 272281 294329 337236 387211 431785 462897 
3825.469 477359 477657 469995 461868 459381 463958 473412 483296 488869 
3829.808 486912 477425 462731 447473 436329 432846 438286 452017 471421 
3834.148 492186 510497 521478 521046 506716 478619 439413 395535 355640 
3838.487 327123 314854 319330 337070 362604 389665 412648 428170 434604 
3842.827 432216 422730 409630 396430 387244 385519 393412 411587 439082 
3847.167 473909 513881 557108 602430 648917 694779 735900 764976 772378 
3851.506 746222 677456 565833 423327 277553 159636 91956 80059 114161 176872 
3856.328 250930 324901 391489 448269 495769 535013 566796 591082 607307 
3860.667 614872 614109 605781 590949 570876 546392 519089 491888 470227 
3865.007 460409 467507 493115 533122 578906 618323 639626 635146 603724 
3869.347 553027 498356 456959 439612 447506 472715 503033 525956 533852 
3873.686 525724 506848 486879 475468 479150 498754 530203 565867 597552 
3878.026 618323 623632 613246 590949 564739 544070 537169 548549 576915 
3882.365 615735 654127 681604 688839 670719 630103 577147 527814 497129 
3886.705 495304 522174 570014 625689 674834 706163 712435 692290 651406 
3891.045 600505 551501 515042 497461 499086 517132 546657 582522 620579 
3895.384 658375 693419 724416 749508 766967 775299 774303 764013 746820 
3899.724 725943 704005 683463 664779 646794 627282 604951 579503 552928 
3904.063 529539 513483 508507 516270 535245 562217 593405 624760 653463 
3908.403 678286 698762 715389 728897 740016 749475 757906 766669 776826 
3912.743 789340 804477 820709 836013 847002 850455 844645 829938 808394 
3917.082 784161 761690 744496 734938 733278 739153 751068 767963 787680 
3921.422 808161 826917 840595 846504 842587 828843 807398 782502 758736 
3925.761 740514 730324 728598 733610 743302 755350 767830 779879 790568 
3930.101 798767 803713 803945 798800 788775 775929 763283 754520 752130 
3934.441 756877 767930 782535 797738 810983 820942 827581 832229 836611 
3938.780 841325 846736 851650 854107 852779 846836 836578 824029 812078 
3943.120 803116 799331 801555 808493 818120 827780 834752 837242 834686 
3947.459 827780 817987 808228 800194 795912 795879 800028 807464 817456 
3951.799 828677 840396 852081 863203 873230 881862 888702 893649 897035 
3956.139 899028 900123 900389 900156 898795 896172 892155 886145 879073 
3960.478 871304 863735 856962 852214 849824 850056 852945 858157 865229 
3964.818 873197 881497 889200 896205 902680 909088 916327 924561 933792 
3969.157 943389 951856 957800 960623 959428 955077 948768 941861 935618 
3973.497 931103 928712 928247 929907 933527 939105 947241 957867 970187 
3977.837 983736 997319 1008976 1018009 1023323 1024519 1022127 1016880 
3981.694 1009972 1002466 995094 988452 982872 978456 975035 972843 972279 
3986.034 973209 975965 980249 985097 989880 993267 994396 993101 990079 
3990.373 986193 983105 982408 984433 989381 996156 1003828 1010570 1015950 
3994.713 1018939 1020135 1019670 1018042 1015784 1013260 1010404 1007514 
3998.570 1004957 1002964 1001503 1000806 1000208 
##END=
