
##TITLE=Z316_1_e
##JCAMP-DX=5.01  $$ Nicolet v. 1
##DATATYPE=INFRARED SPECTRUM
##ORIGIN=UniL
##OWNER=Nicolet
##LONGDATE=2011/09/09
##TIME=12:29:19
##SPECTROMETER/DATA SYSTEM=Nicolet iS5
##DATA PROCESSING=
Ratio against background
%Transmittance->Absorbance
Truncated
ElementMultiply or ElementDivide
##COMMENTS=
Number of sample scans: 32
Collection length: 51.19 sec
Sample gain: 2.0
Background collected on: Ven Sep 09 12:03:29 2011 (GMT+02:00);
Number of background scans: 32
Background gain: 2.0
Sample spacing:  1.000
Number of scan points: 12415
Resolution points: 8192
Number of FFT points: 65536
Apodization: N-B fort;
Phase correction: Mertz;
Laser frequency: 15798.0 cm-1
Number of rejected sample scans: 0
Number of rejected background scans: 0
Bench serial number: ASB1000141;
##RESOLUTION=4.000
##XUNITS=1/CM
##YUNITS=ABSORBANCE
##FIRSTX=649.893372
##LASTX=4000.122314
##FIRSTY=0.067449
##MAXX=4000.122314
##MINX=649.893372
##MAXY=0.275877
##MINY=-0.000277
##XFACTOR=1.000000
##YFACTOR=1.000000E-009
##NPOINTS=6950
##DELTAX=0.482117
##ZPD=6100
##XYDATA=(X++(Y..Y))
649.893 67448832 67296800 67235104 67279776 67419112 67616136 67824160 
653.268 68008232 68157024 68285160 68422016 68593568 68812592 69072432 
656.643 69353616 69634744 69905080 70163088 70412592 70655184 70881376 
660.018 71073496 71214040 71292560 71313920 71295608 71261288 71227792 
663.393 71196872 71149208 71048984 70852232 70510520 69983552 69250968 
666.767 68335872 67321952 66352928 65585160 65104544 64898312 64877308 
670.142 64934560 64972960 64923972 64752752 64450888 64035112 63535764 
673.517 62989028 62423812 61855048 61288216 60724484 60165556 59618100 
676.892 59092252 58595632 58130148 57692104 57273024 56865564 56468560 
680.267 56087116 55730832 55409692 55128588 54885380 54672704 54480264 
683.642 54298692 54124208 53955684 53793976 53639868 53490944 53343312 
687.016 53194828 53046132 52902468 52772656 52665284 52584012 52527244 
690.391 52486600 52451004 52410776 52360236 52298640 52229128 52155780 
693.766 52080056 52001580 51918824 51830704 51740404 51654412 51580116 
697.141 51523704 51486920 51464988 51449468 51430108 51399300 51353280 
700.516 51292868 51220388 51138672 51048140 50947420 50834320 50708588 
703.890 50572060 50429804 50287260 50148968 50016780 49890056 49767120 
707.265 49648460 49537552 49441340 49367868 49324396 49315528 49343476 
710.640 49411528 49527676 49706744 49969492 50336556 50816184 51393820 
714.015 52021900 52625004 53105816 53364068 53325144 52952620 52262536 
717.390 51318932 50230236 49131792 48156568 47435508 47074056 47137284 
720.765 47647364 48566308 49794656 51161300 52451528 53438068 53905788 
724.139 53717968 52838848 51350296 49426636 47299560 45207044 43326340 
727.514 41763272 40542408 39628260 38952048 38440596 38039756 37711984 
730.889 37435748 37197912 36984160 36779892 36574636 36364508 36155200 
734.264 35958376 35786320 35645016 35532664 35440760 35359736 35283756 
737.639 35212068 35147464 35092068 35043824 34995156 34936120 34859496 
741.013 34764112 34656832 34549296 34450964 34367144 34296864 34235012 
744.388 34177544 34124856 34081988 34056112 34051096 34063176 34082236 
747.763 34094532 34088904 34061776 34017876 33967428 33920992 33884272 
751.138 33856512 33833048 33810448 33788888 33773632 33771696 33786952 
754.513 33816896 33853716 33887536 33912396 33931528 33955316 33997632 
757.888 34069016 34172100 34300772 34445404 34598520 34759912 34937340 
761.262 35142648 35384144 35663320 35974752 36312124 36674636 37075016 
764.637 37537752 38098744 38797280 39667356 40737356 42025452 43535912 
768.012 45252636 47133148 49109160 51089844 52998028 54805832 56577256 
771.387 58478744 60759924 63691856 67442760 71983192 76989032 81882376 
774.762 85861840 88095344 87997544 85355072 80443520 73904360 66619448 
778.136 59453932 53053620 47831880 43910996 41199932 39477384 38490088 
781.511 38019284 37894312 38009556 38300344 38721716 39243760 39848944 
784.886 40535316 41316824 42218436 43266708 44479040 45864012 47425564 
788.261 49171752 51124880 53323008 55811268 58637992 61843132 65456012 
791.636 69503184 74014672 79026672 84579896 90699872 97375424 104527512 
795.010 112003088 119560680 126866328 133546712 139188368 143383280 
797.903 145811456 146266368 144722528 141345632 136491088 130648392 
800.796 124331224 118055824 112235008 107124984 102834088 99308528 96378904 
804.171 93799416 91329552 88790808 86098312 83283472 80469168 77832616 
807.546 75532328 73670856 72260664 71222912 70405464 69622104 68710464 
810.920 67549584 66087456 64334296 62345008 60194784 57954688 55689888 
814.295 53452384 51283360 49222148 47303476 45555052 43997008 42636788 
817.670 41470776 40487704 39674832 39021424 38521368 38172252 37973500 
821.045 37923348 38020008 38263396 38658652 39217652 39958964 40903992 
824.420 42069800 43463724 45076312 46879460 48819428 50818008 52776996 
827.794 54570128 56064872 57137856 57689568 57677344 57125080 56130364 
831.169 54840304 53437544 52113304 51023324 50283800 49950720 50013692 
834.544 50398064 50971972 51573512 52014388 52120364 51766980 50891500 
837.919 49515420 47731568 45691376 43561408 41491336 39600200 37953540 
841.294 36571720 35442020 34535552 33818796 33261262 32839506 32531354 
844.669 32314998 32170676 32080446 32032538 32023012 32053620 32128252 
848.043 32249718 32417126 32627426 32878250 33170268 33508048 33897996 
851.418 34344516 34846212 35395720 35981340 36592300 37222964 37875008 
854.793 38556344 39278252 40052700 40889832 41801028 42801304 43910632 
858.168 45156448 46570884 48184888 50028788 52128844 54506860 57181580 
861.543 60163576 63446448 66990272 70710320 74469416 78066176 81270400 
864.917 83840944 85552256 86247368 85848512 84374224 81932472 78710120 
868.292 74948000 70889528 66775300 62809064 59132800 55842424 52981408 
871.667 50552552 48532700 46883924 45566092 44538252 43765520 43217808 
875.042 42866580 42687384 42660072 42769092 43005576 43365664 43847980 
878.417 44449196 45160788 45967244 46848716 47782644 48747800 49728332 
881.792 50712720 51693600 52666448 53626560 54568584 55484908 56365596 
885.166 57198740 57972520 58677664 59312916 59888888 60433032 60984636 
888.541 61591128 62299380 63141704 64129696 65250956 66473424 67749880 
891.916 69028120 70262088 71409080 72431784 73298400 73974632 74426664 
895.291 74625360 74545768 74174136 73510080 72567496 71375304 69975920 
898.666 68428032 66797516 65154588 63569664 62098336 60781384 59640300 
902.040 58677664 57883244 57240212 56733128 56350052 56084704 55933928 
905.415 55895068 55964528 56137676 56411476 56786672 57268676 57866812 
908.790 58590548 59445912 60433752 61550276 62789648 64147092 65622272 
912.165 67218240 68941120 70797472 72794216 74940864 77252784 79754640 
915.540 82482168 85476240 88780960 92433768 96458008 100858560 105615256 
918.914 110681232 115967456 121340880 126625928 131591904 135993936 
921.807 139608896 142270272 143929072 144675312 144753776 144512608 
924.700 144378384 144803408 146165408 148754544 152716704 158029728 
927.593 164487072 171691984 179115360 186064368 191777408 195542880 
930.485 196719568 194888544 189919856 181989504 171567616 159328752 
933.378 146098576 132677096 119764192 107932248 97537864 88769784 81678424 
936.753 76208328 72251392 69679320 68373688 68217576 69083312 70820488 
940.128 73210824 75963216 78745512 81176200 82903560 83669368 83329304 
943.502 81894856 79512688 76443360 72989568 69443336 66060564 63009828 
946.877 60381736 58199928 56438564 55045272 53958608 53124500 52496804 
950.252 52039340 51725844 51534000 51445512 51445328 51521056 51662772 
953.627 51863112 52115172 52412012 52746392 53110236 53496832 53901064 
957.002 54320428 54754484 55203344 55666120 56140924 56624132 57112232 
960.377 57603640 58098596 58600184 59112036 59636420 60173508 60721016 
963.751 61275396 61833196 62393512 62957080 63525328 64099088 64677140 
967.126 65256460 65834016 66408828 66983008 67562320 68154464 68766088 
970.501 69401584 70062232 70747088 71455640 72189016 72950368 73744432 
973.876 74574488 75441528 76343568 77277096 78239088 79228992 80248336 
977.251 81299080 82380976 83489144 84614200 85742576 86860384 87955792 
980.625 89018832 90041712 91016256 91932504 92779968 93548808 94233504 
984.000 94835152 95361896 95826512 96242584 96623120 96979056 97319288 
987.375 97653840 97994720 98353824 98743248 99170576 99637792 100141936 
990.750 100677160 101238560 101823696 102433224 103069576 103733832 
993.643 104423712 105134272 105858800 106592640 107334128 108085128 
996.535 108847848 109622840 110406736 111193024 111974528 112746608 
999.428 113509880 114269272 115032880 115807792 116598776 117408488 
1002.321 118239280 119096648 119989296 120928432 121925096 122985928 
1005.213 124111616 125298592 126542736 127842976 129204752 130637776 
1008.106 132153256 133758696 135454976 137235968 139091456 141011808 
1010.999 142989488 145019568 147097312 149213664 151355376 153507840 
1013.891 155659936 157810528 159972304 162170704 164436368 166798464 
1016.784 169279968 171892656 174640688 177522832 180534800 183668912 
1019.677 186910816 190239264 193626128 197043008 200472208 203914288 
1022.570 207391952 210942880 214613008 218440320 222445040 226627968 
1025.462 230973008 235453952 240035264 244675120 249318064 253885232 
1028.355 258280640 262392432 266101984 269309248 271933952 273920576 
1031.249 275239136 275876864 275839840 275154976 273878400 272095840 
1034.142 269906848 267418112 264713824 261838048 258791952 255537504 
1037.035 252016432 248162992 243926976 239281840 234227456 228793648 
1039.928 223040384 217061392 210970848 204899328 198977296 193301984 
1042.821 187931248 182868800 178070864 173460080 168950112 164474016 
1045.714 159994432 155514176 151068464 146717216 142528176 138562288 
1048.607 134872320 131493184 128440992 125715304 123299360 121163160 
1051.500 119265888 117565216 116019816 114594800 113266040 112016936 
1054.393 110835816 109713176 108637680 107595496 106574176 105562272 
1057.286 104551960 103538688 102518680 101486488 100435624 99358552 98250192 
1060.661 97111096 95949032 94777408 93612840 92472136 91368440 90311184 
1064.037 89307200 88361544 87478272 86659984 85905080 85205600 84546600 
1067.412 83908552 83270184 82614552 81933232 81227808 80509328 79794576 
1070.787 79104344 78459696 77879072 77380344 76979104 76687488 76514680 
1074.162 76464776 76535864 76719944 77004152 77370528 77794840 78248888 
1077.538 78695744 79091384 79391304 79551968 79542096 79350328 78988832 
1080.913 78492808 77911816 77307144 76739520 76262280 75924216 75765880 
1084.288 75820560 76119728 76690016 77554088 78731216 80234544 82071544 
1087.663 84240048 86724424 89486160 92451800 95516352 98532048 101321656 
1091.039 103713424 105550568 106729072 107217728 107061472 106375904 
1093.932 105318760 104083304 102858736 101806560 101061816 100711000 
1096.825 100795032 101312280 102222200 103450264 104888264 106411632 
1099.718 107878048 109133856 110040008 110470056 110329624 109574264 
1102.611 108209784 106296496 103932208 101245472 98372736 95434744 92539544 
1105.986 89767272 87169768 84778456 82604096 80643232 78881024 77296216 
1109.361 75863536 74555368 73346616 72215080 71141440 70110904 69111520 
1112.737 68133256 67168536 66213012 65265784 64330304 63414080 62527188 
1116.112 61679604 60880864 60138080 59456136 58838656 58289156 57811056 
1119.487 57408424 57084948 56842864 56682160 56600468 56590764 56639796 
1122.862 56727804 56824172 56886604 56867528 56714664 56381552 55839036 
1126.238 55079388 54121016 53002820 51780344 50513880 49256032 48050480 
1129.613 46924528 45890600 44949332 44093304 43311004 42587668 41909284 
1132.988 41262852 40637616 40027592 39431668 38853552 38299656 37778200 
1136.363 37295928 36857360 36464892 36119984 35823560 35577720 35384680 
1139.739 35246132 35162408 35132196 35153428 35224352 35345504 35518640 
1143.114 35747572 36034796 36380396 36780724 37229388 37717840 38236728 
1146.489 38777428 39330956 39886464 40432060 40953584 41436764 41871116 
1149.864 42250312 42574472 42848952 43082660 43285816 43467680 43636980 
1153.240 43801360 43967856 44143332 44332860 44539092 44761596 44996408 
1156.615 45237856 45479364 45715192 45940648 46150932 46340268 46501472 
1159.990 46624884 46701140 46721656 46680184 46573464 46400216 46160148 
1163.365 45853220 45479952 45042128 44543720 43992204 43397772 42771288 
1166.740 42124524 41467240 40807456 40152524 39509284 38885224 38288944 
1170.116 37728284 37209572 36736980 36312016 35934692 35604876 35324260 
1173.491 35096052 34925344 34816988 34775308 34803524 34904056 35079960 
1176.866 35336084 35678864 36116240 36656144 37305492 38070712 38957812 
1180.241 39974440 41131196 42439780 43913196 45563696 47400508 49430980 
1183.617 51661240 54096584 56741736 59597844 62658728 65904968 69300208 
1186.992 72792488 76309480 79765152 83067136 86109944 88789712 91009840 
1190.367 92683768 93753568 94195936 94027616 93301632 92101320 90530712 
1193.742 88691384 86679440 84573456 82425400 80265112 78101400 75929192 
1197.118 73737480 71517208 69269120 67006668 64756944 62554896 60441904 
1200.493 58456296 56627832 54977392 53513472 52234960 51132932 50194452 
1203.868 49404212 48744316 48195920 47737820 47345412 46995484 46665500 
1207.243 46336656 45996748 45638884 45260872 44863756 44450700 44026636 
1210.619 43598368 43176632 42774612 42407928 42093492 41846960 41681388 
1213.994 41608192 41636708 41775748 42034868 42422756 42946640 43611188 
1217.369 44417080 45362528 46444680 47662488 49017048 50511980 52151896 
1220.744 53940380 55879356 57969680 60213624 62616968 65189280 67943832 
1224.120 70893504 74047080 77406160 80962392 84697592 88580040 92566440 
1227.495 96597008 100590024 104451184 108069192 111323376 114104416 
1230.388 116313096 117874328 118747648 118929960 118464336 117436928 
1233.281 115986448 114290176 112540008 110947496 109708952 108990144 
1236.174 108936152 109653544 111217896 113683032 117078624 121412520 
1239.067 126663136 132778304 139661184 147161472 155094000 163221904 
1241.960 171267040 178944672 185944256 191962224 196742368 200078000 
1244.853 201852912 202051312 200754624 198123728 194366128 189733792 
1247.746 184483648 178861968 173104384 167393504 161847040 156505856 
1250.639 151324912 146187920 140928832 135387104 129434272 123012320 
1253.532 116150544 108961528 101623424 94332968 87296624 80689992 74630944 
1256.908 69188904 64376100 60160912 56481316 53261272 50424632 47897468 
1260.283 45620044 43546536 41641960 39883848 38256268 36747076 35345324 
1263.658 34039520 32817744 31669672 30587692 29568516 28612098 27720184 
1267.033 26894178 26133004 25433482 24791210 24202996 23667704 23186896 
1270.409 22763320 22398834 22092628 21841404 21640338 21485318 21374552 
1273.784 21308982 21290920 21322450 21403510 21531344 21700732 21904546 
1277.159 22134568 22380274 22628316 22863578 23068322 23227266 23330220 
1280.534 23375044 23367176 23316024 23231600 23118466 22973886 22788950 
1283.910 22553798 22261954 21915314 21525042 21109622 20691438 20290390 
1287.285 19922802 19599792 19327768 19110270 18948466 18841286 18783710 
1290.660 18767588 18782982 18819832 18871254 18935346 19014958 19115082 
1294.035 19240236 19392414 19570744 19773352 19999438 20250708 20532100 
1297.411 20850070 21209604 21613696 22063168 22557952 23098618 23686706 
1300.786 24322614 25001956 25712174 26432216 27132114 27778496 28341798 
1304.161 28798008 29133748 29345760 29439996 29429288 29331898 29171768 
1307.536 28975746 28771030 28584388 28434934 28333346 28280722 28270962 
1310.912 28294266 28340914 28404654 28481810 28569526 28663488 28756196 
1314.287 28838194 28900732 28937672 28947518 28932748 28897332 28844710 
1317.662 28776198 28691980 28593058 28483686 28371616 28266436 28176872 
1321.037 28108040 28060568 28032470 28022220 28031976 28069972 28149296 
1324.413 28284292 28489594 28777012 29155292 29632152 30213670 30902334 
1327.788 31692304 32564744 33485714 34404160 35262480 36007004 36594352 
1331.163 37003752 37236824 37316108 37275636 37155464 36996464 36833160 
1334.538 36696632 36612920 36601852 36678676 36852636 37128144 37507520 
1337.914 37994656 38596760 39325228 40191668 41202848 42356964 43641340 
1341.289 45034816 46508220 48028460 49557272 51045756 52439228 53676008 
1344.664 54693224 55441880 55890624 56031776 55877696 55454868 54794928 
1348.039 53925260 52869536 51647284 50276996 48783576 47200072 45565576 
1351.415 43925808 42325004 40800504 39383960 38097700 36957136 35973532 
1354.790 35152816 34494192 33988780 33620700 33368732 33210576 33130002 
1358.165 33116412 33165478 33275820 33445418 33670104 33945820 34272480 
1361.540 34658128 35119728 35680912 36364040 37181960 38136872 39221276 
1364.916 40423328 41730700 43131364 44608044 46126836 47634648 49053924 
1368.291 50285588 51231384 51802260 51933496 51596272 50794580 49565852 
1371.666 47970768 46097912 44057660 41967344 39956240 38138608 36594644 
1375.041 35364336 34443468 33798988 33388090 33179246 33162796 33354708 
1378.417 33791540 34524752 35617140 37132256 39132436 41664720 44737976 
1381.792 48292560 52169680 56124408 59816064 62864132 64927436 65716432 
1385.167 65062552 62947272 59532740 55156428 50264492 45355320 40832136 
1388.542 36939424 33764464 31263060 29324172 27814528 26618498 25645208 
1391.917 24829380 24131604 23529656 23015040 22589118 22258154 22026636 
1395.293 21894232 21853358 21892000 21997810 22159256 22366040 22607828 
1398.668 22870458 23137372 23391896 23620190 23813952 23970752 24091218 
1402.043 24177910 24233894 24264412 24277972 24287958 24310244 24358358 
1405.418 24439952 24553326 24689840 24838080 24990164 25145844 25312856 
1408.794 25502946 25726586 25988650 26286492 26612192 26957316 27317852 
1412.169 27695496 28095810 28523066 28976878 29450776 29936054 30425962 
1415.544 30920656 31429202 31967300 32554102 33205856 33933784 34740312 
1418.919 35617752 36550740 37517272 38491136 39444984 40354348 41203576 
1422.295 41990740 42735968 43482184 44292936 45233332 46353060 47676468 
1425.670 49201404 50912736 52796864 54850792 57075912 59464344 61987644 
1429.045 64583628 67162968 69634200 71920000 73980296 75817048 77467824 
1432.420 78991376 80451864 81917424 83458144 85155088 87112344 89449672 
1435.796 92281256 95682600 99641712 104060984 108795152 113698696 118646872 
1439.171 123516520 128173992 132428784 136036528 138752240 140341888 
1442.064 140645056 139603824 137253680 133712800 129147200 123767864 
1444.957 117795528 111436464 104898136 98369368 92034016 86091280 80725816 
1448.332 76081632 72229360 69148544 66748484 64907008 63521340 62527724 
1451.708 61907776 61669636 61821964 62351512 63225628 64397356 65827540 
1455.083 67502744 69426472 71605544 74017184 76590056 79212448 81773848 
1458.458 84205456 86482552 88609784 90601776 92474680 94239888 95900352 
1461.833 97452760 98877904 100135424 101172016 101927760 102361544 102472616 
1465.208 102309288 101951184 101473896 100932840 100350536 99726072 99046904 
1468.584 98295896 97450184 96472904 95307056 93878704 92114792 89985696 
1471.959 87544384 84946320 82401008 80102952 78166648 76611392 75397376 
1475.334 74472640 73809024 73414720 73324920 73575424 74187696 75157008 
1478.709 76461736 78076776 79990448 82212536 84771128 87701160 91029168 
1482.085 94765048 98901040 103423352 108324320 113615664 119323408 125468064 
1485.460 132042632 138967104 146049456 152996064 159386400 164715312 
1488.353 168482240 170230928 169671456 166768496 161779376 155208320 
1491.246 147653936 139694672 131744280 124021720 116614808 109510344 
1494.139 102668528 96088112 89823328 83996424 78771928 74296984 70654792 
1497.514 67841672 65793416 64413568 63608944 63311024 63469068 64043828 
1500.890 64998276 66285528 67846976 69617320 71509112 73417432 75216416 
1504.265 76723512 77704720 77880504 76971712 74828192 71541032 67447440 
1507.640 62969336 58437460 54015792 49737508 45585520 41551380 37650988 
1511.015 33940016 30491464 27362772 24589686 22171460 20079246 18269914 
1514.391 16698143 15323112 14108131 13024044 12051110 11179920 10413465 
1517.766 9758952 9219874 8786806 8435075 8127007 7826108 7509606 7184071 
1521.623 6883588 6651138 6511061 6455567 6450792 6453482 6430648 6367835 
1525.481 6275111 6179148 6109885 6083742 6096645 6129443 6160192 6176829 
1529.338 6180021 6179954 6187146 6203817 6219951 6217093 6177937 6098494 
1533.196 5996220 5905187 5856891 5864918 5917548 5987384 6042818 6059550 
1537.053 6025918 5943009 5821629 5675441 5517994 5357383 5201224 5062049 
1540.910 4959282 4910186 4921512 4982776 5069626 5153374 5213497 5244786 
1544.768 5259274 5277821 5319378 5389285 5477793 5564843 5630359 5664196 
1548.625 5669164 5660235 5655300 5666781 5692596 5718984 5726907 5702466 
1552.483 5643551 5560849 5472324 5396029 5341013 5303311 5268664 5219232 
1556.340 5139762 5020014 4856840 4655377 4435329 4231854 4085364 4025264 
1560.198 4055865 4158954 4305536 4465457 4612578 4726016 4795226 4821458 
1564.055 4818610 4808157 4810268 4835563 4880261 4929689 4965650 4976374 
1567.912 4960555 4929656 4902344 4898189 4928684 4993904 5086555 5197334 
1571.770 5320182 5451319 5586860 5720159 5840671 5937265 6004685 6050949 
1575.627 6100207 6186575 6340601 6572313 6871840 7218837 7596423 7997861 
1579.485 8428250 8900224 9428442 10023046 10686277 11413176 12193974 
1582.860 13017284 13868669 14727758 15566193 16343731 17016074 17544532 
1586.235 17903654 18090942 18128078 18061304 17951238 17866432 17878898 
1589.610 18049872 18429772 19052658 19928840 21039190 22326204 23700980 
1592.986 25037898 26193606 27036966 27455980 27386416 26822376 25816560 
1596.361 24469782 22904790 21255360 19635948 18132396 16806274 15690053 
1599.736 14795358 14117886 13643255 13352826 13228983 13260000 13439726 
1603.111 13764480 14229315 14823128 15526357 16313387 17151204 18000760 
1606.487 18819728 19556116 20153584 20558188 20721254 20611934 20222486 
1609.862 19570362 18696738 17661194 16538402 15399146 14303274 13291806 
1613.237 12380998 11568760 10841432 10182137 9577085 9021350 8522009 8094397 
1617.094 7754930 7513146 7366489 7300912 7296195 7328206 7373836 7414616 
1620.952 7438075 7442289 7435648 7435918 7461806 7526294 7630851 7766028 
1624.809 7918050 8074345 8228502 8379572 8529815 8681125 8832927 8982752 
1628.667 9127486 9266176 9400271 9532206 9662656 9788604 9902183 9991276 
1632.524 10043052 10045731 9991785 9880353 9719442 9528819 9335368 9167247 
1636.382 9044626 8972740 8943549 8940844 8946932 8944733 8921058 8869347 
1640.239 8790120 8691233 8583344 8477070 8376633 8278887 8173194 8045587 
1644.096 7883262 7678907 7434435 7162512 6886719 6634214 6429639 6288491 
1647.954 6212858 6194608 6218035 6264287 6311519 6333540 6302812 6190944 
1651.811 5981505 5687493 5368620 5113309 4985290 4992228 5093931 5239152 
1655.669 5386400 5512457 5608307 5673259 5711195 5726538 5722106 5698773 
1659.526 5655803 5592834 5511115 5413877 5306833 5197434 5094366 5006205 
1663.384 4940280 4900065 4884752 4888940 4902646 4913537 4909214 4878586 
1667.241 4815595 4721427 4605512 4483334 4372369 4287299 4234832 4213787 
1671.098 4217300 4235401 4257518 4271839 4267255 4233929 4167083 4070948 
1674.956 3962396 3866340 3804365 3786148 3805200 3844009 3881451 3901243 
1678.813 3896663 3871589 3837691 3807005 3785714 3768968 3741964 3683715 
1682.671 3578534 3424917 3246650 3086209 2987144 2968628 3018372 3105864 
1686.528 3199850 3279600 3334288 3362370 3367545 3356159 3334789 3309814 
1690.385 3287979 3275126 3275126 3288013 3307811 3322736 3316225 3272222 
1694.243 3181258 3048669 2897107 2762637 2677181 2650344 2666580 2694151 
1698.100 2700252 2658912 2561977 2425046 2289456 2204126 2197399 2265274 
1701.958 2378301 2503020 2611042 2686249 2722425 2722591 2697518 2662746 
1705.815 2634976 2625476 2638310 2670680 2716089 2767306 2818728 2868389 
1709.673 2916954 2967026 3021075 3079602 3140306 3199650 3252959 3297495 
1713.530 3332752 3360900 3384308 3403810 3417169 3419940 3409421 3388583 
1717.387 3368614 3366844 3399202 3472041 3579870 3708511 3841201 3963266 
1721.245 4065731 4146844 4210207 4262838 4311995 4362362 4415212 4468838 
1725.102 4520329 4567238 4607789 4640474 4662846 4672257 4666396 4645598 
1728.960 4613449 4576948 4542728 4513398 4484405 4443665 4372972 4254540 
1732.817 4080347 3861192 3631522 3437307 3316258 3277597 3303504 3361468 
1736.675 3420007 3457279 3460819 3429225 3370217 3298863 3230860 3179389 
1740.532 3150452 3143743 3154857 3178321 3209630 3245348 3283406 3322468 
1744.389 3361936 3402208 3443385 3485736 3528691 3570583 3609137 3641646 
1748.247 3666640 3682947 3691468 3692905 3689864 3685587 3684517 3691702 
1752.104 3710917 3742833 3783942 3826627 3859922 3871689 3853269 3801256 
1755.962 3721177 3625508 3530963 3450733 3389618 3342268 3296593 3240007 
1759.819 3163001 3063217 2947110 2827966 2721324 2639410 2588309 2565977 
1763.677 2565710 2578076 2593842 2604875 2604009 2586576 2552012 2504053 
1767.534 2450669 2401889 2365508 2342687 2328030 2310974 2281095 2233234 
1771.391 2171924 2111555 2072567 2071635 2113053 2188841 2284027 2382665 
1775.249 2474161 2554645 2625809 2691184 2753201 2810824 2860217 2897574 
1779.106 2921057 2933567 2941606 2952982 2973065 3002358 3036123 3067288 
1782.964 3090113 3102394 3106232 3107233 3111938 3124420 3145913 3174583 
1786.821 3207494 3241476 3273824 3301601 3320432 3324272 3306509 3262006 
1790.678 3189769 3095119 2990280 2891170 2810858 2756135 2725259 2710922 
1794.536 2703786 2696752 2686049 2670813 2651378 2627842 2599042 2563477 
1798.393 2520017 2469563 2415550 2362742 2316737 2281429 2258280 2246156 
1802.251 2243492 2248088 2258213 2272835 2290455 2308942 2326331 2341255 
1806.108 2353281 2363642 2374070 2386230 2400356 2414783 2427111 2435408 
1809.966 2439673 2441972 2445671 2454701 2470529 2492523 2517850 2543213 
1813.823 2566877 2588675 2610542 2635009 2664413 2699286 2739029 2782245 
1817.680 2827799 2875493 2925360 2977202 3029283 3078667 3121116 3152621 
1821.538 3170377 3172613 3159497 3132429 3093784 3047968 3000923 2959921 
1825.395 2931665 2919956 2923692 2936802 2950647 2955584 2945876 2922025 
1829.253 2892671 2871858 2873158 2905446 2967627 3051272 3143176 3231661 
1833.110 3309814 3376227 3433833 3487673 3542621 3600984 3663766 3731202 
1836.968 3804498 3887068 3983429 4097038 4228877 4376185 4533420 4693124 
1840.825 4848463 4994138 5127490 5248508 5360469 5470613 5589310 5727377 
1844.682 5893835 6091471 6315587 6553947 6792034 7014323 7208427 7368511 
1848.540 7493593 7587926 7656750 7703460 7727946 7726867 7695703 7631728 
1852.397 7536172 7414111 7273047 7119802 6959473 6793582 6622439 6446487 
1856.255 6267648 6089993 5918052 5754338 5598775 5448535 5299521 5149518 
1860.112 4998831 4850406 4708297 4575643 4452100 4335789 4223891 4114966 
1863.969 4010717 3914917 3830939 3760646 3701727 3649465 3598946 3548233 
1867.827 3500566 3464126 3447860 3457078 3490245 3539581 3593334 3641112 
1871.684 3677233 3699689 3710917 3713590 3709814 3699856 3683080 3658955 
1875.542 3628315 3593501 3556886 3519138 3478989 3433199 3378431 3313320 
1879.399 3239372 3160197 3079368 2999521 2919623 2837071 2749066 2655178 
1883.257 2559244 2467997 2388429 2324932 2276899 2239129 2203793 2164298 
1887.114 2117615 2065809 2014343 1969240 1935857 1916686 1911362 1918251 
1890.971 1936256 1964447 2001361 2045102 2091478 2136261 2176186 2211153 
1894.829 2244491 2281529 2326497 2380633 2440706 2500188 2552345 2594009 
1898.686 2625809 2652344 2679448 2710788 2746298 2782612 2814893 2840039 
1902.544 2858183 2874092 2892704 2918656 2953282 2993916 3035589 3072961 
1906.401 3101693 3119881 3127090 3123352 3109068 3085508 3054842 3021976 
1910.259 2992782 2972031 2962623 2962856 2967994 2971630 2968928 2957852 
1914.116 2939971 2917922 2893105 2863619 2825465 2773508 2706187 2627376 
1917.973 2546312 2473961 2417849 2377768 2346618 2313406 2268039 2206358 
1921.831 2131899 2054457 1985217 1932329 1896918 1873990 1856220 1837685 
1925.688 1817222 1797658 1783917 1778993 1782054 1789041 1794897 1796527 
1929.546 1794497 1791736 1791503 1793732 1794764 1788176 1768280 1732817 
1933.403 1685548 1633927 1584939 1543738 1510587 1481794 1453701 1425443 
1937.260 1399980 1382728 1378407 1386318 1399814 1409221 1404235 1380401 
1941.118 1339851 1291129 1245902 1213139 1196393 1193602 1201510 1216429 
1944.975 1238857 1271389 1315822 1369632 1426441 1476009 1509257 1522224 
1948.833 1516971 1498916 1475743 1451174 1424911 1394263 1357234 1315356 
1952.690 1275543 1247331 1237096 1245304 1264212 1280395 1280894 1257100 
1956.548 1208188 1142139 1070188 1001968 944086 898463 863934 840097 829307 
1960.887 833324 853177 885282 922038 953948 975467 985728 990477 997186 
1965.227 1011533 1032357 1053282 1063910 1056669 1031394 994330 955443 
1969.084 922735 897899 875554 848529 811414 765341 718442 681671 662125 
1973.424 660532 670719 684226 699260 723587 772710 864963 1009474 1199516 
1977.763 1411149 1611311 1770310 1869963 1908832 1897351 1852859 1791569 
1981.621 1722770 1652419 1584241 1522025 1472451 1442364 1434220 1445323 
1985.478 1468063 1492067 1510753 1523455 1535491 1555509 1588531 1634027 
1989.336 1684683 1731952 1768746 1795362 1819152 1851029 1899814 1967176 
1993.193 2046866 2127304 2197732 2252085 2289223 2313772 2330428 2341022 
1997.051 2344919 2340289 2326797 2308076 2291121 2281262 2280296 2283294 
2000.908 2278631 2254416 2202927 2123941 2026793 1925639 1832661 1755439 
2004.765 1693464 1641543 1593818 1548925 1509423 1481428 1468828 1469127 
2008.623 1474047 1473582 1459585 1430729 1392933 1354542 1323765 1302728 
2012.480 1288637 1275444 1259426 1241615 1227427 1225500 1240718 1272586 
2016.338 1315689 1362452 1408889 1456493 1511950 1581880 1668251 1764488 
2020.195 1856353 1928834 1970937 1980290 1965445 1940283 1918151 1907967 
2024.052 1912160 1926771 1947572 1971536 1997133 2024396 2051361 2071902 
2027.910 2079193 2068173 2038544 1996834 1955094 1923343 1908233 1910430 
2031.767 1924408 1945042 1971270 2007752 2063179 2144519 2252817 2380033 
2035.625 2513918 2640110 2749666 2841373 2920190 2992982 3064052 3133497 
2039.482 3197013 3250956 3294790 3331250 3367312 3408519 3455542 3504441 
2043.340 3547098 3577197 3592632 3598111 3601319 3611475 3634028 3668979 
2047.197 3711920 3757003 3799418 3836688 3867176 3888338 3895827 3884460 
2051.054 3851832 3800989 3742632 3690198 3659456 3659456 3689831 3739791 
2054.912 3793635 3835752 3857247 3859287 3849559 3839095 3835920 3842338 
2058.769 3855008 3869349 3881117 3890244 3900006 3914182 3933440 3955775 
2062.627 3975537 3987442 3990151 3986773 3982927 3984432 3993862 4007640 
2066.484 4020247 4025397 4020481 4008476 3995868 3989281 3992324 4004028 
2070.342 4018341 4028207 4028307 4017171 3997441 3973398 3947884 3921972 
2074.199 3894857 3865271 3833513 3802894 3776723 3758307 3747445 3740293 
2078.056 3731136 3715763 3692537 3665069 3639073 3620196 3611008 3610139 
2081.914 3612912 3614215 3611442 3605328 3599581 3598345 3603724 3614549 
2085.771 3627413 3638372 3644653 3646792 3646358 3644620 3641078 3632357 
2089.629 3613914 3583110 3540049 3489042 3437240 3391889 3357060 3333720 
2093.486 3319196 3309915 3304039 3301968 3305040 3314889 3330348 3347210 
2097.344 3360266 3365608 3362236 3353855 3346810 3346175 3354990 3372487 
2101.201 3394894 3417736 3439578 3461554 3487606 3521409 3564235 3614917 
2105.058 3669814 3725153 3778394 3830638 3883658 3938990 3996771 4054460 
2108.916 4109012 4158686 4204453 4249989 4300014 4357275 4420802 4486314 
2112.773 4547047 4597475 4636120 4665492 4691013 4718613 4751943 4791038 
2116.631 4833185 4875034 4914308 4951238 4988038 5026014 5065435 5104257 
2120.488 5139359 5168027 5190594 5209272 5228621 5252566 5281946 5314849 
2124.345 5346950 5373921 5392640 5402671 5404919 5399987 5387541 5364629 
2128.203 5328300 5277116 5212089 5137750 5060072 4984519 4914207 4850206 
2132.060 4792143 4739683 4695636 4664119 4648579 4649483 4662143 4677348 
2135.918 4685085 4678454 4656416 4624902 4594461 4573098 4565764 4570854 
2139.775 4581737 4591481 4595767 4593658 4589003 4584784 4581168 4574537 
2143.633 4558800 4526723 4475099 4404501 4318554 4221951 4118612 4009680 
2147.490 3895961 3779931 3665838 3560660 3469937 3395161 3331150 3268917 
2151.347 3196645 3106532 2998020 2877094 2752467 2631009 2513818 2395625 
2155.205 2271103 2139591 2012112 1910397 1863441 1894688 2012745 2205092 
2159.062 2440739 2684049 2902811 3080202 3214670 3314722 3390119 3449397 
2162.920 3496291 3530495 3553278 3567342 3576061 3584079 3593768 3603724 
2166.777 3611342 3614582 3612210 3606196 3599481 3592966 3585850 3574926 
2170.635 3556552 3529293 3495455 3459750 3428056 3405580 3392490 3386846 
2174.492 3384843 3383273 3380769 3377196 3371285 3358630 3332819 3287312 
2178.349 3218709 3132129 3039793 2958987 2906013 2890670 2911717 2959287 
2182.207 3017805 3073061 3118179 3153355 3183127 3213502 3247050 3281302 
2186.064 3312152 3336258 3353020 3367044 3384542 3410156 3445823 3489677 
2189.922 3537043 3584413 3631055 3677968 3726791 3777491 3825958 3865705 
2193.779 3891614 3900608 3896395 3886165 3879278 3882454 3897331 3919698 
2197.636 3941966 3957715 3963466 3960256 3952399 3945143 3941197 3941799 
2201.494 3945510 3951261 3958752 3969853 3985536 4006269 4029912 4052018 
2205.351 4068574 4076501 4075531 4067805 4056233 4041785 4025397 4005834 
2209.209 3983061 3960156 3943069 3938088 3950727 3982025 4027872 4079979 
2213.066 4130186 4172202 4205256 4232490 4258354 4287165 4319792 4353895 
2216.924 4385422 4411463 4430811 4445037 4457456 4469608 4482832 4496056 
2220.781 4508209 4519190 4530574 4544100 4560842 4579560 4596571 4605680 
2224.638 4603838 4589438 4564994 4535764 4507305 4483368 4464654 4450058 
2228.496 4437639 4427363 4421371 4422609 4433823 4454645 4480589 4506066 
2232.353 4524480 4532047 4529469 4520128 4508845 4499906 4495855 4496324 
2236.211 4500776 4509113 4522137 4541456 4567974 4600623 4635618 4669276 
2240.068 4697813 4720824 4740822 4761993 4788559 4822463 4862603 4905259 
2243.926 4946982 4985491 5020450 5053535 5086052 5117768 5146300 5168061 
2247.783 5180434 5182747 5177852 5169771 5163567 5162092 5166015 5174666 
2251.640 5186570 5202029 5222618 5250654 5286776 5328770 5370835 5405523 
2255.498 5426324 5429846 5416561 5391567 5361576 5331990 5306699 5286809 
2259.355 5271482 5260448 5254076 5252935 5258200 5269972 5286406 5305256 
2263.213 5324375 5342858 5361676 5383012 5408140 5437496 5468901 5499571 
2267.070 5526719 5549606 5569072 5587934 5608676 5632306 5657348 5681182 
2270.927 5700855 5714284 5722006 5725799 5728787 5732917 5739162 5746783 
2274.785 5754573 5761624 5767198 5772335 5777606 5783214 5789359 5796142 
2278.642 5803596 5813133 5826230 5844264 5867437 5894977 5923963 5952179 
2282.500 5977743 6000251 6020979 6041642 6063212 6085423 6106390 6123831 
2286.357 6135828 6141843 6142818 6140768 6137911 6135324 6133677 6132971 
2290.215 6133139 6134988 6139793 6148665 6161772 6178509 6196927 6214707 
2294.072 6230908 6245328 6258908 6273329 6289499 6307149 6325337 6342315 
2297.929 6356538 6367902 6376812 6383504 6387741 6387572 6380276 6363061 
2301.787 6334516 6294643 6246202 6192759 6137743 6083810 6032100 5982714 
2305.644 5935921 5892626 5853801 5821025 5794698 5773745 5755278 5735872 
2309.502 5712034 5682088 5646472 5606595 5565514 5525645 5488497 5454910 
2313.359 5424478 5396565 5370197 5343830 5315654 5283086 5244249 5197669 
2317.217 5143584 5084007 5022260 4961929 4905662 4854829 4809296 4768090 
2321.074 4730304 4695167 4662511 4630862 4597743 4559403 4511523 4450761 
2324.931 4376319 4290511 4197695 4103727 4014128 3931868 3858317 3793034 
2328.789 3734912 3684183 3642415 3611509 3593133 3587353 3591897 3603190 
2332.646 3617723 3632959 3647961 3663599 3680374 3698552 3717400 3735246 
2336.504 3750720 3763989 3775954 3788689 3803830 3821680 3841001 3860390 
2340.361 3878543 3895459 3913145 3934176 3961159 3996170 4040447 4096101 
2344.219 4167318 4260797 4384452 4543933 4739984 4965884 5207964 5446723 
2348.076 5662349 5836976 5957084 6015806 6012681 5953556 5848361 5710691 
2351.933 5555446 5395291 5240661 5098691 4972989 4865083 4775828 4705282 
2355.791 4654071 4622758 4611506 4620012 4647239 4691215 4750201 4822531 
2359.648 4906801 5002417 5108414 5223625 5345877 5472995 5602299 5731943 
2363.506 5861694 5991919 6123965 6258606 6395642 6533395 6670181 6803544 
2367.363 6932370 7056181 7175380 7289725 7398944 7501920 7597705 7686731 
2371.220 7771121 7855156 7944203 8044034 8159148 8292462 8445379 8618358 
2375.078 8811489 9025241 9259610 9514628 9789011 10080388 10385467 10700778 
2378.935 11023319 11351032 11682771 12017454 12353521 12688687 13019674 
2382.311 13342337 13652897 13947665 14223118 14476958 14706405 14909156 
2385.686 15083527 15228250 15342985 15428636 15486799 15519729 15529962 
2389.061 15519798 15491778 15448068 15391010 15322047 15242526 15152795 
2392.436 15052482 14941356 14819665 14688890 14552399 14414957 14281564 
2395.812 14157148 14045806 13949615 13869798 13807268 13762223 13735991 
2399.187 13729631 13743994 13779255 13834906 13909311 14000805 14108028 
2402.562 14230102 14366938 14518205 14684023 14864099 15058142 15266103 
2405.937 15487898 15724063 15974622 16238913 16516341 16805620 17105708 
2409.313 17416348 17737844 18071010 18415978 18771462 19133816 19498100 
2412.688 19857280 20204260 20532864 20836964 21111814 21353564 21558398 
2416.063 21723756 21848444 21932912 21980382 21995022 21983240 21950408 
2419.438 21901340 21839490 21766430 21682796 21589356 21486432 21375108 
2422.813 21257620 21135746 21013036 20893040 20779646 20677398 20590602 
2426.189 20523206 20478502 20458740 20465720 20500766 20565240 20660302 
2429.564 20786838 20945470 21135400 21355200 21603040 21876668 22173796 
2432.939 22493284 22833894 23194830 23575306 23974778 24393124 24831170 
2436.314 25290588 25773944 26283712 26821744 27388498 27983912 28607532 
2439.690 29258632 29937724 30645540 31383004 32150160 32946446 33770052 
2443.065 34620088 35495988 36398232 37328060 38286520 39272556 40283200 
2446.440 41313288 42356452 43406600 44459216 45510528 46558304 47599632 
2449.815 48631344 49649352 50649980 51629708 52585992 53517180 54420020 
2453.191 55289628 56118524 56897140 57614608 58261232 58828488 59309424 
2456.566 59699144 59992160 60182604 60265012 60233528 60083704 59813588 
2459.941 59422512 58911736 58284156 57543336 56694240 55743528 54699988 
2463.316 53574344 52379416 51130028 49840848 48527176 47205060 45888684 
2466.692 44592884 43331760 42117112 40959628 39867792 38847212 37901580 
2470.067 37032764 36241276 35527380 34890124 34327952 33836952 33411816 
2473.442 33045042 32727168 32448762 32201112 31976040 31768228 31572848 
2476.817 31386532 31206628 31030680 30856442 30682840 30508668 30333642 
2480.193 30157764 29980678 29802530 29623176 29443224 29263522 29085950 
2483.568 28912384 28744726 28584742 28433412 28291400 28158840 28036180 
2486.943 27922884 27818448 27721596 27629954 27541018 27452556 27362700 
2490.318 27271314 27179626 27089194 27001918 26919136 26840634 26765566 
2493.694 26692238 26618498 26543046 26464684 26381686 26293004 26196950 
2497.069 26091694 25975808 25848912 25711048 25563634 25408996 25249604 
2500.444 25087742 24925520 24763920 24603782 24445210 24288168 24132094 
2503.819 23977126 23823472 23671902 23524410 23382912 23249288 23125106 
2507.195 23010534 22904128 22803652 22706060 22607896 22506824 22400752 
2510.570 22287938 22167730 22039672 21903570 21760090 21610598 21456526 
2513.945 21300038 21142946 20986050 20830082 20675208 20521746 20370874 
2517.320 20224428 20084208 19952358 19830540 19719120 19618130 19527490 
2520.696 19447298 19378034 19320838 19276154 19244080 19223888 19214086 
2524.071 19212458 19218172 19230018 19247370 19269952 19296280 19324338 
2527.446 19351880 19376892 19398130 19416112 19432190 19448130 19464970 
2530.821 19482678 19500456 19516710 19530712 19542080 19552234 19563014 
2534.197 19575700 19591748 19611334 19634456 19661150 19692178 19728412 
2537.572 19771098 19820792 19876668 19937616 20002006 20068384 20136716 
2540.947 20207488 20281258 20358582 20438732 20519836 20599740 20676704 
2544.322 20749788 20819686 20887964 20956180 21025766 21096996 21169420 
2547.698 21241962 21313540 21383392 21450434 21514108 21573546 21627732 
2551.073 21676734 21720866 21761482 21800364 21839142 21878690 21919044 
2554.448 21958878 21996624 22031202 22061740 22088304 22111104 22129862 
2557.823 22142972 22149108 22145832 22131256 22104726 22066342 22016458 
2561.198 21956264 21885764 21804788 21713480 21612512 21503108 21388056 
2564.574 21270634 21154114 21041380 20934378 20834184 20741446 20657314 
2567.949 20582368 20517892 20465026 20424250 20395218 20377680 20370598 
2571.324 20373446 20385494 20405914 20433522 20467006 20504690 20544502 
2574.699 20586328 20629794 20675556 20724868 20778636 20837278 20900410 
2578.075 20967654 21037938 21111398 21187858 21267572 21351058 21438738 
2581.450 21530578 21626790 21727588 21833148 21944064 22060484 22181920 
2584.825 22307820 22437526 22569956 22704942 22841750 22979964 23118570 
2588.200 23255790 23389414 23517308 23638174 23751690 23858616 23961124 
2591.576 24060608 24158574 24255338 24350578 24444124 24535724 24626154 
2594.951 24716322 24807700 24900956 24996622 25095080 25196756 25302072 
2598.326 25412580 25529826 25654768 25788042 25929310 26077692 26232250 
2601.701 26392566 26558474 26730892 26910392 27096986 27290436 27490006 
2605.077 27694754 27904476 28119634 28340668 28568746 28803992 29045706 
2608.452 29292410 29542128 29792450 30041000 30285216 30522638 30750300 
2611.827 30965238 31164476 31345074 31504974 31642980 31758498 31851516 
2615.202 31922508 31971868 32001328 32011956 32005894 31985704 31953714 
2618.578 31912204 31863208 31808622 31750512 31690914 31632074 31575986 
2621.953 31523928 31476260 31432372 31391408 31352516 31315550 31281472 
2625.328 31252202 31229558 31215352 31210616 31215174 31228810 31251348 
2628.703 31282894 31324632 31377304 31441600 31517192 31602710 31695690 
2632.079 31794182 31896334 32000650 32106988 32215174 32325420 32437586 
2635.454 32551422 32666862 32783654 32902804 33024556 33149778 33278860 
2638.829 33411528 33547670 33686648 33827748 33970152 34113492 34256884 
2642.204 34399532 34540684 34679872 34816740 34952316 35087292 35222736 
2645.580 35359988 35499440 35641780 35787328 35936488 36089844 36248080 
2648.955 36411600 36580732 36755080 36934592 37118976 37308636 37504304 
2652.330 37706856 37917308 38136076 38362992 38597952 38840836 39091428 
2655.705 39350256 39618060 39895288 40181820 40477232 40780088 41089124 
2659.081 41403524 41722892 42047096 42376580 42711036 43049952 43392100 
2662.456 43736532 44082084 44428492 44775480 45123032 45471156 45819564 
2665.831 46167628 46515188 46862592 47210564 47560848 47914820 48273748 
2669.206 48638424 49008888 49384684 49765672 50151608 50542280 50937696 
2672.582 51337204 51739768 52143828 52547776 52949516 53347696 53740656 
2675.957 54126720 54504456 54872672 55230324 55577804 55916700 56250020 
2679.332 56581860 56917088 57260320 57616084 57988236 58379884 58793964 
2682.707 59233196 59699716 60195168 60720140 61274672 61858068 62468916 
2686.083 63106032 63768060 64453312 65160132 65886692 66631116 67391600 
2689.458 68166520 68955368 69757752 70573784 71403736 72247592 73105728 
2692.833 73978328 74866304 75770576 76692432 77632088 78589160 79562424 
2696.208 80549808 81549552 82560184 83581072 84612224 85653344 86704192 
2699.583 87763232 88828808 89898920 90971840 92046840 93122704 94198232 
2702.959 95271240 96337752 97393128 98431208 99446064 100431320 101380352 
2706.334 102286520 103142424 103940328 104672912 105333928 105918800 
2709.227 106425088 106851400 107197624 107463920 107650680 107758280 
2712.120 107788464 107743416 107626016 107439136 107184648 106863016 
2715.013 106473264 106013744 105483056 104881384 104210280 103473304 
2717.906 102675160 101821472 100918168 99971512 98989176 97979032 96950072 
2721.281 95911792 94873536 93844440 92833176 91847752 90895896 89985896 
2724.657 89124096 88316752 87568216 86880784 86255488 85692168 85189832 
2728.032 84748608 84368432 84049824 83792640 83595776 83457024 83372824 
2731.407 83339264 83352832 83410240 83509304 83648480 83825872 84040128 
2734.782 84288936 84569672 84879928 85216320 85575368 85953136 86344568 
2738.158 86743800 87145344 87543120 87932424 88309448 88670984 89014680 
2741.533 89338752 89641760 89923456 90184624 90428080 90657576 90877928 
2744.908 91094096 91309720 91527912 91750256 91977424 92209840 92447704 
2748.283 92690784 92938184 93188648 93439744 93689344 93935712 94178112 
2751.659 94417832 94657112 94899296 95148416 95408248 95682760 95975560 
2755.034 96289976 96628512 96992648 97382472 97796296 98230296 98679824 
2758.409 99139016 99601608 100061576 100512376 100946672 101357008 101735440 
2761.784 102073920 102365736 102605040 102787528 102909968 102970280 
2764.677 102966496 102898176 102765408 102570624 102317928 102013576 
2767.571 101665088 101280688 100868960 100437672 99994448 99546568 99100504 
2770.946 98662528 98238144 97831160 97444584 97080392 96739080 96421104 
2774.321 96126520 95854776 95604752 95374112 95159096 94954752 94754784 
2777.696 94552392 94339600 94108480 93850616 93557152 93221088 92836256 
2781.072 92399248 91911008 91375104 90799056 90191760 89562624 88920992 
2784.447 88274520 87629592 86991120 86363088 85748312 85148432 84564120 
2787.822 83994656 83438672 82894584 82361024 81837216 81323176 80819728 
2791.197 80327696 79848016 79381200 78927872 78488240 78062536 77650912 
2794.573 77253296 76869144 76497216 76135720 75782688 75436096 75094344 
2797.948 74755656 74418688 74081544 73742352 73398400 73047344 72687184 
2801.323 72316120 71933288 71538144 71130360 70709728 70276160 69829848 
2804.698 69371608 68903488 68427912 67948640 67469040 66992752 66523084 
2808.073 66062800 65614296 65179996 64761864 64361924 63981584 63621992 
2811.449 63283356 62965468 62667756 62389344 62129148 61886264 61659900 
2814.824 61448884 61253268 61072688 60908236 60761716 60636164 60535020 
2818.199 60462160 60422064 60417680 60452260 60528280 60647324 60810384 
2821.574 61017504 61267384 61557984 61885692 62246452 62635148 63046568 
2824.950 63474940 63913636 64355852 64793408 65217496 65618964 65988972 
2828.325 66319032 66602528 66833808 67008444 67124176 67179600 67174920 
2831.700 67111992 66994140 66825964 66612884 66360912 66076300 65764620 
2835.075 65431708 65082564 64721600 64352512 63978016 63599972 63219384 
2838.451 62836520 62451392 62064236 61674988 61284056 60891496 60496972 
2841.826 60099684 59698764 59293204 58882820 58468580 58052008 57635648 
2845.201 57222632 56816012 56418568 56033284 55662312 55308144 54973252 
2848.576 54659628 54369324 54103564 53863064 53647964 53457820 53291912 
2851.952 53149476 53029772 52931960 52855052 52797952 52759260 52737336 
2855.327 52730792 52737900 52756640 52784964 52819952 52857856 52894908 
2858.702 52926348 52947456 52953856 52941208 52905612 52843936 52753612 
2862.077 52632484 52479908 52295988 52081960 51841048 51577392 51296408 
2865.453 51004392 50709072 50416964 50135692 49871844 49630588 49416724 
2868.828 49233908 49084788 48971096 48893768 48852088 48843896 48865404 
2872.203 48911496 48976140 49054032 49140956 49234692 49335536 49444940 
2875.578 49565592 49699316 49847128 50008376 50181508 50364460 50555344 
2878.954 50752980 50956848 51166596 51382068 51602840 51827792 52056184 
2882.329 52287092 52519616 52753272 52987212 53220108 53450212 53675672 
2885.704 53894424 54105368 54307588 54501228 54686344 54863160 55031472 
2889.079 55191156 55341564 55482464 55614256 55737648 55853996 55964492 
2892.455 56070944 56174176 56274724 56373104 56469244 56563096 56654936 
2895.830 56745172 56834748 56925280 57018408 57116048 57219912 57330680 
2899.205 57447980 57570536 57695924 57820972 57942912 58058144 58163784 
2902.580 58256872 58335048 58395952 58438748 58462744 58468696 58458156 
2905.956 58433064 58394968 58344864 58283056 58209396 58124352 58029060 
2909.331 57925760 57817716 57708792 57601328 57497528 57397080 57298656 
2912.706 57200252 57099724 56995624 56887960 56777152 56664152 56549888 
2916.081 56435204 56320404 56205180 56090020 55974856 55860512 55748348 
2919.457 55640092 55538336 55445868 55366028 55302084 55256740 55231304 
2922.832 55225204 55236380 55260012 55289516 55318380 55338740 55343820 
2926.207 55328428 55288724 55222460 55129760 55012480 54874212 54720208 
2929.582 54557840 54395084 54241136 54106040 53998980 53928976 53904252 
2932.958 53931376 54015676 54161744 54371836 54647604 54988748 55393204 
2936.333 55856896 56373632 56935856 57534636 58160868 58806292 59463620 
2939.708 60127424 60793580 61458500 62118940 62770240 63406148 64018524 
2943.083 64596816 65127484 65596104 65986536 66282676 66471456 66543788 
2946.458 66497408 66337676 66078348 65739988 65346308 64923128 64494060 
2949.834 64077392 63686444 63327932 63003352 62710136 62442824 62195712 
2953.209 61962420 61738004 61519008 61303404 61090192 60879872 60672624 
2956.584 60468636 60267828 60069548 59873104 59678084 59484632 59293164 
2959.959 59104328 58918872 58736872 58558360 58383600 58212692 58046932 
2963.335 57888356 57739332 57602692 57481416 57377376 57292188 57226940 
2966.710 57182148 57157696 57153048 57166388 57194168 57232348 57274536 
2970.085 57313968 57344440 57360172 57356956 57332948 57288752 57226904 
2973.460 57152444 57072552 56994944 56927320 56875724 56842224 56823756 
2976.836 56810276 56785952 56730332 56619416 56431284 56148536 55760740 
2980.211 55266824 54675412 54003936 53274272 52512696 51745404 50994592 
2983.586 50279748 49614544 49007256 48462084 47980536 47562108 47206612 
2986.961 46913600 46683060 46512832 46396708 46322612 46268644 46206208 
2990.337 46100488 45913688 45614672 45181192 44606688 43901172 43090492 
2993.712 42212188 41306108 40411840 39560600 38771524 38052884 37402668 
2997.087 36812568 36270776 35765308 35287244 34829408 34387696 33960152 
3000.462 33545810 33143804 32753714 32374538 32005358 31645294 31293578 
3003.838 30949584 30613398 30284968 29964348 29652160 29348738 29054490 
3007.213 28770286 28496918 28234788 27984370 27745648 27517682 27298904 
3010.588 27087712 26882122 26680716 26483208 26289696 26101266 25919602 
3013.963 25745536 25580116 25423506 25275874 25137032 25007536 24887624 
3017.339 24777704 24677880 24587126 24503122 24423162 24343568 24260662 
3020.714 24172096 24075352 23969316 23853366 23727260 23591432 23446976 
3024.089 23295852 23141076 22986778 22837630 22697332 22569328 22455042 
3027.464 22354284 22265024 22184256 22107898 22031656 21951246 21862278 
3030.840 21761238 21645110 21512160 21362162 21196244 21017036 20828100 
3034.215 20633616 20437692 20244182 20056828 19878056 19710000 19553968 
3037.590 19410154 19278024 19156772 19045146 18941924 18846614 18758696 
3040.965 18677816 18603836 18535916 18472606 18413006 18355418 18298736 
3044.341 18242062 18185082 18127110 18067970 18007044 17943914 17878656 
3047.716 17812094 17745438 17680518 17618610 17560402 17504962 17450392 
3051.091 17393450 17331168 17260828 17180676 17090336 16990712 16883052 
3054.466 16769802 16653415 16536303 16420633 16308641 16201148 16099012 
3057.842 16002227 15910311 15822709 15739249 15659444 15583502 15511247 
3061.217 15442129 15375287 15309623 15244174 15178460 15113099 15049224 
3064.592 14988582 14932851 14882992 14839173 14800912 14767007 14735951 
3067.967 14706919 14678917 14651327 14623569 14595059 14565008 14532938 
3071.343 14498369 14460995 14421499 14380227 14337999 14295810 14254446 
3074.718 14214456 14176661 14141642 14109123 14079106 14051042 14024075 
3078.093 13997280 13969837 13940890 13909653 13875750 13838805 13798477 
3081.468 13754938 13708838 13660795 13611902 13563015 13514508 13466452 
3084.844 13418128 13369160 13319309 13268780 13218598 13170439 13125460 
3088.219 13084788 13048935 13017318 12989254 12963992 12940949 12919682 
3091.594 12900295 12882682 12866572 12851897 12838244 12825310 12813059 
3094.969 12801593 12791014 12781255 12772349 12763681 12755185 12746654 
3098.344 12738500 12731334 12725876 12722531 12721577 12723112 12726285 
3101.720 12730584 12735395 12739899 12743584 12746143 12747303 12747372 
3105.095 12746962 12746654 12747235 12749179 12752251 12755867 12759109 
3108.470 12761088 12761566 12761259 12761327 12763102 12767435 12774566 
3111.845 12783677 12793812 12803948 12813230 12822341 12831829 12842340 
3115.221 12854218 12866811 12879030 12889508 12897257 12901626 12903127 
3118.596 12902240 12899714 12895857 12890976 12884901 12877904 12870634 
3121.971 12863535 12857664 12853500 12851145 12850531 12851452 12853671 
3125.346 12857084 12861931 12868142 12874831 12881215 12885856 12887904 
3128.722 12887051 12883808 12879780 12876641 12876026 12878655 12884969 
3132.097 12894526 12906439 12920467 12936033 12952487 12969863 12987308 
3135.472 13003798 13018718 13031522 13041730 13049857 13056242 13061090 
3138.847 13064813 13067612 13069866 13072393 13076286 13083183 13094145 
3142.223 13110058 13130548 13155274 13183076 13212792 13243843 13275715 
3145.598 13308068 13340492 13372747 13403946 13433814 13462283 13489898 
3148.973 13517619 13546914 13578227 13611765 13647187 13683500 13719748 
3152.348 13755314 13789823 13823378 13856525 13889468 13922893 13957417 
3155.724 13993961 14033520 14077258 14125485 14177859 14233560 14290776 
3159.099 14347553 14403071 14456747 14509263 14562473 14617949 14677408 
3162.474 14742087 14812225 14887416 14967112 15049945 15134679 15219705 
3165.849 15303547 15384831 15462627 15536796 15607373 15674938 15739970 
3169.225 15802298 15861610 15917012 15967507 16012438 16051698 16085738 
3172.600 16115241 16140722 16162559 16180821 16195163 16205447 16211534 
3175.975 16213873 16213013 16209539 16203899 16196780 16188698 16179962 
3179.350 16171226 16163006 16156025 16150385 16146190 16143473 16142236 
3182.726 16142923 16146431 16153825 16166067 16184088 16207613 16235955 
3186.101 16267911 16301898 16336473 16371015 16405080 16438905 16473113 
3189.476 16508561 16545424 16584253 16624738 16666396 16708678 16751241 
3192.851 16793876 16836892 16881396 16928318 16978722 17033268 17091370 
3196.227 17151826 17213080 17273308 17331202 17386552 17439698 17491924 
3199.602 17544464 17598184 17653566 17710476 17768770 17828008 17888910 
3202.977 17951582 18016542 18084516 18154714 18226132 18297388 18366652 
3206.352 18432676 18494976 18553862 18610510 18666852 18724690 18785474 
3209.728 18849866 18917556 18987162 19057158 19125678 19191680 19255164 
3213.103 19317166 19378900 19442064 19507352 19574660 19643158 19711422 
3216.478 19778344 19843510 19907020 19970088 20033476 20098228 20164656 
3219.853 20232622 20302160 20373306 20446340 20521956 20600608 20682056 
3223.229 20765776 20850416 20934274 21016966 21097656 21176622 21254766 
3226.604 21332648 21410506 21488346 21565502 21641070 21714630 21785974 
3229.979 21854856 21921482 21986064 22048424 22108942 22167868 22225998 
3233.354 22284172 22343296 22404068 22466938 22531742 22597740 22664410 
3236.729 22731022 22796806 22861622 22925818 22989572 23053960 23120108 
3240.105 23188922 23261032 23336546 23414382 23493140 23571108 23646676 
3243.480 23719422 23789592 23858230 23926950 23997014 24068628 24141620 
3246.855 24215676 24290340 24366138 24444264 24526540 24614232 24708288 
3250.230 24807628 24910396 25014098 25115932 25214312 25308394 25398528 
3253.606 25485588 25570942 25655542 25739700 25823946 25908100 25992272 
3256.981 26076706 26161580 26247384 26334650 26424150 26515960 26610256 
3260.356 26706436 26803698 26900734 26996416 27089934 27180826 27269796 
3263.731 27357548 27444898 27532544 27620458 27708422 27796194 27883736 
3267.107 27971576 28060710 28151592 28244510 28338968 28433448 28526426 
3270.482 28616628 28703378 28787564 28870524 28953856 29039116 29127194 
3273.857 29217804 29309992 29403016 29495634 29586464 29675432 29761862 
3277.232 29845720 29928138 30010394 30094442 30182590 30276832 30377844 
3280.608 30485706 30598430 30713634 30828624 30941186 31049900 31155080 
3283.983 31257544 31358998 31460978 31564902 31671670 31781812 31895552 
3287.358 32012600 32132354 32254320 32377322 32500464 32623246 32745208 
3290.733 32866276 32987304 33108760 33231608 33356852 33485178 33617368 
3294.109 33753936 33895020 34039844 34187976 34337880 34488128 34638064 
3297.484 34786800 34934720 35082476 35231216 35381628 35534604 35690660 
3300.859 35849864 36012764 36179760 36351572 36528648 36711380 36899924 
3304.234 37094432 37294628 37500220 37710724 37925660 38143816 38364364 
3307.610 38586652 38809856 39034620 39261604 39492048 39726640 39965868 
3310.985 40209076 40455916 40706136 40959916 41218440 41483388 41755980 
3314.360 42036692 42324604 42617964 42914892 43214148 43515512 43819944 
3317.735 44129432 44445012 44767468 45096308 45430324 45768608 46110624 
3321.111 46456740 46807448 47162732 47521516 47881376 48239868 48594504 
3324.486 48944244 49289548 49632336 49974212 50316500 50658876 50999696 
3327.861 51336796 51668144 51992204 52308804 52618120 52920172 53214940 
3331.236 53501512 53778680 54045664 54301768 54546532 54779780 55001344 
3334.612 55209932 55404988 55585900 55752532 55905508 56045536 56172896 
3337.987 56287212 56387364 56471204 56536980 56583632 56610396 56617036 
3341.362 56603940 56570496 56515920 56439808 56341300 56221316 56080932 
3344.737 55921788 55744884 55550692 55338404 55106324 54853836 54580684 
3348.113 54287764 53977332 53651488 53311808 52959136 52593288 52213812 
3351.488 51820624 51414256 50996120 50568036 50131712 49688136 49238028 
3354.863 48782276 48321668 47858364 47395372 46935308 46481408 46035504 
3358.238 45597924 45168696 44746752 44331132 43921224 43516936 43118336 
3361.614 42725952 42339868 41960084 41586496 41219096 40857796 40502580 
3364.989 40153904 39811572 39475968 39147480 38826628 38514092 38210496 
3368.364 37916260 37631328 37355000 37086064 36823312 36565628 36311948 
3371.739 36061728 35815036 35571644 35331916 35096092 34864416 34637060 
3375.115 34414380 34196580 33983296 33774384 33569648 33368696 33171594 
3378.490 32978508 32789766 32605246 32424766 32246932 32070420 31893552 
3381.865 31714868 31533368 31349134 31162342 30973994 30785406 30597790 
3385.240 30412494 30230934 30054210 29883130 29718042 29558230 29402592 
3388.615 29249204 29096404 28942488 28787068 28629546 28470312 28310216 
3391.991 28149544 27988788 27828658 27669822 27512670 27357974 27205624 
3395.366 27055162 26905988 26757214 26608600 26460952 26316026 26175480 
3398.741 26041276 25913938 25792684 25675190 25558644 25440404 25318756 
3402.116 25193070 25063908 24931802 24797736 24661994 24524928 24387376 
3405.492 24250292 24115456 23984862 23859842 23740596 23626312 23514790 
3408.867 23403890 23292216 23178646 23063642 22948140 22832670 22717440 
3412.242 22602346 22486412 22368692 22249470 22129166 22008510 21889002 
3415.617 21771132 21654966 21540048 21425510 21310306 21193740 21075604 
3418.993 20955520 20834322 20713158 20593242 20476904 20366014 20262198 
3422.368 20166148 20077408 19994372 19914686 19835916 19755840 19673666 
3425.743 19589046 19502052 19413098 19322328 19229500 19134368 19037218 
3429.118 18937978 18837654 18737074 18637002 18537716 18439452 18342354 
3432.494 18246346 18152814 18061926 17974510 17890498 17808814 17728008 
3435.869 17646252 17562232 17475434 17387068 17298308 17210872 17126144 
3439.244 17044192 16963872 16884084 16802934 16719732 16634239 16547592 
3442.619 16460860 16375661 16292712 16211569 16131541 16051011 15968401 
3445.995 15883399 15796594 15709462 15624512 15544420 15470627 15403369 
3449.370 15341234 15281787 15221902 15158971 15091521 15019485 14944100 
3452.745 14866876 14789838 14714048 14639745 14566721 14495011 14423965 
3456.120 14353958 14285297 14217812 14151123 14084582 14016717 13945954 
3459.496 13872021 13794270 13713079 13629988 13546127 13462829 13381632 
3462.871 13303285 13228231 13156914 13089023 13024044 12961430 12900090 
3466.246 12839644 12779787 12720587 12662043 12604223 12546718 12488504 
3469.621 12428764 12366782 12302218 12235823 12169166 12103167 12039323 
3472.997 11977874 11918136 11859087 11799808 11739175 11676950 11613544 
3476.372 11549807 11486113 11422837 11359774 11296142 11231431 11164485 
3479.747 11094560 11021450 10944684 10864839 10783345 10701831 10622574 
3483.122 10547779 10478699 10415467 10357742 10303112 10249473 10195094 
3486.498 10138348 10079032 10017520 9954931 9892217 9830358 9769898 9710937 
3490.355 9653746 9597884 9542841 9488821 9435182 9381581 9328428 9275958 
3494.212 9224714 9175641 9129145 9084853 9042460 9000783 8958973 8916525 
3498.070 8873168 8829005 8784033 8737850 8689542 8637791 8581789 8520962 
3501.927 8456360 8390246 8325156 8264094 8209491 8162119 8121404 8085552 
3505.785 8051561 8016154 7977240 7932594 7881777 7826210 7768220 7710812 
3509.642 7657560 7610788 7571236 7538263 7509741 7482671 7454727 7424458 
3513.500 7390957 7355334 7318265 7280392 7242319 7204115 7165780 7127986 
3517.357 7091745 7057932 7027456 7000113 6973984 6946375 6914324 6875172 
3521.214 6827947 6773590 6713958 6652382 6592161 6535043 6482237 6433473 
3525.072 6387741 6344064 6301971 6261127 6221799 6184861 6150278 6118219 
3528.929 6088682 6061062 6035359 6011606 5989736 5969647 5951541 5934007 
3532.787 5915768 5894910 5869519 5837883 5800272 5757729 5713008 5669567 
3536.644 5630628 5597936 5571522 5549270 5527860 5504135 5475478 5441120 
3540.501 5401866 5360200 5317700 5276143 5235731 5195523 5153576 5108246 
3544.359 5058328 5004193 4947518 4890683 4837172 4790636 4752848 4725178 
3548.216 4706857 4694999 4685386 4673262 4654239 4625605 4586960 4540418 
3552.074 4490365 4442192 4400350 4367617 4344724 4330267 4321331 4315609 
3555.931 4310221 4302826 4291883 4275787 4252967 4223021 4185717 4141960 
3559.789 4094061 4044828 3997073 3953234 3914750 3881384 3852233 3825022 
3563.646 3795975 3761449 3716966 3658921 3585483 3498595 3403443 3309781 
3567.503 3228690 3168909 3135500 3127323 3138570 3159897 3182527 3198515 
3571.361 3203455 3195844 3176485 3148182 3114041 3076398 3037291 2998354 
3575.218 2960421 2924426 2891103 2860384 2831535 2803821 2775942 2746532 
3579.076 2716190 2685449 2655778 2628776 2605742 2586942 2572710 2561844 
3582.933 2553045 2544379 2533181 2515951 2488924 2448370 2391794 2319935 
3586.791 2237364 2151744 2073633 2013244 1976496 1964613 1973600 1995535 
3590.648 2020834 2040342 2047133 2037212 2010847 1970804 1923476 1875953 
3594.505 1834225 1802416 1781954 1770842 1765120 1761028 1754840 1744327 
3598.363 1729490 1710928 1690737 1670779 1653051 1638384 1627874 1621521 
3602.220 1619127 1620756 1625911 1633494 1642541 1650490 1654215 1649925 
3606.078 1633627 1601800 1553248 1489673 1415703 1338721 1267302 1207557 
3609.935 1162471 1130578 1107557 1087693 1066568 1041989 1016016 993101 
3613.792 977924 974105 981743 997053 1013459 1023423 1020234 999311 960457 
3618.132 907096 847201 790999 747417 723487 721794 739684 771714 811182 
3622.472 851982 889299 921340 947905 969755 987356 998049 996289 974172 
3626.811 922569 835748 715389 575853 440939 337700 285941 289190 336805 
3631.151 409331 487642 557042 608701 640721 656483 662290 664613 667799 
3635.490 673806 681737 690133 697302 702645 706694 709714 711672 712203 
3639.830 710278 704835 696439 686715 678352 674303 676859 686018 699525 
3644.170 713962 723587 722525 705864 670354 614109 538364 446080 342276 
3648.509 234055 129705 39464 -25976 -56953 -47279 3247 88012 194739 308454 
3653.331 412781 492883 539160 547421 521544 473445 420309 377826 356635 
3657.671 359222 380843 413842 450226 484789 514777 539525 559298 573829 
3662.010 583119 586470 584048 577545 568786 560857 555648 552762 549842 
3666.350 542511 524530 489632 432780 351595 248874 133716 21835 -67753 
3670.689 -119729 -127249 -95680 -39228 21239 64085 72801 37873 -37340 
3675.029 -134238 -222967 -275389 -277044 -232174 -158351 -75439 -463 57922 
3679.369 99082 127651 150023 171568 194208 216916 237304 254212 268833 
3683.708 284383 304277 329046 355806 376897 383132 365025 317971 243338 
3688.048 150487 54011 -31774 -96442 -136457 -154344 -154940 -142287 -120193 
3692.387 -91109 -56622 -19813 15540 46555 71144 89305 103291 116780 133152 
3697.209 154200 178430 201766 218209 221657 207601 175513 129175 75287 23592 
3702.031 -16301 -38566 -40487 -23822 6096 43971 83439 120061 150719 173756 
3706.853 188474 194838 193313 183634 165900 140444 107466 68659 27237 -12524 
3711.675 -44264 -61658 -60366 -38731 1623 55635 115951 176143 229414 271717 
3716.496 301989 320856 331068 335247 335247 330737 320623 303381 278448 
3720.836 248278 217082 190197 172132 164143 164110 167060 166596 157846 
3725.176 139947 115818 92122 77076 78236 98352 136169 185424 237271 282460 
3729.997 312765 322944 311870 282659 241514 195634 150719 107897 65046 19317 
3734.819 -30714 -81071 -123208 -146659 -143347 -110819 -53740 19218 99446 
3739.159 179955 256765 328847 394142 447772 481605 481970 435135 332693 
3743.498 181148 7885 -143910 -230021 -229823 -151661 -26042 111079 228850 
3747.838 304873 329145 303481 241912 163215 87250 28131 -7985 -19813 -7885 
3752.660 26872 82611 155459 237702 319562 390859 443758 474373 483363 475269 
3757.481 457059 435500 414306 395867 381739 373912 375504 390229 418784 
3761.821 458054 501740 540586 565966 573099 562250 539657 515075 497825 
3766.161 492651 498555 508640 513715 507014 485618 452216 414936 384458 
3770.500 369535 375073 400808 441967 491921 543075 589125 625590 650079 
3774.840 661992 662788 654492 638365 615768 587034 552331 513417 474274 
3779.179 440840 420210 417988 435798 470559 515308 561554 600804 627979 
3783.519 640953 641252 633089 620745 607904 596822 588527 583252 582290 
3787.859 586172 595163 608535 623831 637900 648320 653928 655720 656218 
3792.198 657976 661992 666339 666273 656616 633620 597585 553558 511592 
3796.538 482434 473478 485585 512156 541283 558236 550406 510132 439546 
3800.877 352457 270292 217944 211877 254212 333788 431122 524729 594997 
3805.217 628875 622537 582721 526155 473975 445549 449629 483694 537269 
3809.557 598315 656715 706926 749243 785921 819116 848562 869345 873396 
3813.896 852480 801389 722857 629306 541681 481173 461537 482699 532425 
3818.236 591348 637768 654525 631728 570810 485154 398719 337568 317772 
3822.575 342674 401405 476861 550672 608999 645367 660465 661959 659968 
3826.915 665111 683363 713597 749873 783697 807265 815730 809091 791265 
3831.255 768494 747882 733776 728233 730324 736697 742771 744895 738489 
3835.594 720500 689138 645101 591779 536108 486812 452216 437656 444289 
3839.934 468834 505853 548615 590452 627149 655620 675133 686649 692855 
3844.273 696671 701881 711473 727238 749409 777257 808626 841757 875056 
3848.613 907195 936880 961553 976231 972810 941429 871902 758802 607871 
3852.953 438286 283952 178430 141008 171104 252190 361443 478155 588925 
3857.292 684956 762486 821473 862340 886411 895608 891756 876749 853443 
3861.632 824096 789738 751433 709581 666040 625490 595760 585110 599477 
3865.971 638896 695742 756777 805174 826552 812477 764179 693717 622371 
3870.311 572038 555151 571275 609099 652169 686084 702678 702280 693585 
3874.651 688839 698994 729494 778120 836179 891225 931235 947407 935253 
3878.990 897367 842653 785024 739451 717314 723421 754620 800626 847135 
3883.330 881198 892221 875886 837142 788875 749475 734705 753690 803514 
3887.669 872997 945580 1004725 1038402 1040428 1012230 963213 908291 862075 
3892.009 835715 833889 853609 888635 931302 975135 1015552 1050292 1077163 
3896.349 1094868 1101811 1096562 1078758 1050691 1015518 979485 948170 
3900.206 925258 911379 904108 898330 889299 874458 854571 833822 818784 
3904.546 815464 827814 856597 898795 949067 1002666 1054544 1101246 1141176 
3908.885 1173634 1198520 1216894 1229919 1239190 1246267 1253345 1261188 
3912.743 1270260 1279332 1285679 1286676 1279398 1262284 1235701 1202673 
3916.600 1167089 1134033 1107690 1090251 1082777 1084870 1095333 1112939 
3920.458 1136492 1163867 1192406 1218655 1238658 1249092 1248161 1236897 
3924.315 1218788 1199383 1184033 1177023 1179581 1189948 1204334 1218489 
3928.172 1228789 1233076 1231547 1225400 1216296 1205696 1194599 1183203 
3932.030 1171873 1161740 1154431 1151940 1155960 1166591 1183269 1203437 
3935.887 1224237 1243044 1258330 1269163 1276274 1280894 1283419 1284150 
3939.745 1282223 1276075 1264677 1247829 1226264 1203071 1182073 1166956 
3943.602 1160312 1163468 1174465 1190047 1205929 1217758 1222243 1218322 
3947.459 1206726 1190246 1173069 1158983 1151309 1151475 1159415 1173668 
3951.317 1192273 1213006 1233740 1253445 1271157 1286011 1298008 1306915 
3955.174 1312897 1316553 1318348 1319012 1318846 1318314 1316752 1314127 
3959.032 1310006 1303725 1296114 1287540 1279033 1271655 1266936 1265508 
3962.889 1268100 1274912 1285081 1297776 1311800 1325128 1336960 1346399 
3966.747 1353445 1358829 1363782 1369067 1375515 1383393 1392035 1400844 
3970.604 1409287 1416368 1421853 1425842 1427804 1427804 1425742 1421953 
3974.461 1417133 1412977 1410883 1412778 1419792 1432059 1448415 1467265 
3978.319 1486382 1503206 1516539 1525383 1529506 1529506 1526248 1520495 
3982.176 1513380 1505533 1497321 1489274 1481561 1474280 1467797 1462910 
3986.034 1459685 1458987 1460882 1464572 1469060 1472817 1474413 1473150 
3989.891 1469692 1465004 1461447 1460981 1464439 1471986 1481827 1492034 
3993.749 1500113 1504835 1505566 1503039 1498418 1492898 1487014 1481295 
3997.606 1475211 1468429 1460882 1452803 1444525 1436680 1429067 
##END=
