
##TITLE=Z316_1_c
##JCAMP-DX=5.01  $$ Nicolet v. 1
##DATATYPE=INFRARED SPECTRUM
##ORIGIN=UniL
##OWNER=Nicolet
##LONGDATE=2011/09/09
##TIME=12:14:19
##SPECTROMETER/DATA SYSTEM=Nicolet iS5
##DATA PROCESSING=
Ratio against background
%Transmittance->Absorbance
Truncated
ElementMultiply or ElementDivide
##COMMENTS=
Number of sample scans: 32
Collection length: 51.22 sec
Sample gain: 2.0
Background collected on: Ven Sep 09 12:03:29 2011 (GMT+02:00);
Number of background scans: 32
Background gain: 2.0
Sample spacing:  1.000
Number of scan points: 12415
Resolution points: 8192
Number of FFT points: 65536
Apodization: N-B fort;
Phase correction: Mertz;
Laser frequency: 15798.0 cm-1
Number of rejected sample scans: 0
Number of rejected background scans: 0
Bench serial number: ASB1000141;
##RESOLUTION=4.000
##XUNITS=1/CM
##YUNITS=ABSORBANCE
##FIRSTX=649.893372
##LASTX=4000.122314
##FIRSTY=0.064015
##MAXX=4000.122314
##MINX=649.893372
##MAXY=0.238915
##MINY=-0.003500
##XFACTOR=1.000000
##YFACTOR=1.000000E-009
##NPOINTS=6950
##DELTAX=0.482117
##ZPD=6100
##XYDATA=(X++(Y..Y))
649.893 64014948 63980856 64003200 64096824 64252996 64444856 64640992 
653.268 64820944 64984084 65148124 65336368 65565476 65835752 66131128 
656.643 66424892 66692384 66920652 67108548 67263224 67395120 67510608 
660.018 67612688 67701664 67778344 67845280 67904664 67954216 67985568 
663.393 67984704 67932984 67811032 67601960 67289528 66859892 66306144 
666.767 65643048 64918124 64215428 63629472 63214860 62964784 62821360 
670.142 62711516 62566528 62338276 62004804 61568524 61054572 60496820 
673.517 59930084 59375896 58838504 58310760 57783612 57253856 56727768 
676.892 56218380 55737308 55288008 54865680 54457356 54049564 53636832 
680.267 53222916 52820436 52445768 52111956 51825592 51585228 51383748 
683.642 51210696 51057456 50915156 50775660 50631772 50476248 50304040 
687.016 50115868 49918344 49723316 49544500 49393108 49271804 49176540 
690.391 49095880 49017604 48933376 48840968 48744020 48649688 48564528 
693.766 48490796 48426928 48368960 48312484 48255680 48199436 48145388 
697.141 48094268 48044080 47990084 47927772 47853892 47769256 47677908 
700.516 47585472 47495348 47408124 47320364 47226816 47122988 47007596 
703.890 46883408 46755712 46629940 46508776 46391440 46274356 46152736 
707.265 46024524 45891004 45757272 45630532 45518032 45426388 45361240 
710.640 45329500 45342044 45413108 45558808 45792320 46114420 46507076 
714.015 46927296 47313820 47591756 47688264 47552236 47162952 46538828 
717.390 45732384 44827604 43927088 43130448 42535772 42222560 42240600 
720.765 42606852 43292188 44217944 45248960 46214908 46935084 47239192 
724.139 47020296 46252576 45004452 43417912 41679232 39977932 38452508 
727.514 37182284 36180624 35413908 34824600 34354952 33965348 33631332 
730.889 33341038 33087126 32858912 32643072 32429408 32212746 31996976 
734.264 31792186 31609836 31455704 31329046 31222258 31126032 31034382 
737.639 30945242 30860140 30781066 30706238 30629396 30542580 30439680 
741.013 30319644 30188842 30057974 29936196 29829252 29737238 29655670 
744.388 29580292 29509678 29446380 29395358 29359622 29337500 29322364 
747.763 29304852 29276672 29234566 29180630 29121134 29062180 29007236 
751.138 28955804 28905618 28855828 28808594 28769118 28742672 28730354 
754.513 28727876 28726742 28718070 28697540 28669470 28644446 28635632 
757.888 28652268 28696442 28762178 28840568 28924992 29015276 29118228 
761.262 29244490 29401242 29589976 29805262 30040576 30293174 30571696 
764.637 30894862 31292260 31797462 32441370 33250994 34244440 35426056 
768.012 36780360 38266072 39818148 41349656 42785324 44091032 45309380 
771.387 46570032 48073724 50043956 52626460 55816204 59383456 62904724 
774.762 65789676 67423328 67370200 65460980 61880648 57083700 51709612 
778.136 46396492 41629596 37725936 34784104 32741244 31433120 30669718 
781.511 30286956 30157090 30202020 30374966 30644294 30989116 31397178 
784.886 31866524 32406166 33032562 33763500 34610112 35578332 36671752 
788.261 37897532 39274336 40832244 42606084 44633312 46944980 49565296 
791.636 52518308 55832592 59543304 63691660 68307992 73394632 78902480 
795.010 84723080 90678064 96514576 101946112 106652104 110312448 112672952 
798.385 113564528 112956416 110966488 107861944 104018040 99832304 95705200 
801.760 91952648 88760152 86183968 84142264 82457088 80887936 79211008 
805.135 77269488 75004432 72471208 69813704 67226784 64882772 62897212 
808.510 61297412 60022520 58944412 57905580 56771868 55448580 53902680 
811.885 52153652 50257016 48281412 46286924 44324344 42429736 40628412 
815.259 38942444 37390604 35987064 34741028 33654068 32720842 31931498 
818.634 31276594 30747742 30340038 30050304 29875178 29810550 29853032 
822.009 30001626 30261130 30642552 31162734 31840354 32690082 33718804 
825.384 34920536 36275348 37744404 39270384 40780264 42179072 43366212 
828.759 44247512 44746864 44832196 44523384 43897324 43069596 42183928 
832.133 41390696 40811860 40537392 40607092 41004964 41658592 42444204 
835.508 43210960 43784028 44002544 43753168 42982380 41716544 40048920 
838.883 38127796 36114332 34152636 32357364 30792058 29477442 28402458 
842.258 27540064 26858366 26327574 25923928 25625806 25411982 25263616 
845.633 25163574 25100274 25068962 25069734 25105050 25176250 25282370 
849.008 25420590 25588726 25787516 26021084 26294554 26611840 26971702 
852.382 27367994 27790718 28230402 28681752 29145442 29627326 30136562 
855.757 30683410 31277306 31928752 32651362 33462416 34384540 35444068 
859.132 36666020 38075740 39696180 41548104 43651672 46021464 48658136 
862.507 51535008 54586656 57702016 60713548 63426928 65635956 67145056 
865.882 67815840 67576792 66439524 64493172 61896084 58853640 55572792 
869.256 52257156 49076660 46147100 43543456 41296308 39402748 37839396 
872.631 36572296 35567580 34791608 34216404 33818256 33575232 33468786 
876.006 33484030 33609852 33840856 34175468 34613448 35152280 35784988 
879.381 36497184 37270004 38080988 38906964 39729292 40532808 41308112 
882.756 42051220 42761852 43442740 44096972 44725964 45328104 45898516 
886.131 46431188 46923420 47380220 47819152 48267972 48761368 49335200 
889.505 50013764 50806200 51702408 52677596 53694984 54714720 55701676 
892.880 56623832 57453540 58166968 58738732 59144192 59361728 59373084 
896.255 59168188 58745556 58114084 57292984 56311240 55211060 54041160 
899.630 52854528 51705392 50637208 49680816 48851940 48150644 47566508 
903.005 47084880 46692916 46382224 46150084 45996968 45924148 45931884 
906.379 46018924 46184244 46429268 46758404 47179056 47699136 48324408 
909.754 49057520 49898008 50843896 51894028 53049580 54313860 55692108 
913.129 57189712 58812856 60571324 62479704 64561292 66847952 69374800 
916.504 72178496 75288968 78723264 82481928 86542856 90859952 95349024 
919.879 99886384 104312552 108421320 111998752 114854880 116853984 117965960 
923.254 118282968 118031784 117525904 117144840 117286408 118278832 
926.146 120368240 123668952 128144712 133596512 139664144 145883568 
929.039 151667328 156390192 159487408 160467360 159022928 155072160 
931.932 148766624 140476608 130726504 120160072 109406288 99023176 89474104 
935.306 81054264 73924312 68131864 63636912 60354248 58181476 57023844 
938.681 56788560 57375180 58665336 60486916 62610536 64773864 66676468 
942.056 68040864 68663072 68427296 67338704 65508484 63137600 60461936 
945.431 57710796 55086800 52724392 50696372 49022244 47681828 46634072 
948.806 45830944 45230424 44796636 44501396 44323388 44243588 44245528 
952.181 44316420 44445820 44627324 44856920 45131416 45446912 45797656 
955.555 46175772 46573868 46986220 47409636 47843864 48290044 48748804 
958.930 49219476 49698944 50183888 50672020 51163348 51660532 52167328 
962.305 52686796 53219508 53763600 54315288 54870416 55427160 55985484 
965.680 56546680 57111968 57680940 58252176 58823744 59395232 59969144 
969.055 60550524 61146184 61761416 62400056 63062884 63749412 64460380 
972.429 65198824 65969952 66780320 67634520 68533864 69476000 70456120 
975.804 71469704 72514512 73591128 74701024 75844120 77016216 78208064 
979.179 79406264 80596200 81764688 82899872 83992040 85031424 86006736 
982.554 86906640 87720456 88442160 89071952 89617072 90089448 90502016 
985.929 90867592 91197824 91502304 91792656 92082104 92383792 92710680 
989.304 93071096 93467776 93898656 94358744 94843848 95352192 95884944 
992.678 96443896 97029848 97639864 98268352 98908368 99554776 100205696 
996.053 100862568 101527264 102200096 102877384 103552904 104219456 
998.946 104872984 105514232 106148392 106783136 107425008 108078072 
1001.839 108743944 109423768 110121168 110843600 111600952 112403360 
1004.731 113257664 114165392 115124304 116131152 117185544 118291840 
1007.624 119458632 120695664 122009424 123400992 124865584 126394256 
1010.517 127978992 129612328 131288168 132999720 134735888 136481680 
1013.409 138222480 139947360 141655984 143360880 145086528 146861328 
1016.302 148712064 150659248 152713440 154878576 157154432 159538992 
1019.195 162028320 164613456 167279760 170006640 172772480 175563616 
1022.087 178380160 181239696 184170976 187209664 190384656 193711120 
1024.980 197189280 200806208 204541520 208367424 212250288 216144976 
1027.873 219986656 223696016 227180608 230342192 233096448 235373776 
1030.766 237121808 238306896 238907056 238914736 238340848 237222688 
1033.659 235625888 233632096 231333984 228810608 226112176 223258624 
1036.552 220240144 217031344 213601968 209931008 206012528 201857952 
1039.446 197496288 192976288 188369456 183759760 179241456 174904048 
1042.339 170808208 166977568 163388416 159978816 156659536 153339104 
1045.232 149950816 146461120 142879008 139247312 135634176 132116064 
1048.125 128762040 125633120 122770872 120196952 117915008 115910936 
1051.018 114156384 112612056 111237200 109992752 108846400 107776872 
1053.911 106769872 105815424 104904792 104026840 103167888 102315328 
1056.804 101457784 100587216 99698936 98788592 97850464 96877952 95864200 
1060.179 94805432 93703944 92568736 91414488 90257912 89115640 88001072 
1063.554 86924168 85893336 84915336 83996184 83139400 82343488 81599848 
1066.930 80892368 80201464 79506400 78791392 78049648 77283464 76503816 
1070.305 75725648 74967216 74246072 73577664 72977224 72457392 72027888 
1073.680 71694944 71459744 71317704 71259336 71272024 71340784 71447632 
1077.055 71572880 71691784 71774288 71790200 71710112 71513880 71196560 
1080.431 70770448 70264704 69717408 69173800 68676624 68261776 67961272 
1083.806 67801040 67803176 67989592 68379504 68990248 69836624 70929512 
1087.181 72275064 73872928 75712704 77766824 79981760 82279888 84552080 
1090.556 86667744 88502560 89943912 90920288 91413096 91459112 91144120 
1093.932 90581240 89905976 89248112 88716744 88401224 88358816 88616328 
1097.307 89173736 90006000 91065616 92281256 93568000 94824104 95934152 
1100.682 96787896 97279120 97322104 96868600 95910344 94485128 92665400 
1104.057 90553520 88262544 85896040 83549424 81295480 79182664 77241192 
1107.433 75482056 73902432 72488280 71219040 70070288 69015872 68032328 
1110.808 67098768 66197380 65314496 64438900 63561304 62675452 61778756 
1114.183 60872856 59964088 59062756 58181400 57331852 56524792 55768240 
1117.558 55067164 54425504 53846188 53331324 52882968 52502156 52188176 
1120.934 51938840 51750144 51615456 51524112 51460656 51401724 51314644 
1124.309 51162308 50904240 50504608 49941276 49209384 48324704 47318404 
1127.684 46234628 45120604 44017324 42958716 41966284 41049864 40210680 
1131.059 39443208 38738484 38084496 37469556 36882792 36315620 35763224 
1134.435 35225360 34705428 34209272 33743480 33313670 32923676 32576028 
1137.810 32272846 32016308 31809192 31654418 31553500 31506256 31510212 
1141.185 31562156 31658732 31799104 31983636 32214676 32493786 32820888 
1144.560 33192624 33603588 34046544 34513416 34996776 35489156 35981772 
1147.936 36466048 36931776 37369624 37773428 38140276 38471480 38771524 
1151.311 39046836 39303532 39546992 39781724 40012152 40242304 40476684 
1154.686 40718544 40969388 41227988 41491116 41753896 42010884 42257400 
1158.061 42488816 42699920 42884316 43034000 43139380 43191784 43183808 
1161.437 43110252 42968736 42758124 42477784 42127372 41707136 41219060 
1164.812 40667924 40062220 39412584 38730552 38027820 37313616 36595724 
1168.187 35880744 35175056 34485368 33819440 33184432 32586352 32029506 
1171.562 31516052 31047122 30624064 30249194 29926398 29660106 29454322 
1174.938 29311694 29233610 29220426 29273376 29395180 29590508 29866092 
1178.313 30228412 30684084 31238920 31898048 32668076 33557264 34575056 
1181.688 35731960 37038644 38503520 40134172 41937236 43918292 46081332 
1185.063 48425896 50943544 53612352 56394456 59238512 62075516 64826904 
1188.438 67411952 69743128 71738880 73328728 74454192 75082368 75207912 
1191.814 74856656 74080016 72949864 71551656 69966312 68268600 66519224 
1195.189 64757364 63005112 61268264 59541864 57816012 56082820 54341384 
1198.564 52600840 50880100 49204484 47603624 46104616 44728316 43488408 
1201.939 42389624 41429656 40600724 39892564 39292796 38787900 38362992 
1205.315 38001380 37683724 37391760 37107968 36818192 36513580 36190348 
1208.690 35848608 35491204 35123068 34750040 34379052 34019024 33680204 
1212.065 33373668 33111334 32903980 32761074 32691118 32701872 32800772 
1215.440 32995742 33293244 33698288 34212856 34836052 35564812 36395888 
1218.816 37327484 38360420 39497236 40741360 42095208 43560232 45137040 
1222.191 46828116 48638904 50578460 52658704 54891320 57284100 59839028 
1225.566 62549808 65402156 68370936 71421776 74507848 77565296 80521448 
1228.941 83290896 85782464 87914488 89614144 90827608 91527456 91714240 
1232.317 91423152 90720696 89713080 88535640 87334472 86271536 85497384 
1235.692 85139568 85309752 86090144 87538952 89697232 92587144 96213432 
1239.067 100557152 105574736 111187800 117276464 123695296 130261720 
1241.960 136764608 142991136 148711504 153701552 157771536 160764704 
1244.853 162586592 163212784 162685904 161106256 158609776 155367984 
1247.746 151561760 147370112 142969904 138503248 134066552 129699320 
1250.639 125376808 121020192 116514192 111748616 106639528 101157880 
1253.532 95340360 89286456 83143856 77071560 71233880 65769440 60769988 
1256.908 56288492 52331832 48872188 45857160 43223368 40907820 38849676 
1260.283 37000288 35322784 33789176 32381606 31087376 29896014 28797796 
1263.658 27782240 26838520 25957272 25131624 24358322 23636810 22967772 
1267.033 22351458 21786114 21268268 20793860 20360284 19966862 19615424 
1270.409 19308678 19048642 18835298 18666470 18538612 18449132 18396862 
1273.784 18382898 18409134 18477344 18587580 18737660 18923234 19138108 
1277.159 19374500 19621768 19866124 20091842 20281050 20418764 20495348 
1280.534 20509208 20466206 20376708 20252062 20099720 19921312 19713398 
1283.910 19471244 19192200 18879558 18542590 18195242 17853762 17531698 
1287.285 17239660 16984718 16770905 16600812 16475590 16394585 16354157 
1290.660 16347585 16366301 16401639 16447611 16502365 16568212 16649490 
1294.035 16750276 16872786 17017108 17182398 17368826 17578654 17816478 
1297.411 18088248 18398488 18749976 19143338 19578612 20055996 20576150 
1300.786 21138564 21738736 22365132 22999526 23616238 24187264 24687632 
1304.161 25097396 25405448 25609532 25715020 25733476 25681026 25578674 
1307.536 25449222 25315840 25200584 25118916 25079072 25081528 25120496 
1310.912 25187134 25272326 25369476 25474062 25581908 25688232 25786286 
1314.287 25868112 25926918 25958116 25960614 25936204 25887630 25817228 
1317.662 25726164 25615192 25486608 25345204 25199144 25057272 24927590 
1321.037 24814644 24719232 24639654 24574678 24526120 24500386 24507678 
1324.413 24559426 24666832 24839274 25083284 25404920 25808896 26297264 
1327.788 26866048 27501726 28179488 28861954 29507124 30075976 30536786 
1331.163 30874370 31089228 31196554 31219090 31183594 31117098 31042354 
1334.538 30979900 30947092 30957696 31022318 31147996 31338450 31596224 
1337.914 31925220 32331734 32825104 33415106 34107472 34902688 35793228 
1341.289 36766116 37802348 38880112 39973244 41047240 42062536 42974444 
1344.664 43737048 44315244 44687440 44849500 44812064 44594496 44218200 
1348.039 43699232 43048416 42272116 41375604 40369368 39271580 38107392 
1351.415 36909628 35712788 34548616 33446704 32430838 31519048 30725976 
1354.790 30059962 29522870 29108946 28806082 28598330 28469178 28406774 
1358.165 28404228 28458494 28568392 28731202 28941566 29194306 29486590 
1361.540 29822260 30212214 30672704 31219518 31861570 32600138 33429168 
1364.916 34339104 35319408 36358672 37440332 38534732 39598276 40570456 
1368.291 41377940 41951580 42232384 42182104 41788844 41064360 40042672 
1371.666 38771632 37316832 35756996 34174932 32660610 31293470 30128570 
1375.041 29192394 28480076 27966842 27621128 27420544 27358996 27449838 
1378.417 27721914 28216012 28982476 30073206 31539996 33424124 35736960 
1381.792 38437196 41405712 44455616 47324204 49716184 51364616 52039116 
1385.167 51599672 50020648 47414664 44033384 40219040 36361952 32785084 
1388.542 29689942 27154936 25152270 23599096 22392310 21441314 20673680 
1391.917 20036634 19496956 19034554 18639286 18309380 18047522 17856834 
1395.293 17737948 17687144 17696980 17758830 17863430 18001622 18164354 
1398.668 18340590 18518730 18688920 18843846 18980412 19098116 19197706 
1402.043 19279686 19344118 19392102 19427408 19457382 19492104 19540348 
1405.418 19607070 19691208 19786634 19886380 19986428 20088582 20200720 
1408.794 20332888 20493404 20685634 20906600 21149870 21409010 21682028 
1412.169 21971390 22282812 22620322 22983946 23368120 23765582 24170730 
1415.544 24584216 25014204 25474624 25982070 26549984 27185728 27886952 
1418.919 28641014 29428190 30225216 31008830 31758748 32458652 33100214 
1422.295 33685220 34231892 34774988 35364268 36050564 36872440 37849412 
1425.670 38981048 40257532 41670264 43218612 44904688 46722468 48649464 
1429.045 50637172 52617184 54520836 56291848 57903008 59358576 60688436 
1432.420 61937428 63153692 64388976 65698244 67145992 68814384 70794280 
1435.796 73167176 75978008 79202192 82753640 86519552 90396944 94304440 
1439.171 98162376 101878312 105310064 108266368 110548896 111961832 
1442.064 112363232 111691568 109960400 107253184 103697400 99462736 94732360 
1445.439 89681800 84488848 79314216 74308616 69628368 65411596 61761264 
1448.814 58721056 56266464 54321108 52787472 51585524 50668412 50026516 
1452.190 49672640 49621120 49869580 50397988 51173192 52164116 53356388 
1455.565 54744336 56322440 58062916 59905816 61769400 63580564 65301984 
1458.940 66928072 68471904 69951168 71381000 72770192 74118680 75420088 
1462.315 76653296 77778000 78741224 79480336 79944392 80116544 80023584 
1465.691 79727088 79294048 78781856 78223496 77631496 77007472 76346728 
1469.066 75637456 74855944 73961904 72900400 71614600 70076720 68317848 
1472.441 66444428 64606540 62948152 61559016 60460032 59627908 59027948 
1475.816 58639660 58466308 58529240 58849660 59438584 60288576 61380828 
1479.192 62693828 64215696 65950476 67915552 70135560 72631176 75414608 
1482.567 78488080 81851688 85512760 89493320 93826224 98538872 103633744 
1485.942 109054464 114653136 120200496 125365048 129745960 132941664 
1488.835 134576352 134394544 132333952 128561080 123447440 117458384 
1491.728 111062280 104609792 98300928 92230776 86408328 80815616 75460808 
1495.104 70391904 65706684 61533820 57986456 55125880 52944952 51389644 
1498.479 50381020 49843448 49719936 49967036 50549088 51432536 52575484 
1501.854 53927624 55434164 57023544 58610572 60093744 61325384 62115576 
1505.229 62236436 61459380 59660028 56912588 53495816 49761696 45989784 
1508.604 42322556 38792284 35387740 32102208 28946418 25961456 23201366 
1511.980 20707632 18504520 16589209 14937652 13515910 12288583 11223440 
1515.355 10290083 9462881 8723009 8060843 7478053 6981964 6577898 6260455 
1519.212 6010867 5797620 5588068 5359530 5112873 4874230 4679927 4554212 
1523.070 4495554 4480221 4475333 4454544 4405371 4334249 4260864 4207464 
1526.927 4185483 4191472 4210073 4225129 4228910 4224426 4222252 4232289 
1530.785 4256581 4285726 4302591 4289440 4239349 4163504 4088943 4042989 
1534.642 4040681 4076869 4132795 4184914 4214724 4212951 4179929 4122258 
1538.500 4048240 3963968 3870820 3770840 3672521 3592398 3547031 3544459 
1542.357 3577465 3626544 3667442 3682613 3667475 3633193 3599514 3586084 
1546.214 3601118 3639608 3686221 3724117 3743134 3742900 3732974 3726423 
1550.072 3732673 3750954 3771542 3780466 3766763 3728161 3672120 3611442 
1553.929 3559491 3523915 3502971 3487973 3467065 3429926 3368280 3276962 
1557.787 3153122 3002658 2844008 2706387 2619509 2598142 2637576 2720257 
1561.644 2823197 2924360 3004826 3053874 3070659 3065086 3054008 3053808 
1565.501 3074296 3113674 3161032 3201786 3225519 3228757 3217141 3201986 
1569.359 3195844 3207160 3238238 3287212 3351350 3429458 3520441 3621398 
1573.216 3726223 3824421 3904185 3958284 3989983 4016201 4063658 4157984 
1577.074 4309585 4513097 4754288 5019780 5303948 5609582 5945024 6320227 
1580.931 6741417 7209370 7719784 8265951 8841042 9437078 10042205 10638160 
1584.789 11197362 11687400 12079114 12351885 12501974 12543682 12509340 
1588.164 12442436 12392044 12409909 12540136 12819509 13273494 13911090 
1591.539 14719669 15658895 16664296 17644560 18494770 19119272 19436868 
1594.914 19401732 19010772 18303436 17353514 16250230 15090355 13956595 
1598.290 12910875 11997663 11240781 10648414 10217517 9937574 9795010 
1601.665 9777320 9876319 10087714 10408374 10833041 11350795 11943474 
1605.040 12588465 13257233 13917830 14536775 15074814 15491023 15748249 
1608.415 15814703 15673220 15323695 14784799 14091668 13291567 12441175 
1611.791 11592990 10789527 10058752 9409684 8837932 8329885 7869968 7444143 
1615.648 7045237 6676406 6349544 6080282 5881475 5756722 5699445 5696087 
1619.505 5728317 5777002 5826532 5865220 5889670 5904583 5922150 5955706 
1623.363 6015234 6102862 6213026 6337037 6466867 6598755 6731894 6867094 
1627.220 7004221 7141190 7274967 7403123 7526092 7646735 7768558 7893351 
1631.078 8018922 8138858 8242954 8320427 8361162 8357953 8308066 8214150 
1634.935 8087038 7943730 7804686 7687710 7601785 7545848 7511224 7485874 
1638.792 7456412 7411718 7345224 7256773 7152743 7042643 6936376 6838886 
1642.650 6748619 6657530 6554182 6427453 6269565 6079509 5864414 5640094 
1646.507 5426324 5243344 5106369 5021690 4987368 4994842 5031143 5079448 
1650.365 5118170 5123132 5066575 4927209 4704445 4435798 4189765 4025465 
1654.222 3962463 3979350 4040313 4113059 4177956 4226032 4255510 4268459 
1658.080 4267723 4255410 4231687 4196089 4147815 4087070 4014863 3933741 
1661.937 3846951 3759477 3677500 3608235 3557487 3528758 3521175 3529359 
1665.794 3544124 3555182 3551340 3524516 3471674 3395963 3306108 3214236 
1669.652 3132496 3068924 3026981 3005360 2999488 3002524 3004927 2996319 
1673.509 2965725 2905813 2817161 2712189 2612575 2539247 2504520 2505986 
1677.367 2530715 2560877 2581542 2585642 2575143 2559311 2548912 2550445 
1681.224 2561044 2568743 2554778 2501921 2402522 2268538 2129968 2023763 
1685.082 1972568 1975198 2013111 2064144 2111322 2144286 2159470 2157538 
1688.939 2141422 2115184 2083954 2054024 2032252 2023930 2031420 2051161 
1692.796 2073899 2085152 2070071 2017805 1929833 1822280 1724567 1665025 
1696.654 1654847 1684450 1728858 1759564 1751180 1690005 1581713 1455031 
1700.511 1351484 1302661 1315822 1374485 1454100 1530703 1588298 1618129 
1704.369 1619027 1596745 1562226 1529174 1508293 1504835 1518367 1544436 
1708.226 1576925 1610480 1642474 1672376 1702113 1734048 1769877 1809337 
1712.083 1850962 1892226 1931430 1968274 2003558 2037845 2070204 2096572 
1715.941 2110789 2107693 2086883 2055788 2029156 2022931 2046866 2101034 
1719.798 2177185 2263076 2346718 2419681 2478493 2524516 2561877 2595808 
1723.656 2630309 2667346 2706487 2746532 2786313 2824598 2860150 2890736 
1727.513 2913352 2925227 2925327 2915787 2901410 2887501 2876561 2865420 
1731.371 2844708 2798852 2711088 2571843 2386030 2180016 1993106 1862043 
1735.228 1801651 1802982 1842011 1892359 1933959 1953297 1945608 1914091 
1739.085 1868466 1821282 1783518 1761926 1757169 1765918 1783418 1804978 
1742.943 1827304 1848966 1869930 1891427 1915355 1943012 1974698 2009782 
1746.800 2045868 2079925 2108958 2130700 2143087 2145651 2137826 2120678 
1750.658 2096905 2071602 2051560 2043071 2049263 2069205 2096539 2121477 
1754.515 2132199 2119812 2079825 2015708 1937987 1861178 1797858 1753077 
1758.373 1723536 1699319 1669382 1624049 1559234 1477804 1388346 1302129 
1762.230 1229321 1176325 1144199 1130080 1128652 1133502 1138153 1136060 
1766.087 1122074 1094337 1055440 1012064 973840 948735 939105 940334 942392 
1770.427 933626 905735 858721 802053 753159 728963 737394 775996 834553 
1774.767 900422 963545 1019769 1069590 1115995 1161408 1205863 1246301 
1778.624 1279033 1300966 1312166 1315922 1317550 1320907 1327487 1334832 
1782.481 1338788 1335996 1326091 1311900 1298972 1293456 1298939 1316054 
1786.339 1342444 1374485 1408822 1442763 1473947 1499349 1514477 1513779 
1790.196 1491934 1446420 1378739 1296746 1212408 1136924 1079057 1040760 
1794.054 1018972 1008079 1002998 1000075 997285 993500 987157 976197 958597 
1798.393 932929 899492 860846 820377 782170 748845 721662 699990 683264 
1802.733 671118 663585 661726 665874 675365 688872 704736 721496 738688 
1807.073 756180 774137 791929 807929 819714 826087 826685 823564 819946 
1811.412 819514 824228 834254 847467 861079 872732 881331 887838 893981 
1815.752 902182 913272 927815 945348 964608 985396 1007348 1030331 1053946 
1820.091 1077529 1099452 1118221 1132339 1140046 1140213 1132073 1115397 
1823.949 1091912 1065471 1041490 1025748 1022127 1030630 1046805 1063645 
1827.806 1072746 1068527 1050159 1023854 1000009 990477 1003297 1039166 
1831.664 1092476 1153701 1213604 1266505 1311036 1349091 1384656 1421587 
1835.521 1461713 1505766 1553381 1605159 1663196 1731220 1812431 1908899 
1839.378 2019769 2141622 2268871 2395659 2516284 2626642 2724758 2811358 
1843.236 2891370 2973332 3066855 3180924 3319297 3479022 3650969 3823518 
1847.093 3984265 4123429 4236505 4322670 4384987 4426894 4450092 4453507 
1850.951 4433890 4387397 4312630 4211880 4090749 3956712 3816331 3674259 
1854.808 3531564 3388382 3244847 3102627 2965158 2836337 2718090 2610142 
1858.666 2509019 2410085 2310308 2208356 2105562 2004656 1908533 1817355 
1862.523 1730821 1648029 1569143 1496556 1433821 1383194 1344704 1314360 
1866.380 1285613 1251617 1208820 1158950 1109551 1070520 1050027 1050890 
1870.238 1070188 1100183 1132638 1161774 1184831 1201543 1212973 1219452 
1874.095 1220416 1215100 1202773 1183834 1160112 1133303 1103837 1070753 
1877.953 1031460 983968 927882 865361 800095 735469 673938 614043 552795 
1882.292 486680 414107 337402 261672 193081 136102 91426 55569 22796 -12524 
1887.114 -53110 -97800 -142254 -181536 -210449 -226180 -228730 -218993 
1890.971 -198593 -169513 -134569 -96906 -61127 -31840 -11232 1093 8880 18290 
1895.793 34029 58054 88675 120094 146212 163845 172496 175480 177667 182441 
1900.615 190628 200573 209325 215126 218772 223878 233923 251825 277321 
1904.955 306465 334617 356502 369402 373315 370066 361510 349439 334583 
1909.294 316678 296849 276624 257262 240221 225303 211247 196893 181844 
1913.634 166729 153437 142731 132854 118735 93845 51758 -9376 -85146 -165704 
1918.456 -238896 -296051 -335551 -362831 -387594 -419042 -462139 -515028 
1922.313 -571020 -621580 -660720 -687616 -706075 -721358 -737368 -754336 
1926.170 -769154 -778118 -779771 -776861 -774843 -779970 -795614 -820683 
1930.028 -851008 -881001 -907090 -930003 -953378 -981480 -1016951 -1057873 
1933.885 -1099485 -1137029 -1167497 -1190826 -1211280 -1232096 -1254496 
1937.260 -1276334 -1293711 -1303060 -1305901 -1308676 -1320304 -1349570 
1940.636 -1399511 -1465462 -1536916 -1599809 -1643383 -1664475 -1667644 
1944.011 -1660085 -1650447 -1642921 -1636979 -1629684 -1618692 -1604431 
1947.386 -1590566 -1582213 -1582741 -1592744 -1611033 -1633579 -1658897 
1950.761 -1687580 -1720749 -1759229 -1800807 -1839808 -1868709 -1883258 
1954.137 -1883819 -1878211 -1878475 -1897114 -1942209 -2015762 -2111560 
1957.512 -2219666 -2330415 -2435699 -2531207 -2615199 -2685312 -2738359 
1960.887 -2771185 -2782510 -2775004 -2756896 -2738886 -2729864 -2735165 
1964.262 -2753966 -2781950 -2813983 -2847429 -2883570 -2924778 -2973155 
1967.638 -3026364 -3078974 -3124966 -3160526 -3188189 -3215685 -3251138 
1971.013 -3299184 -3357811 -3417712 -3465969 -3494236 -3500449 -3491771 
1974.388 -3479643 -3471425 -3467250 -3458178 -3429349 -3368956 -3275277 
1977.763 -3157598 -3033307 -2920400 -2830344 -2764798 -2719591 -2687288 
1981.139 -2662425 -2645070 -2637067 -2638615 -2648232 -2658935 -2661668 
1984.514 -2650834 -2625738 -2590794 -2554463 -2523531 -2499285 -2478497 
1987.889 -2453985 -2420575 -2378133 -2332919 -2292084 -2263013 -2246993 
1991.264 -2238950 -2230149 -2212150 -2181359 -2140048 -2094446 -2051017 
1994.640 -2013024 -1980009 -1948047 -1914895 -1882137 -1853566 -1836178 
1998.015 -1834331 -1848155 -1872899 -1903448 -1934853 -1967278 -2006758 
2001.390 -2059426 -2129794 -2217523 -2315024 -2411612 -2499021 -2572941 
2004.765 -2635717 -2694467 -2755283 -2820172 -2886302 -2946203 -2993426 
2008.141 -3027713 -3053213 -3077527 -3107662 -3145789 -3187531 -3226308 
2011.516 -3254789 -3271035 -3276921 -3278565 -3279749 -3281986 -3283136 
2014.891 -3278270 -3265905 -3248014 -3230222 -3217691 -3211936 -3207199 
2018.266 -3192760 -3158848 -3100096 -3022350 -2940410 -2872215 -2832879 
2021.642 -2829159 -2855691 -2899665 -2947025 -2985792 -3010241 -3021330 
2025.017 -3021757 -3013663 -2999217 -2978453 -2953574 -2931656 -2921388 
2028.392 -2930373 -2962197 -3012643 -3069104 -3118288 -3147631 -3149802 
2031.767 -3126710 -3083580 -3026002 -2958149 -2879884 -2789654 -2687848 
2035.143 -2578508 -2466735 -2360009 -2261826 -2171666 -2086631 -2002372 
2038.518 -1917732 -1834331 -1756589 -1688141 -1629882 -1579077 -1529751 
2041.893 -1476986 -1420119 -1361495 -1307718 -1264507 -1234078 -1213659 
2045.268 -1198261 -1181012 -1157121 -1125561 -1086992 -1042635 -992620 
2048.644 -935293 -870023 -799053 -728271 -666112 -620091 -592794 -579756 
2052.501 -572377 -558214 -528431 -481535 -423346 -364222 -315056 -282574 
2056.358 -265554 -258534 -252838 -242440 -224988 -202964 -179052 -155867 
2060.216 -132979 -107837 -78156 -45358 -12988 12591 25513 24553 13717 0 
2065.038 -9111 -8681 662 15473 30749 43606 55403 69984 91293 120889 156288 
2070.342 191159 219038 235315 239393 235116 227922 221524 218043 216949 
2074.681 216253 215457 216187 220662 231237 248344 268435 286405 298143 
2079.021 300696 296020 288428 282327 280503 283421 288295 292174 293998 
2083.360 294926 298408 308123 325796 349837 376632 401405 420077 432083 
2087.700 438020 439181 436760 429530 415832 394242 365456 331931 298640 
2092.040 269828 248045 233260 223480 216319 210750 208032 209722 218109 
2096.379 232497 249438 264059 271850 270623 261771 249703 238564 232232 
2100.719 232199 237702 247581 261738 281034 307858 343371 387111 436329 
2105.058 487542 537402 584181 629240 674270 720865 769291 817689 863635 
2109.398 905967 945879 986692 1032589 1086331 1147422 1212375 1276241 
2113.255 1333935 1383958 1426972 1465869 1503405 1540679 1576060 1606722 
2117.113 1630002 1645435 1655047 1663495 1674039 1688841 1707435 1726895 
2120.970 1743995 1757701 1768114 1777696 1789806 1805144 1823544 1842843 
2124.828 1860479 1874655 1885171 1891893 1893757 1889364 1874688 1846004 
2128.685 1801684 1742464 1672442 1597643 1523455 1453302 1388578 1328584 
2132.542 1272187 1221114 1177688 1144000 1121443 1106561 1093207 1074141 
2136.400 1044081 1001869 952056 902281 858887 825888 802385 783033 762918 
2140.740 738389 708951 677755 648187 620646 593571 561819 519255 461935 
2145.079 388703 299900 198186 86090 -34424 -160769 -288435 -411859 -523732 
2149.419 -619892 -700584 -773057 -847867 -938038 -1052452 -1191851 -1350330 
2153.276 -1518294 -1686028 -1849277 -2009495 -2169985 -2331997 -2489599 
2156.651 -2627747 -2726077 -2766707 -2742112 -2658474 -2535686 -2396125 
2160.027 -2259915 -2137311 -2028030 -1927035 -1830668 -1736689 -1647344 
2163.402 -1566168 -1493431 -1426394 -1361792 -1296024 -1228924 -1165845 
2166.777 -1113465 -1077374 -1059625 -1056518 -1059724 -1062368 -1058831 
2170.152 -1047957 -1033644 -1020917 -1013744 -1014174 -1021545 -1032289 
2173.528 -1044486 -1055989 -1065244 -1072780 -1078299 -1082530 -1088182 
2176.903 -1099915 -1123281 -1162904 -1220168 -1288921 -1358489 -1414538 
2180.278 -1443964 -1440430 -1406281 -1350660 -1287897 -1230576 -1184680 
2183.653 -1150446 -1124735 -1101666 -1078266 -1055394 -1034603 -1017116 
2187.029 -1002174 -985546 -961412 -926928 -880307 -823725 -761216 -695621 
2190.886 -627734 -558049 -486631 -416195 -352668 -304064 -275753 -270422 
2194.743 -282839 -304196 -323201 -331214 -324658 -307275 -285587 -266912 
2198.601 -255222 -250255 -247904 -243003 -232075 -213761 -190313 -164744 
2202.458 -139306 -115423 -93229 -72524 -53176 -36247 -21635 -9310 2120 14778 
2207.280 29887 45727 59877 68360 68460 61136 51526 46091 52255 74988 114029 
2212.584 165270 222518 279045 330770 376400 415135 447672 474241 493712 
2216.924 506716 515075 521710 531132 547752 572535 604686 641517 679082 
2221.263 715289 749840 783166 815664 846637 872665 889100 894180 886743 
2225.603 869379 847002 824062 803514 785456 768561 750936 733378 718243 
2229.942 709282 710311 722126 741974 765772 788112 806070 820178 833590 
2234.282 849525 870972 898231 928712 959428 988219 1014289 1038933 1064043 
2238.622 1090118 1115862 1139581 1158451 1172305 1182837 1193569 1208421 
2242.479 1230019 1258230 1290996 1325659 1359926 1392601 1424280 1454931 
2246.336 1483955 1508891 1526547 1534860 1533629 1525849 1516306 1510886 
2250.194 1514444 1529041 1555044 1590892 1634592 1685016 1740768 1799422 
2254.051 1857351 1908732 1947339 1968141 1969473 1952964 1924441 1891660 
2257.909 1860945 1837453 1822945 1816557 1816191 1820250 1826738 1834824 
2261.766 1844241 1854123 1864173 1874389 1885271 1897684 1913591 1933161 
2265.624 1956558 1982720 2010015 2037379 2065177 2094375 2126405 2161934 
2269.481 2199897 2237197 2270703 2297384 2315438 2326297 2331694 2335359 
2273.338 2339922 2346552 2355446 2366141 2377568 2389095 2400623 2411751 
2277.196 2421447 2429277 2434708 2437774 2440439 2444904 2453701 2468563 
2281.053 2489957 2516517 2546179 2577309 2608242 2639077 2670180 2701719 
2284.911 2733228 2763204 2790148 2812692 2830734 2845175 2857882 2870957 
2288.768 2885700 2902778 2921758 2942173 2963090 2984075 3004927 3025079 
2292.625 3044365 3062150 3078267 3093183 3107967 3123752 3141741 3162066 
2296.483 3184329 3207661 3230860 3253093 3274559 3295525 3316091 3335724 
2300.340 3352886 3365408 3371586 3370784 3363171 3350449 3334522 3316859 
2304.198 3298196 3278632 3258000 3236769 3216707 3199182 3186298 3179055 
2308.055 3176485 3176786 3177453 3176118 3171746 3164970 3156927 3149417 
2311.913 3143943 3140973 3140706 3142742 3146680 3151987 3158195 3164036 
2315.770 3167807 3168308 3164369 3156125 3145112 3133364 3123252 3116110 
2319.627 3112405 3111104 3111471 3112239 3113006 3113807 3113841 3111504 
2323.485 3104563 3090247 3066721 3034054 2994417 2951447 2909816 2873292 
2327.342 2843641 2820929 2803821 2790215 2779277 2770840 2765872 2765305 
2331.200 2769473 2777743 2788681 2801153 2814426 2828766 2845275 2864086 
2335.057 2885033 2907147 2928763 2948445 2966126 2982340 2998721 3016270 
2338.915 3035222 3054542 3072761 3088311 3100625 3110236 3118846 3128024 
2342.772 3139405 3153889 3172613 3197780 3233130 3283372 3352886 3444086 
2346.629 3555817 3683080 3817033 3947784 4064962 4159456 4224761 4257384 
2350.487 4257484 4228241 4176584 4111788 4043022 3978915 3925482 3885162 
2354.344 3857715 3840667 3831474 3827763 3828766 3834850 3846951 3866641 
2358.202 3894724 3931668 3977811 4032755 4096402 4168287 4247379 4331505 
2362.059 4419162 4507941 4596169 4683645 4770133 4855935 4941117 5024439 
2365.917 5103921 5177650 5243880 5302171 5353089 5398209 5438603 5475176 
2369.774 5508430 5538061 5564977 5590350 5616228 5645431 5680611 5723718 
2373.631 5776129 5839125 5913349 6000184 6100880 6216152 6346081 6489502 
2377.489 6644543 6808997 6980954 7159379 7344213 7535700 7733613 7936677 
2381.346 8142774 8348799 8550969 8746471 8932895 9108200 9271355 9420688 
2385.204 9554628 9671330 9769118 9846627 9903335 9939608 9956118 9954728 
2389.061 9937167 9906386 9865133 9816429 9762205 9703754 9640465 9570954 
2392.918 9493630 9407618 9313668 9214628 9115068 9019794 8932997 8857816 
2396.776 8794853 8744240 8705599 8678793 8664697 8664426 8678658 8707188 
2400.633 8748871 8801852 8864477 8935906 9016648 9108098 9211751 9328326 
2404.491 9457429 9597782 9747567 9905200 10070316 10242959 10424053 10614934 
2408.348 10816226 11028316 11251118 11484072 11726444 11976920 12233301 
2411.723 12492289 12750272 13002637 13244867 13473356 13684697 13875819 
2415.099 14044574 14188266 14305295 14394851 14457158 14494601 14510257 
2418.474 14508681 14493402 14467811 14433762 14391838 14341800 14283380 
2421.849 14216339 14140957 14058743 13971480 13882284 13794784 13712771 
2425.224 13640382 13581269 13537992 13512628 13505963 13518473 13550571 
2428.600 13602944 13676285 13771389 13888579 14027360 14186726 14365533 
2431.975 14562849 14777943 15010978 15261744 15529310 15812572 16109120 
2435.350 16416710 16734745 17063180 17403934 17759832 18133362 18526270 
2438.725 18939328 19372804 19826482 20301048 20797650 21317648 21861790 
2442.101 22429710 23019406 23628554 24254460 24895728 25551580 26222500 
2445.476 26908420 27608982 28322700 29047158 29779888 30518976 31262528 
2448.851 32008852 32755676 33499494 34236124 34961364 35671740 36364868 
2452.226 37039872 37695976 38331324 38942844 39525000 40070612 40572640 
2455.602 41023244 41415700 41744412 42003840 42188712 42294872 42318248 
2458.977 42256012 42107584 41873048 41553900 41152468 40671312 40113928 
2462.352 39484608 38789168 38034508 37229428 36383964 35508248 34613376 
2465.727 33710964 32811526 31926430 31066376 30240562 29457088 28722282 
2469.103 28040140 27413168 26842574 26328630 25871560 25470656 25124604 
2472.478 24830398 24583444 24377494 24204782 24057666 23929474 23814442 
2475.853 23709064 23610604 23517308 23427914 23340882 23254916 23168930 
2479.228 23082056 22993066 22901264 22805432 22704314 22596866 22483130 
2482.604 22363808 22241030 22117416 21995822 21878306 21766430 21660190 
2485.979 21559096 21462618 21369678 21279786 21192764 21107882 21024826 
2489.354 20943454 20862898 20783226 20704574 20626666 20549468 20472494 
2492.729 20394662 20315040 20232586 20146122 20055198 19959298 19857384 
2496.104 19748628 19631960 19506244 19371176 19227212 19075404 18917246 
2499.480 18755132 18590728 18425622 18261344 18098920 17939530 17784270 
2502.855 17633586 17487782 17346686 17209666 17075896 16945234 16817640 
2506.230 16693596 16574064 16459484 16350063 16245276 16144298 16045853 
2509.605 15949288 15853638 15757905 15661437 15563308 15462592 15358638 
2512.981 15251071 15140100 15026379 14910528 14792787 14673742 14554043 
2516.356 14434447 14317075 14204425 14098821 14002413 13916633 13841268 
2519.731 13775151 13717216 13666471 13622569 13586295 13558399 13539120 
2523.106 13528421 13525173 13527805 13535428 13547529 13564108 13585509 
2526.482 13611287 13640143 13669890 13697827 13721560 13739822 13752373 
2529.857 13760136 13764206 13765438 13763898 13759623 13752510 13742832 
2533.232 13732024 13722107 13714584 13711369 13713215 13720055 13731170 
2536.607 13746046 13763659 13783770 13806036 13829980 13855807 13883858 
2539.983 13914477 13948965 13988452 14033452 14083967 14138835 14195831 
2543.358 14252665 14307247 14358444 14405880 14450375 14492614 14533211 
2546.733 14572958 14611713 14649889 14687759 14725942 14764333 14803037 
2550.108 14840956 14876512 14908847 14937036 14961282 14982648 15002472 
2553.484 15021920 15042054 15062568 15083048 15103082 15121985 15139620 
2556.859 15155815 15169950 15180588 15186558 15185597 15176127 15156981 
2560.234 15127817 15088468 15039825 14982202 14916426 14843596 14765328 
2563.609 14683030 14598725 14514129 14430474 14348649 14269169 14192751 
2566.985 14120384 14054020 13995432 13946638 13909037 13882421 13865864 
2570.360 13857995 13856901 13861177 13869968 13882729 13898911 13918514 
2573.735 13941027 13965868 13993550 14024519 14059119 14098239 14142018 
2577.110 14190046 14241401 14295159 14350499 14407148 14465345 14525058 
2580.486 14586972 14651122 14717510 14786685 14859230 14936076 15017942 
2583.861 15105415 15197916 15294418 15393618 15493873 15594836 15696064 
2587.236 15798002 15900515 16003052 16104307 16202420 16295876 16383780 
2590.611 16466437 16545253 16621707 16697211 16772764 16848156 16923218 
2593.987 16997396 17070760 17143380 17216044 17289204 17363170 17438286 
2597.362 17515002 17593802 17675998 17763008 17855730 17954898 18060302 
2600.737 18171022 18286398 18405678 18528518 18655540 18787344 18924064 
2604.112 19065884 19212390 19363034 19517298 19675156 19836540 20001832 
2607.488 20171112 20343964 20519906 20698040 20877290 21056544 21234342 
2610.863 21408976 21578108 21739466 21890502 22029250 22154374 22265304 
2614.238 22361786 22444050 22511988 22565594 22605140 22631004 22644268 
2617.613 22646538 22639520 22624930 22604546 22579206 22550378 22519318 
2620.989 22487526 22456646 22427828 22401974 22379122 22358714 22340052 
2624.364 22323030 22308204 22297008 22291044 22292020 22300950 22317588 
2627.739 22341132 22370296 22403928 22441678 22483550 22530136 22582138 
2631.114 22640324 22704384 22774318 22849572 22929312 23012560 23098234 
2634.490 23185322 23272640 23359658 23446100 23532420 23620016 23710044 
2637.865 23803452 23900974 24002232 24106630 24212908 24320054 24426912 
2641.240 24532710 24637304 24740138 24841554 24941626 25040950 25140402 
2644.615 25240790 25342886 25447466 25554602 25664364 25776722 25891746 
2647.990 26009370 26129944 26253720 26380946 26511806 26646294 26784562 
2651.366 26926786 27073500 27224956 27381722 27543876 27711390 27884584 
2654.741 28063644 28248824 28440594 28639774 28846058 29058992 29277772 
2658.116 29501166 29728436 29959520 30194490 30433958 30678252 30927204 
2661.491 31179962 31434938 31690952 31946760 32201826 32456364 32710660 
2664.867 32964856 33219266 33473618 33727864 33982404 34237772 34494800 
2668.242 34754740 35018000 35285016 35555680 35829824 36107488 36388716 
2671.617 36673844 36963128 37256212 37552060 37849448 38146460 38441392 
2674.992 38733232 39020844 39303640 39580820 39852068 40116728 40375000 
2678.368 40627904 40876944 41125036 41375496 41631712 41896804 42173884 
2681.743 42464992 42772016 43096528 43439556 43802276 44185260 44588880 
2685.118 45013388 45458428 45923560 46407776 46909428 47426600 47956856 
2688.493 48498392 49049396 49609232 50178088 50756736 51346568 51948400 
2691.869 52563220 53191160 53832536 54487892 55157180 55841108 56539436 
2695.244 57250984 57974456 58707624 59448648 60196344 60950400 61711228 
2698.619 62479436 63255564 64039296 64829944 65626128 66426508 67229960 
2701.994 68035048 68840464 69643968 70442832 71233488 72011976 72774304 
2705.370 73516400 74233888 74922408 75576960 76192104 76762728 77284216 
2708.745 77753344 78167680 78525952 78827104 79070592 79256072 79383904 
2712.120 79455352 79472544 79438400 79355384 79225168 79047936 78822416 
2715.495 78546992 78220088 77841536 77412776 76936344 76415856 75854888 
2718.871 75257168 74626344 73967088 73284672 72585624 71877688 71168456 
2722.246 70465392 69775576 69105104 68459528 67844464 67264848 66725148 
2725.621 66229180 65779232 65376348 65020256 64710288 64445204 64224148 
2728.996 64046288 63910796 63816340 63761228 63743612 63760884 63811420 
2732.372 63893444 64005620 64146860 64315468 64509852 64727596 64965956 
2735.747 65222620 65494964 65780468 66076496 66379876 66686744 66993520 
2739.122 67296536 67592864 67880448 68157800 68423840 68677592 68918360 
2742.497 69145312 69358704 69559992 69751640 69936840 70119392 70302608 
2745.873 70488976 70680096 70876736 71078992 71286384 71498256 71713000 
2749.248 71928600 72142384 72351936 72555000 72750680 72939320 73122904 
2752.623 73303928 73486024 73672344 73866568 74071648 74290344 74524216 
2755.998 74774072 75039560 75318832 75608592 75904728 76202608 76497256 
2759.374 76784120 77058584 77315616 77550640 77759016 77936312 78078992 
2762.749 78184584 78250752 78275984 78258808 78197512 78091560 77940720 
2766.124 77746728 77513136 77245304 76949792 76633408 76303120 75964472 
2769.499 75622664 75282104 74946616 74620008 74305592 74006256 73724568 
2772.875 73462280 73220312 72999208 72798640 72617584 72454376 72306176 
2776.250 72169536 72040056 71912680 71782304 71642816 71487944 71311184 
2779.625 71105304 70864328 70583608 70260456 69896096 69494584 69062800 
2783.000 68608936 68141472 67668016 67194376 66724836 66261792 65806800 
2786.375 65360332 64922280 64492136 64069212 63652752 63242452 62838316 
2789.751 62440872 62050860 61669180 61296460 60932824 60578256 60232844 
2793.126 59896684 59570400 59254652 58949912 58656156 58372604 58097912 
2796.501 57830624 57569324 57313628 57062952 56817412 56576496 56339452 
2799.876 56104840 55870688 55635084 55396556 55154020 54906848 54654404 
2803.252 54396024 54131188 53858864 53578688 53291052 52997204 52699252 
2806.627 52399676 52101160 51806176 51516688 51234292 50960576 50696112 
2810.002 50442084 50198620 49966072 49744084 49531796 49328516 49133388 
2813.377 48945612 48764704 48590356 48422448 48261568 48108408 47964512 
2816.753 47832176 47714776 47615604 47538448 47487140 47464520 47473096 
2820.128 47514900 47590944 47702020 47847824 48027464 48239424 48480980 
2823.503 48748876 49039416 49348232 49670488 50000716 50332836 50660220 
2826.878 50975404 51271540 51542060 51780944 51984176 52148272 52270720 
2830.254 52350444 52386516 52379152 52329404 52239408 52112148 51951388 
2833.629 51761568 51547020 51312032 51060740 50797336 50524968 50246788 
2837.004 49964880 49680664 49395008 49107788 48818980 48528548 48236572 
2840.379 47943608 47649728 47355204 47059472 46761728 46460944 46156460 
2843.755 45848288 45537352 45225540 44915524 44610472 44313408 44027660 
2847.130 43755956 43500496 43263304 43045632 42848296 42671624 42515528 
2850.505 42379760 42263716 42167204 42089768 42030960 41989900 41965372 
2853.880 41955484 41958256 41971504 41993368 42022348 42056984 42096048 
2857.256 42137888 42180348 42220772 42255464 42281064 42293776 42290304 
2860.631 42267736 42223912 42157092 42066076 41950520 41810004 41645136 
2864.006 41457544 41249408 41024228 40786596 40542520 40297884 40059604 
2867.381 39833944 39626080 39440812 39281732 39151580 39051984 38983984 
2870.757 38947264 38940092 38959192 39000364 39058112 39127432 39204156 
2874.132 39285576 39370860 39460224 39554940 39655776 39763244 39876656 
2877.507 39995224 40117708 40243536 40372276 40504036 40638964 40776736 
2880.882 40916844 41058240 41200368 41342696 41485212 41628356 41772392 
2884.258 41917496 42062976 42208028 42351412 42491888 42628272 42760060 
2887.633 42886404 43006780 43120936 43228568 43329524 43424136 43512948 
2891.008 43596644 43676220 43751960 43824560 43894168 43960928 44025464 
2894.383 44088024 44149604 44211120 44273600 44337812 44404824 44475296 
2897.759 44549632 44627912 44710064 44795168 44882164 44970020 45057196 
2901.134 45142772 45225168 45302760 45373380 45434552 45483412 45517964 
2904.509 45536508 45538748 45525504 45498756 45460160 45411416 45353404 
2907.884 45286800 45211928 45129688 45041060 44947752 44851704 44753952 
2911.260 44655600 44556348 44455804 44353368 44248760 44141976 44033932 
2914.635 43925440 43817160 43709416 43602432 43496320 43390924 43286840 
2918.010 43184536 43085076 42989364 42898692 42814688 42739184 42674512 
2921.385 42623084 42587336 42568480 42566724 42580760 42607404 42642016 
2924.760 42679560 42714140 42740168 42753224 42749092 42725472 42681532 
2928.136 42618184 42538072 42445412 42345752 42245240 42150224 42067352 
2931.511 42002676 41961980 41950884 41974496 42037568 42144492 42298340 
2934.886 42501388 42754320 43056244 43404436 43794216 44220144 44675172 
2938.261 45152368 45645180 46147800 46656168 47167344 47679168 48189624 
2941.637 48696088 49194092 49677212 50136660 50560928 50937176 51251404 
2945.012 51489868 51641500 51698748 51660008 51529896 51319752 51046500 
2948.387 50729556 50389836 50046560 49714028 49402764 49117548 48859064 
2951.762 48624784 48410484 48212064 48025760 47849080 47680940 47520960 
2955.138 47369396 47226300 47091192 46963144 46840632 46722172 46606364 
2958.513 46492508 46380492 46270416 46162912 46058380 45956596 45857680 
2961.888 45761872 45669400 45581288 45499012 45423884 45357124 45300004 
2965.263 45253004 45216712 45192040 45179576 45180128 45193916 45220020 
2968.639 45256280 45299416 45344944 45388128 45424620 45450924 45464756 
2972.014 45464976 45451808 45426976 45393424 45356092 45320524 45292612 
2975.389 45277020 45275364 45284776 45296876 45298976 45274664 45205864 
2978.764 45076860 44875732 44596484 44239808 43813128 43329600 42805216 
2982.140 42258604 41708560 41171044 40660320 40186544 39755832 39370680 
2985.515 39031176 38735588 38481688 38267776 38092308 37953180 37845796 
2988.890 37762080 37687192 37602064 37482776 37303328 37042252 36684340 
2992.265 36225104 35671920 35043536 34367252 33671936 32986448 32333556 
2995.641 31726878 31171918 30666376 30203050 29772400 29365152 28974506 
2999.016 28596102 28227856 27869532 27521708 27184494 26857554 26539982 
3002.391 26230244 25927022 25629180 25336318 25048812 24767462 24493234 
3005.766 24227308 23970508 23723166 23485376 23257048 23037680 22827084 
3009.142 22624756 22430094 22242286 22060414 21883220 21709648 21539282 
3012.517 21371872 21207970 21048788 20895334 20748918 20610476 20480656 
3015.892 20359556 20247272 20143344 20047218 19958084 19874656 19795096 
3019.267 19717836 19640730 19561906 19479870 19393036 19300296 19200442 
3022.643 19092854 18977504 18855196 18727906 18598888 18472364 18352998 
3026.018 18244688 18150394 18071046 18006042 17952652 17907002 17864328 
3029.393 17819550 17767770 17704608 17626754 17532318 17420936 17293928 
3032.768 17154030 17004496 16849258 16691461 16533997 16378792 16227528 
3036.144 16081337 15941177 15807830 15681807 15563412 15452601 15349267 
3039.519 15253130 15164221 15082396 15007137 14938098 14874180 14813665 
3042.894 14755318 14697870 14640430 14583065 14526154 14470038 14414922 
3046.269 14360533 14306460 14252426 14198366 14144756 14092283 14041767 
3049.645 13993413 13946502 13899527 13850436 13797314 13738625 13673139 
3053.020 13600756 13521926 13437129 13347667 13254979 13161046 13067988 
3056.395 12978534 12894116 12816233 12745051 12680124 12620186 12564112 
3059.770 12510704 12459486 12410182 12362555 12316500 12271781 12228121 
3063.146 12186103 12146235 12109300 12076184 12047227 12021950 11999163 
3066.521 11977703 11956315 11934347 11912006 11889938 11868894 11849076 
3069.896 11830110 11810634 11789559 11765524 11737779 11706701 11672867 
3073.271 11637572 11601940 11566821 11532828 11500437 11469851 11441003 
3076.646 11413754 11387733 11362427 11337224 11311615 11285498 11258599 
3080.022 11231260 11203720 11176045 11147964 11119341 11089699 11058768 
3083.397 11026379 10992495 10957086 10920151 10881928 10842859 10803759 
3086.772 10765444 10729544 10696703 10667668 10642268 10619654 10598603 
3090.147 10578232 10557930 10537764 10518278 10500457 10485012 10472453 
3093.523 10462610 10455279 10449814 10445945 10443501 10442279 10442178 
3096.898 10443094 10444554 10446149 10447743 10449271 10450901 10453140 
3100.273 10456365 10460947 10466853 10473845 10481584 10489493 10497164 
3103.648 10504327 10510776 10516853 10522997 10529481 10536745 10545199 
3107.024 10554501 10564380 10574089 10583019 10590455 10596294 10600504 
3110.399 10603187 10604714 10605529 10606073 10607125 10609570 10614561 
3113.774 10623151 10635986 10653134 10673577 10695481 10716944 10735929 
3117.149 10750839 10760960 10766565 10768365 10767176 10763983 10759568 
3120.525 10754677 10750058 10746526 10744521 10744657 10746866 10751009 
3123.900 10756681 10763610 10771524 10780389 10790070 10800464 10810791 
3127.275 10819962 10826858 10830629 10830867 10828285 10824175 10820234 
3130.650 10818264 10819453 10824583 10833890 10846834 10863242 10882268 
3134.026 10903163 10925383 10948184 10970645 10992359 11012852 11031681 
3137.401 11048606 11063357 11075458 11085212 11093031 11099999 11107851 
3140.776 11118661 11133890 11154287 11179411 11207596 11237008 11265672 
3144.151 11292367 11317090 11340727 11364195 11388821 11414911 11442227 
3147.527 11470327 11498667 11526941 11555388 11584653 11614940 11646182 
3150.902 11678244 11710376 11742171 11773593 11804983 11837125 11870665 
3154.277 11906250 11944223 11984448 12026447 12069813 12114342 12159319 
3157.652 12204129 12248400 12291651 12333749 12375441 12417717 12461941 
3161.028 12509817 12562202 12619675 12682171 12748804 12818894 12891556 
3164.403 12965664 13040604 13115078 13188199 13258873 13326142 13389936 
3167.778 13450354 13508014 13563664 13617509 13669377 13718482 13763830 
3171.153 13804360 13839558 13869832 13895626 13918241 13938495 13957314 
3174.529 13974901 13991531 14007033 14021200 14033930 14045121 14054670 
3177.904 14062987 14070448 14077943 14086225 14096390 14109191 14124560 
3181.279 14142189 14161085 14180221 14198707 14216407 14234177 14253282 
3184.654 14275333 14302008 14333821 14370534 14410710 14452602 14494224 
3188.030 14534068 14571381 14606606 14641492 14677477 14716688 14760563 
3191.405 14809448 14863208 14920849 14981413 15043564 15106821 15170465 
3194.780 15234187 15297713 15360251 15421118 15479897 15536075 15589925 
3198.155 15642511 15694587 15747460 15801610 15857486 15914986 15974037 
3201.531 16034234 16095882 16159086 16224055 16290614 16358458 16426655 
3204.906 16494278 16560776 16625425 16688500 16750379 16811646 16873026 
3208.281 16935482 16999672 17066246 17135590 17207288 17280758 17354686 
3211.656 17427524 17497822 17564750 17628618 17690078 17750650 17811816 
3215.031 17874720 17939842 18007044 18075950 18146078 18216906 18288506 
3218.407 18360464 18432608 18504728 18576478 18647794 18718842 18790248 
3221.782 18862774 18937044 19013158 19090880 19169274 19247406 19324786 
3225.157 19401076 19476614 19552374 19628840 19706430 19785316 19864806 
3228.532 19944172 20022720 20099582 20173992 20245500 20313894 20379208 
3231.908 20441684 20502468 20562740 20623852 20686990 20753160 20822258 
3235.283 20894152 20967308 21040720 21113102 21183268 21250906 21316116 
3238.658 21379772 21443228 21508296 21575880 21647060 21721666 21798864 
3242.033 21877226 21955532 22032980 22109570 22185966 22263038 22341762 
3245.409 22422070 22503580 22585454 22667518 22749736 22833298 22919740 
3248.784 23010462 23105606 23204300 23304312 23403052 23498282 23588740 
3252.159 23675262 23759144 23842410 23927022 24014524 24105194 24198824 
3255.534 24295000 24393264 24493164 24593998 24694996 24795350 24894254 
3258.910 24991566 25087426 25182430 25277452 25372814 25468440 25563634 
3262.285 25657650 25749966 25840894 25931560 26023158 26117030 26213524 
3265.660 26312050 26411194 26509552 26605992 26700588 26793654 26886316 
3269.035 26979458 27073040 27166752 27259634 27350810 27440272 27528414 
3272.411 27616502 27706092 27798456 27894370 27993734 28095986 28200206 
3275.786 28304344 28407624 28508344 28605976 28700476 28792910 28884620 
3279.161 28977694 29074152 29174604 29279472 29387310 29496592 29605192 
3282.536 29711834 29815908 29918058 30019732 30122354 30227596 30336236 
3285.912 30448566 30564300 30682910 30803476 30925496 31048830 31173376 
3289.287 31299204 31426742 31556028 31686888 31818818 31951432 32084194 
3292.662 32217134 32350764 32486464 32625750 32769934 32919280 33073790 
3296.037 33231608 33390954 33550210 33708100 33864500 34020348 34176684 
3299.413 34334408 34494116 34655684 34818820 34983308 35149472 35318152 
3302.788 35490556 35667748 35850728 36039980 36235440 36437108 36644640 
3306.163 36858012 37076788 37300296 37528040 37759188 37993316 38229960 
3309.538 38469776 38712912 38960024 39211412 39467080 39726968 39991264 
3312.914 40260480 40535392 40816848 41105332 41400500 41701592 42007088 
3316.289 42315872 42627360 42941888 43260376 43584152 43914296 44251036 
3319.664 44593876 44942056 45294268 45649820 46007616 46367180 46727484 
3323.039 47087648 47446704 47804248 48160084 48514952 48869664 49224484 
3326.415 49579332 49932800 50282872 50627268 50964188 51292420 51612204 
3329.790 51924384 52229916 52529940 52824664 53113640 53395764 53669184 
3333.165 53931524 54180136 54412924 54627988 54824776 55003752 55166588 
3336.540 55315032 55450992 55575204 55687136 55785420 55867708 55931924 
3339.916 55976628 56000864 56004220 55986844 55948284 55888964 55809044 
3343.291 55708944 55590040 55453136 55298960 55126824 54935536 54722876 
3346.666 54486688 54226568 53943116 53638820 53316824 52980436 52631996 
3350.041 52272704 51902168 51519972 51125104 50717524 50297864 49867420 
3353.417 49427788 48980588 48527736 48070948 47612608 47154644 46699444 
3356.792 46248556 45802996 45363336 44928972 44499888 44075628 43656068 
3360.167 43241708 42833152 42430904 42035524 41647248 41266320 40892708 
3363.542 40526696 40168480 39817968 39475172 39139576 38811012 38489036 
3366.917 38173592 37864704 37562824 37268200 36981272 36701896 36430120 
3370.293 36165500 35907988 35656704 35411032 35170276 34933748 34700688 
3373.668 34470944 34244548 34021568 33802248 33586904 33375208 33167228 
3377.043 32963138 32763180 32568316 32379072 32195974 32018378 31845026 
3380.418 31673346 31500448 31323992 31142550 30955810 30764848 30571446 
3383.794 30377738 30185752 29997116 29813318 29635592 29465208 29302832 
3387.169 29148454 29000718 28857494 28715698 28572214 28424746 28272198 
3390.544 28114616 27953486 27791000 27628966 27469074 27312206 27158816 
3393.919 27008756 26861642 26716902 26573618 26431336 26289238 26147432 
3397.295 26006308 25867164 25730980 25598952 25471428 25347980 25227270 
3400.670 25107578 24987566 24866324 24743258 24618614 24492218 24364210 
3404.045 24234420 24103160 23971104 23839294 23709450 23583074 23461314 
3407.420 23343678 23229188 23116020 23001940 22885860 22767160 22646676 
3410.796 22525600 22405254 22286824 22170692 22056754 21944240 21832452 
3414.171 21720866 21608786 21496110 21382906 21269520 21156374 21044058 
3417.546 20932676 20822050 20711662 20600190 20487324 20372750 20257408 
3420.921 20142826 20031394 19924884 19824470 19729938 19639898 19552408 
3424.297 19465630 19378138 19289386 19199750 19109302 19018316 18926590 
3427.672 18833500 18738492 18641740 18543454 18444708 18346880 18250458 
3431.047 18155924 18062928 17970782 17878794 17787652 17697188 17608502 
3434.422 17522212 17438422 17357136 17277792 17199636 17122078 17044846 
3437.798 16967800 16890972 16814196 16737396 16659888 16581498 16501574 
3441.173 16420186 16337333 16253291 16168440 16083296 15998101 15912922 
3444.548 15827658 15741792 15654946 15566949 15478318 15390048 15303856 
3447.923 15221730 15144938 15074300 15009023 14947632 14887518 14826282 
3451.299 14762346 14694819 14624151 14550925 14476135 14400400 14323752 
3454.674 14245955 14167110 14087594 14008435 13930934 13856251 13785070 
3458.049 13717388 13652213 13587970 13523362 13457327 13389388 13319889 
3461.424 13249752 13179592 13110571 13042994 12976794 12911695 12847016 
3464.800 12782108 12716561 12650171 12583485 12516877 12451029 12386214 
3468.175 12322056 12257397 12190873 12121190 12047943 11971403 11893344 
3471.550 11816048 11741456 11671199 11605513 11543614 11483970 11425150 
3474.925 11366066 11306242 11246086 11186210 11126785 11067775 11008332 
3478.301 10947300 10883695 10816327 10745031 10670351 10593238 10515257 
3481.676 10438376 10364325 10294697 10230204 10170671 10114776 10061126 
3485.051 10007483 9952151 9894148 9832900 9769153 9703822 9638094 9572783 
3488.908 9508600 9445848 9384560 9325042 9267022 9210431 9155573 9102007 
3492.766 9049633 8998618 8948826 8899987 8852236 8805098 8757932 8710434 
3496.623 8662162 8613186 8563946 8514981 8466630 8418521 8370012 8319786 
3500.481 8266323 8208951 8147669 8083527 8018517 7954698 7893756 7836972 
3504.338 7785019 7737491 7693949 7653614 7615407 7577980 7540016 7499864 
3508.196 7456682 7410032 7360355 7308999 7257885 7208360 7161939 7119060 
3512.053 7079385 7042812 7009104 6977991 6949405 6922673 6896347 6868979 
3515.910 6838448 6803544 6764033 6721025 6676271 6632094 6590445 6551794 
3519.768 6515568 6480152 6443830 6405259 6364069 6320933 6276691 6232824 
3523.625 6189869 6148027 6106794 6064892 6021719 5976836 5930614 5883961 
3527.483 5838790 5796276 5757863 5724121 5694510 5667989 5643115 5618410 
3531.340 5593002 5566286 5538666 5510410 5481820 5452527 5422164 5389822 
3535.198 5355202 5318405 5280235 5242170 5205550 5171011 5138622 5107575 
3539.055 5076934 5045624 5013411 4980530 4948055 4916486 4886595 4858281 
3542.912 4831141 4803836 4774991 4743099 4706957 4666161 4620582 4571926 
3546.770 4522538 4474998 4432518 4396903 4368119 4344122 4321532 4296902 
3550.627 4267020 4230951 4189799 4146978 4106369 4071484 4043992 4023792 
3554.485 4009044 3996905 3985235 3971892 3955475 3935346 3910805 3881384 
3558.342 3847218 3808677 3767197 3725153 3685152 3649031 3618191 3592866 
3562.199 3571919 3554280 3538011 3520641 3499698 3471774 3433566 3382105 
3566.057 3316793 3240073 3158061 3079702 3012934 2963991 2934034 2920223 
3569.914 2916554 2916321 2913719 2905313 2889702 2867221 2839605 2808423 
3573.772 2774775 2739796 2704387 2669413 2636076 2605475 2577876 2552778 
3577.629 2529048 2505120 2479626 2453035 2425912 2400023 2376601 2357112 
3581.487 2341421 2329395 2320102 2312507 2305545 2297650 2286591 2269205 
3585.344 2241627 2200163 2143586 2073566 1995169 1917119 1849165 1798224 
3589.201 1768114 1758000 1763057 1776365 1790937 1800220 1799754 1787577 
3593.059 1764321 1732617 1696658 1660535 1627674 1600037 1577557 1558369 
3596.916 1540845 1522657 1502674 1480730 1457358 1433821 1411415 1390772 
3600.774 1371925 1355007 1339818 1326490 1316021 1309341 1307380 1310803 
3604.631 1318514 1328019 1335630 1336527 1325859 1300567 1260091 1207092 
3608.489 1147156 1087527 1034250 990843 957701 931899 909719 887639 864332 
3612.828 841392 822535 811315 810485 819714 835615 852380 863635 863602 
3617.168 848529 817589 773075 720367 666903 618887 582024 559099 549842 
3621.507 552264 563478 580332 600638 623201 647258 672412 697434 718608 
3625.847 730191 724383 692655 628775 532658 414207 292937 192054 130866 
3630.187 115918 141372 192551 254113 312466 358990 390063 407176 414572 
3634.526 417557 420011 424090 429198 433908 436495 436263 433609 429563 
3638.866 424886 420608 416562 412051 407143 402002 398254 397558 401869 
3643.205 411620 425815 442067 456197 462963 457921 437423 399117 343139 
3647.545 271784 188772 99778 11331 -68217 -130296 -166102 -169414 -138610 
3651.885 -77394 5334 97690 185789 256102 298971 308919 287267 242940 189866 
3656.706 142102 110184 97756 102164 117476 136964 156056 172264 184894 
3661.046 194076 199943 202562 201302 196429 189236 181479 175745 173690 
3665.385 175181 178198 178894 171701 150951 111908 52487 -25114 -113171 
3669.725 -198361 -264262 -298004 -293700 -256083 -197036 -134569 -87431 
3673.583 -70768 -94024 -155867 -241910 -326777 -385111 -402392 -380344 
3677.440 -332604 -276183 -226511 -191406 -172097 -163816 -159908 -154112 
3681.297 -143016 -126652 -107307 -86868 -66097 -44198 -20145 5467 29689 
3685.637 46390 48676 29490 -14181 -80243 -160306 -242274 -314096 -367433 
3689.977 -399843 -413051 -410469 -395010 -369022 -334326 -293037 -248533 
3693.834 -205746 -168586 -140233 -121386 -110256 -103266 -96740 -88425 
3697.691 -78619 -70337 -67853 -75572 -96078 -128739 -169480 -211840 -248500 
3702.031 -272806 -281647 -274528 -254394 -225451 -191869 -157556 -125361 
3705.888 -96641 -72060 -51984 -36247 -24551 -17593 -15638 -19714 -30647 
3710.228 -48803 -72888 -100417 -126520 -145036 -151131 -141459 -115953 
3714.085 -77559 -31774 15507 58419 92453 115752 127651 130335 125861 117012 
3718.907 105379 91790 76645 59976 43308 28264 17130 11597 11199 13949 16501 
3724.211 14612 5367 -11663 -34159 -56788 -73087 -76300 -63049 -33232 9012 
3729.033 56961 102561 138025 157812 159868 146112 121287 91790 62064 32903 
3733.855 2087 -34027 -77228 -124764 -169414 -201606 -213198 -200878 -167824 
3738.194 -120657 -66428 -10205 45031 98651 149062 191225 216982 213004 
3742.534 166199 68659 -73418 -234293 -374253 -452573 -450852 -377630 -261150 
3746.874 -134801 -26208 44070 67300 45130 -10304 -82164 -152919 -209985 
3751.213 -248036 -265256 -262209 -239128 -197102 -139505 -72358 -3976 57292 
3755.553 104782 135274 148664 148134 137693 121287 100672 76712 51062 26706 
3760.375 8614 2451 11100 33201 63853 94972 118503 129606 128048 118934 
3765.196 110018 108792 118636 137627 158674 172795 173027 155923 123541 
3769.536 83406 45793 20112 12491 24486 52686 91525 134047 174121 206805 
3774.358 229812 242443 246487 244465 238265 229447 218176 203291 184662 
3778.697 163116 141737 125132 118039 123176 139914 164707 192418 216883 
3783.037 234055 241780 240288 231834 219402 206142 194142 185291 180783 
3787.376 181877 189137 202032 218971 236774 252289 263296 269131 271618 
3791.716 273508 277453 284250 291975 296319 292572 277884 253184 223414 
3796.056 197954 186054 193811 220828 260511 301226 329311 332726 304177 
3800.395 244730 165635 86157 29158 11199 36217 96298 175215 254046 314589 
3805.217 343868 336507 296750 238564 181247 143792 136268 158608 202595 
3809.557 257560 313395 363864 407507 445516 479581 510033 533553 544202 
3813.896 535477 502337 446279 376400 309317 262931 249703 270855 317440 
3818.236 373481 420707 443394 431719 384922 313163 235945 176076 148929 
3822.575 159171 199214 255140 311571 356071 382502 390162 384591 373879 
3826.915 366683 368573 379981 397458 415235 428103 432946 429463 420508 
3831.255 410658 404755 406015 415865 433211 454870 475534 490594 494044 
3835.594 481605 451387 404854 347648 288494 237901 204518 192319 200706 
3839.934 224839 258389 294893 328714 356735 376599 387012 388206 381805 
3844.273 370729 359288 352689 354844 368242 392981 427075 467209 509933 
3848.613 552430 592476 627481 653563 663751 648950 598912 506119 372387 
3852.953 213336 59413 -56125 -111349 -102338 -42144 49306 152675 254809 
3857.292 347018 425516 489665 539525 575720 598780 609431 608867 599145 
3861.632 582091 559099 530866 497361 459314 420110 386282 365953 365953 
3865.971 388836 429894 478686 520914 542942 535544 497726 438352 374775 
3870.311 326095 304144 310278 336042 368573 395601 410194 412416 408635 
3874.651 408204 419381 445947 485784 531895 574559 604686 615403 603292 
3878.990 570346 523203 472615 430591 406711 405551 425251 457590 490926 
3883.330 513881 517165 496698 456230 407143 365821 346620 357995 397724 
3887.669 456429 519587 572801 605416 611455 591613 553293 508839 470227 
3892.009 447374 444621 460276 489400 525724 563843 600074 632458 659802 
3896.349 681339 695974 702479 699857 688739 670587 649116 628742 612151 
3900.688 600605 592111 582588 567293 543638 511824 476065 443692 422200 
3905.028 417490 431486 461669 502602 548316 592940 632027 663817 687478 
3909.367 703574 713298 718011 719604 719903 721595 726474 736033 749741 
3913.707 765308 779415 788012 787813 777622 758603 734042 708552 686217 
3918.047 670023 661162 659802 665377 677058 694713 716617 740812 764246 
3922.386 782900 793290 793389 783431 766370 747052 730158 719405 716484 
3926.726 720168 727835 736664 744231 749110 751135 750537 747650 742538 
3931.065 735303 726275 716584 707988 702413 701550 705997 714261 724649 
3935.405 734473 741941 746289 748645 750272 753790 760428 770187 781672 
3939.745 792095 798435 798335 790999 777058 759366 741941 728665 722558 
3944.084 725080 734938 749342 764478 776294 781771 779381 769457 754155 
3948.424 736896 720799 708917 702844 702744 707855 716916 727968 739717 
3952.763 751201 761756 770984 778950 785788 791398 795912 798833 799929 
3957.103 798867 795547 789871 782402 774004 764909 756379 748712 742240 
3961.443 737327 735004 735966 741144 751301 765872 783697 802717 820079 
3965.782 833623 842122 845342 844711 842122 839599 838437 839366 841657 
3970.122 844645 847666 850090 851916 853542 854937 856364 857692 859087 
3974.461 860913 864299 870507 880866 896106 915895 938541 962084 983836 
3978.801 1001271 1012895 1018175 1017112 1010835 1000474 987223 972046 
3982.658 955775 938441 920975 903776 887639 873894 863768 858257 857891 
3986.998 861975 868947 876716 882925 886079 885747 883057 879903 878442 
3991.338 880800 887042 896737 907860 918651 927184 933327 937113 939769 
3995.677 942293 945049 947739 949465 948735 944451 936283 924495 910184 
4000.017 894910 880268 
##END=
