
##TITLE=Z316_2_b
##JCAMP-DX=5.01  $$ Nicolet v. 1
##DATATYPE=INFRARED SPECTRUM
##ORIGIN=UniL
##OWNER=Nicolet
##LONGDATE=2011/09/09
##TIME=12:54:06
##SPECTROMETER/DATA SYSTEM=Nicolet iS5
##DATA PROCESSING=
Ratio against background
%Transmittance->Absorbance
Truncated
ElementMultiply or ElementDivide
##COMMENTS=
Number of sample scans: 32
Collection length: 51.20 sec
Sample gain: 2.0
Background collected on: Ven Sep 09 12:34:57 2011 (GMT+02:00);
Number of background scans: 32
Background gain: 2.0
Sample spacing:  1.000
Number of scan points: 12415
Resolution points: 8192
Number of FFT points: 65536
Apodization: N-B fort;
Phase correction: Mertz;
Laser frequency: 15798.0 cm-1
Number of rejected sample scans: 0
Number of rejected background scans: 0
Bench serial number: ASB1000141;
##RESOLUTION=4.000
##XUNITS=1/CM
##YUNITS=ABSORBANCE
##FIRSTX=649.893372
##LASTX=4000.122314
##FIRSTY=0.092207
##MAXX=4000.122314
##MINX=649.893372
##MAXY=0.266165
##MINY=0.001236
##XFACTOR=1.000000
##YFACTOR=1.000000E-009
##NPOINTS=6950
##DELTAX=0.482117
##ZPD=6100
##XYDATA=(X++(Y..Y))
649.893 92206848 92159240 92191936 92292648 92427864 92561192 92666496 
653.268 92746696 92828624 92953656 93153496 93439664 93796160 94191520 
656.643 94592888 94979944 95350424 95713248 96074968 96431080 96762472 
660.018 97043360 97252176 97380024 97432104 97421656 97363024 97264528 
663.393 97125936 96942936 96706704 96405592 96021688 95529656 94898808 
666.767 94110864 93185120 92198856 91275136 90520952 89977664 89609784 
670.142 89337656 89067192 88716616 88237256 87613176 86866776 86042240 
673.517 85192496 84356120 83547376 82760864 81981736 81199240 80414296 
676.892 79637488 78883808 78163392 77478320 76824616 76197832 75598408 
680.267 75033528 74513552 74045000 73626448 73247608 72893232 72549400 
683.642 72210112 71878360 71564240 71278424 71025608 70803792 70605288 
687.016 70421832 70248264 70085944 69939328 69813240 69707720 69617432 
690.391 69532848 69446136 69353808 69259096 69169800 69093920 69035264 
693.766 68991176 68953504 68911288 68856776 68785536 68697264 68593568 
697.141 68475432 68342048 68193264 68030632 67860344 67691824 67535800 
700.516 67398760 67280944 67175384 67070500 66955292 66823020 66673496 
703.890 66512464 66347904 66185304 66026852 65870808 65713816 65553912 
707.265 65392220 65231436 65074792 64922936 64773708 64623804 64472108 
710.640 64322880 64187960 64084836 64030812 64038180 64106420 64218036 
714.015 64337292 64417960 64406848 64256036 63933984 63430496 62761820 
717.390 61966776 61106248 60255836 59490028 58884188 58500048 58377000 
720.765 58528712 58931624 59524152 60199352 60821400 61246172 61334808 
724.139 60997184 60207228 59014968 57531912 55909576 54306012 52839448 
727.514 51579780 50542540 49701100 49008108 48416408 47894732 47427192 
730.889 47009812 46641744 46318112 46029016 45762572 45508948 45264552 
734.264 45031356 44813132 44611536 44423944 44243844 44064664 43883208 
737.639 43701136 43523932 43357316 43203312 43059284 42918368 42773260 
741.013 42620852 42462580 42304440 42152856 42012820 41884364 41765060 
744.388 41650932 41539644 41431152 41326552 41225656 41126020 41022444 
747.763 40909712 40786092 40654064 40520588 40394092 40280764 40181416 
751.138 40092016 40006412 39919844 39832384 39748864 39675596 39617368 
754.513 39574284 39541368 39511716 39479492 39443856 39407832 39376304 
757.888 39352216 39334584 39320076 39305240 39291456 39286524 39302700 
761.262 39353120 39444620 39575884 39738008 39920896 40118580 40336824 
764.637 40592104 40911788 41326952 41866480 42554156 43404400 44417924 
768.012 45576656 46838636 48141016 49401464 50547156 51540532 52408684 
771.387 53252956 54236552 55544024 57300128 59510584 62006216 64466648 
774.762 66446164 67484712 67260440 65653996 62811480 59078472 54938284 
778.136 50871980 47243144 44286260 42069876 40540008 39568260 39010296 
781.511 38743848 38676108 38751744 38937192 39208004 39546376 39938696 
784.886 40378896 40869884 41420036 42039504 42735088 43510420 44368340 
788.261 45315816 46369428 47554676 48901740 50442680 52205216 54211252 
791.636 56481432 59036944 61902772 65104008 68656904 72556648 76761032 
795.010 81187144 85704312 90130472 94261088 97868272 100724160 102648048 
798.385 103521368 103326280 102153272 100205152 97764264 95127712 92591368 
801.760 90379808 88610680 87291112 86315672 85503760 84629016 83491152 
805.135 81960920 80007056 77706224 75216536 72741280 70455416 68475312 
808.510 66829092 65460592 64251080 63058056 61765392 60299120 58644588 
811.885 56836180 54939376 53026968 51158504 49379972 47718440 46188192 
815.259 44796600 43546824 42437920 41464800 40617860 39885448 39255840 
818.634 38721860 38281200 37936544 37691352 37547872 37504664 37557588 
822.009 37702300 37938172 38269656 38707732 39266500 39958856 40792496 
825.384 41765496 42863436 44055716 45295624 46522528 47658496 48623152 
828.759 49343104 49763408 49866120 49675540 49261152 48721892 48176300 
832.133 47746028 47528764 47593936 47967288 48625820 49494400 50449564 
835.508 51342688 52003036 52276180 52057268 51303124 50050276 48400780 
838.883 46508220 44535756 42626336 40891908 39392772 38147180 37141712 
842.258 36347036 35728828 35254468 34897484 34634692 34444868 34310844 
845.633 34218664 34159908 34131772 34135356 34172528 34243224 34345344 
849.008 34475608 34631568 34813720 35025544 35271180 35553052 35869984 
852.382 36216600 36585812 36972256 37374500 37796272 38244508 38727220 
855.757 39251848 39823776 40449080 41136656 41899176 42754392 43723744 
859.132 44827344 46086008 47518376 49142256 50975180 53030072 55307804 
862.507 57785504 60405880 63072004 65639080 67940112 69800088 71055112 
865.882 71591984 71355856 70363416 68696600 66495204 63937552 61201076 
869.256 58458728 55852828 53478692 51396468 49628140 48168340 46994672 
872.631 46076432 45383056 44884256 44554036 44370104 44311796 44362176 
876.006 44508956 44744108 45065836 45476200 45978440 46573760 47257924 
879.381 48019172 48839892 49696420 50562900 51415788 52234400 53004428 
882.756 53719728 54381376 54996644 55576520 56131684 56669432 57192356 
886.131 57699440 58190188 58667992 59145444 59642008 60182568 60791444 
889.505 61484156 62264656 63122772 64038300 64983696 65928876 66846484 
892.880 67710064 68493824 69173640 69724568 70124064 70355392 70408072 
896.255 70279304 69973472 69501664 68880656 68133376 67291616 66392884 
899.630 65478660 64591892 63766904 63027828 62385976 61840036 61380828 
903.005 60995736 60674988 60412088 60205324 60055432 59964392 59934420 
906.379 59968044 60069356 60244532 60500780 60845148 61281656 61811192 
909.754 62430924 63137180 63928148 64805828 65775684 66845512 68023000 
913.129 69313504 70721432 72252680 73917312 75733256 77726320 79925160 
916.504 82359544 85053112 88018040 91251952 94733272 98419072 102232680 
919.879 106062600 109765432 113158848 116056608 118297968 119774584 
922.771 120473608 120489088 120031408 119381944 118874016 118851096 
925.664 119589824 121289704 124029696 127756920 132277120 137263552 
928.557 142313904 146938480 150637232 152977504 153598480 152288832 
931.450 149006672 143880976 137198384 129357632 120851792 112169504 
934.342 103753936 95982960 89106080 83267856 78520040 74840120 72166128 
937.717 70419176 69524296 69407072 69984648 71158184 72783120 74666672 
941.092 76589456 78301024 79571264 80231352 80185320 79436448 78074472 
944.467 76263824 74198472 72068456 70043152 68236296 66710308 65483132 
947.841 64539112 63844964 63361860 63056604 62901392 62874392 62958224 
951.216 63136220 63391612 63710460 64080572 64493632 64945564 65433516 
954.591 65954836 66505744 67080668 67673984 68281784 68902904 69538680 
957.966 70191592 70862760 71550840 72252056 72961032 73673960 74389072 
961.341 75107496 75831568 76563016 77301752 78045440 78791240 79537552 
964.716 80285400 81037848 81799168 82571480 83354560 84145328 84941000 
968.090 85740160 86545720 87363560 88201728 89066992 89963080 90891112 
971.465 91851440 92845072 93876320 94951904 96079056 97263032 98505360 
974.840 99803744 101154448 102555104 104005744 105508272 107063632 108668064 
978.215 110310744 111975432 113640928 115286488 116894400 118449192 
981.108 119936664 121341096 122643368 123824128 124867168 125764560 
984.000 126518832 127143680 127659496 128087208 128446656 128754960 
986.893 129027176 129280880 129536464 129814176 130133288 130506384 
989.786 130936848 131421056 131951528 132521016 133126152 133766664 
992.678 134443488 135155232 135896288 136657712 137430064 138207232 
995.571 138987456 139772704 140564256 141359888 142150976 142926016 
998.464 143672544 144383840 145060288 145709488 146341696 146966048 
1001.356 147588304 148211472 148838544 149476448 150136448 150832112 
1004.249 151576288 152375184 153228656 154131520 155079408 156072928 
1007.142 157120592 158235552 159431488 160716352 162088752 163538928 
1010.035 165052752 166617120 168221920 169859760 171522960 173198784 
1012.927 174869600 176517216 178128080 179701168 181249696 182800336 
1015.820 184383728 186027856 187753312 189571104 191486320 193502256 
1018.713 195622400 197848512 200176640 202595184 205083552 207618832 
1021.605 210185872 212782944 215425856 218141760 220960912 223905360 
1024.498 226980944 230178544 233478448 236858032 240291904 243752544 
1027.391 247202928 250586544 253831600 256852720 259559120 261873568 
1030.284 263733184 265089984 265909856 266164688 265834896 264916592 
1033.177 263430688 261428480 258983584 256185984 253120720 249850832 
1036.070 246418656 242844288 239136624 235304336 231362240 227332256 
1038.963 223244704 219135152 215046048 211033168 207158880 203491248 
1041.856 200092224 196996160 194200560 191655808 189278144 186958656 
1044.750 184591792 182103888 179460672 176675552 173797168 170900336 
1047.643 168065168 165362336 162852720 160577200 158556784 156794096 
1050.536 155273312 153963760 152822304 151804448 150868880 149982400 
1053.429 149124064 148280816 147443424 146602560 145745680 144858080 
1056.322 143926768 142941360 141895808 140785888 139606144 138348080 
1059.215 137001248 135556512 134011864 132374984 130664856 128907192 
1062.108 127129152 125356464 123608920 121901536 120247688 118659336 
1065.001 117147360 115719288 114375928 113108072 111897520 110722200 
1067.894 109559256 108392440 107215568 106032480 104854888 103697944 
1070.787 102578768 101512944 100513968 99594072 98762424 98024328 97379656 
1074.162 96822216 96341056 95921304 95548192 95207896 94887384 94573808 
1077.538 94251664 93901408 93503232 93039120 92499032 91885544 91214952 
1080.913 90515440 89819744 89163568 88579152 88092544 87727472 87503888 
1084.288 87439496 87551440 87853240 88354800 89062192 89977664 91100800 
1087.663 92427288 93947184 95638656 97460264 99352720 101232920 103003080 
1091.039 104571304 105857536 106813264 107429928 107737936 107801760 
1093.932 107703200 107538872 107400784 107366240 107498504 107837776 
1096.825 108402048 109189368 110179280 111336096 112607112 113929080 
1099.718 115224432 116400072 117361424 118010608 118261520 118059304 
1102.611 117384648 116263384 114756904 112958048 110971968 108895576 
1105.504 106818896 104811064 102918368 101171304 99582440 98149664 96858448 
1108.879 95684624 94598368 93565656 92555856 91542680 90504952 89428304 
1112.254 88302944 87122992 85887520 84601192 83275640 81927912 80580240 
1115.630 79256232 77975648 76755256 75605072 74530784 73535200 72619656 
1119.005 71784768 71030216 70353872 69751064 69214128 68733400 68297720 
1122.380 67892808 67502672 67105808 66674536 66178396 65584660 64864652 
1125.755 64001516 62993280 61855240 60615668 59314396 57994560 56693672 
1129.131 55444252 54268092 53175316 52167852 51240220 50382136 49580560 
1132.506 48822796 48098268 47399288 46723132 46071568 45449784 44864232 
1135.881 44321888 43828812 43389392 43007512 42686760 42431200 42244656 
1139.256 42130692 42090824 42124412 42228840 42400108 42634084 42927548 
1142.632 43278316 43684060 44142048 44648068 45195792 45778660 46389856 
1146.007 47023104 47672804 48333000 48995872 49653028 50295036 50913628 
1149.382 51503780 52064440 52598748 53111992 53610328 54099364 54582748 
1152.757 55063288 55543348 56025064 56510224 56999552 57492044 57983920 
1156.133 58469948 58943616 59397780 59825568 60219332 60569228 60864660 
1159.508 61092632 61240064 61295960 61251508 61100832 60840724 60468828 
1162.883 59983452 59384292 58673036 57855192 56939976 55940860 54873008 
1166.258 53751340 52590372 51402508 50198916 48991120 47790748 46609984 
1169.634 45461448 44355496 43300716 42303128 41366092 40492032 39683004 
1173.009 38941324 38269804 37671512 37148316 36701572 36331256 36037460 
1176.384 35820828 35682784 35625952 35653180 35767180 35970112 36264288 
1179.759 36652684 37140484 37735152 38445776 39282024 40252952 41365292 
1183.135 42624472 44034520 45598736 47318032 49188972 51201040 53331136 
1186.510 55542404 57787208 60003648 62123988 64080804 65804368 67233208 
1189.885 68317384 69020112 69326056 69242064 68799280 68045824 67043552 
1193.260 65861740 64563096 63203976 61828572 60464256 59125660 57815104 
1196.635 56526944 55251772 53981348 52712124 51448012 50200216 48984668 
1200.011 47821300 46728556 45720784 44807656 43992828 43274980 42648964 
1203.386 42106964 41638932 41232252 40872396 40542812 40224924 39902408 
1206.761 39560856 39190740 38788116 38353836 37892976 37412668 36922184 
1210.136 36431956 35952544 35496708 35077160 34706036 34395156 34153420 
1213.512 33987524 33901824 33899604 33983156 34154892 34416604 34769100 
1216.887 35211488 35741420 36355720 37051672 37828264 38686288 39627856 
1220.262 40654680 41767504 42965844 44248980 45617872 47076312 48630748 
1223.637 50290052 52061976 53950884 55955596 58068864 60277764 62561132 
1227.013 64892464 67236608 69547080 71772064 73852352 75726200 77340272 
1230.388 78647968 79616712 80230832 80493176 80428568 80083264 79530912 
1233.763 78866560 78194896 77633240 77291776 77264824 77634944 78462632 
1237.138 79790000 81645632 84043312 86982544 90444440 94391272 98760384 
1240.514 103460984 108386576 113408592 118381912 123162064 127593008 
1243.407 131520360 134809232 137342560 139041712 139873696 139849920 
1246.300 139021952 137468688 135296288 132622672 129569768 126264440 
1249.193 122814000 119296904 115753200 112176368 108519408 104708120 
1252.086 100670768 96355000 91749392 86890896 81863288 76786136 71786016 
1255.461 66992788 62515176 58425368 54764332 51537020 48721368 46275244 
1258.836 44147476 42287056 40643400 39175584 37851652 36646952 35545284 
1262.212 34535196 33607452 32753926 31966270 31235966 30555982 29921536 
1265.587 29330552 28783068 28280050 27822122 27407838 27034816 26700200 
1268.962 26402108 26140150 25915872 25731052 25586758 25482214 25415180 
1272.337 25382580 25382404 25413916 25478454 25578252 25715442 25890692 
1275.713 26103132 26349472 26624064 26918642 27221216 27515106 27781958 
1279.088 28001192 28155162 28233690 28234362 28163862 28033884 27858510 
1282.463 27648776 27411368 27148410 26860128 26547872 26216552 25874936 
1285.838 25535028 25210028 24911098 24646598 24422250 24240970 24104072 
1289.214 24011512 23961194 23948940 23968126 24011546 24072164 24145472 
1292.589 24230426 24328606 24443492 24578326 24735578 24916642 25123234 
1295.964 25358270 25625946 25931242 26278782 26671168 27108978 27591646 
1299.339 28118716 28691132 29310310 29976986 30686858 31428844 32185018 
1302.715 32930218 33636520 34279616 34839032 35303128 35668792 35940880 
1306.090 36131580 36257984 36342928 36409868 36481400 36576836 36707592 
1309.465 36876908 37080360 37308636 37550472 37795224 38035268 38264624 
1312.840 38477740 38668396 38828844 38950892 39027916 39055392 39032228 
1316.216 38959552 38839712 38675348 38469124 38224824 37948512 37648784 
1319.591 37337160 37024896 36721800 36434552 36166400 35918388 35692604 
1322.966 35492860 35326200 35202684 35131764 35122672 35182672 35317252 
1326.341 35531120 35828420 36210588 36673736 37205528 37784668 38379568 
1329.717 38955564 39480324 39927724 40283816 40546736 40724436 40830788 
1333.092 40882152 40895624 40885792 40865768 40847640 40840324 40851208 
1336.467 40885172 40945828 41036788 41164344 41337484 41568556 41870276 
1339.842 42251376 42715272 43257852 43868476 44531204 45227448 45935532 
1343.218 46628908 47279388 47856444 48331076 48682748 48900960 48986856 
1346.593 48950064 48804336 48562008 48230056 47809720 47298488 46694060 
1349.968 45998480 45220756 44377040 43490608 42587920 41694880 40837448 
1353.343 40037912 39314380 38682012 38150152 37722828 37397684 37167268 
1356.719 37021288 36948912 36942056 36995096 37103748 37263720 37468000 
1360.094 37707540 37974296 38263468 38577784 38927300 39328052 39796068 
1363.469 40341552 40966948 41666648 42429368 43240392 44082924 44936176 
1366.844 45770008 46547500 47222644 47744108 48066320 48152016 47978132 
1370.219 47538260 46840924 45909196 44776248 43489764 42109592 40701220 
1373.595 39338612 38088980 37001012 36100216 35385476 34837596 34429912 
1376.970 34141592 33964380 33905876 33986772 34238524 34701192 35416208 
1380.345 36425688 37763632 39440596 41426340 43629980 45906472 48049888 
1383.720 49825800 51018816 51438840 50965268 49568528 47332368 44457088 
1387.096 41222304 37952128 34918452 32293010 30145014 28453400 27149010 
1390.471 26144548 25362170 24738594 24226080 23794316 23423998 23105956 
1393.846 22839830 22630514 22483968 22403160 22385298 22421860 22502252 
1397.221 22614806 22749598 22898714 23055464 23214576 23372246 23525284 
1400.597 23671412 23808562 23934094 24045094 24139378 24216658 24279584 
1403.972 24334808 24391654 24458004 24538844 24633834 24738558 24847590 
1407.347 24957560 25069488 25189100 25324306 25482004 25666438 25877572 
1410.722 26112630 26368730 26645166 26943850 27268386 27621692 28003666 
1414.098 28411162 28839824 29286490 29751252 30238784 30757344 31316798 
1417.473 31926252 32591778 33314384 34086936 34894644 35715948 36525472 
1420.848 37297768 38011544 38654668 39226316 39742620 40236048 40754136 
1424.223 41344992 42044980 42872320 43824708 44889768 46054108 47310532 
1427.599 48655132 50079688 51565716 53077656 54567984 55990536 57310604 
1430.974 58515668 59615096 60635552 61610872 62573568 63555056 64586432 
1434.349 65705328 66962788 68421360 70143536 72175096 74516624 77123640 
1437.724 79924360 82843456 85812256 88758728 91602160 94227176 96486192 
1441.100 98230880 99316232 99636664 99143264 97838760 95775208 93038704 
1444.475 89750112 86046440 82064304 77947464 73828584 69833784 66092700 
1447.850 62718628 59794084 57352268 55369980 53782092 52506568 51477816 
1451.225 50659884 50051096 49669636 49536144 49654292 50007524 50560444 
1454.601 51271948 52109680 53047408 54068440 55157372 56295884 57460160 
1457.976 58626956 59783400 60924856 62052160 63167952 64273940 65367988 
1461.351 66440256 67474880 68441992 69296056 69984136 70451168 70660016 
1464.726 70608944 70336256 69906984 69385216 68821952 68244912 67663832 
1468.102 67079708 66487596 65876128 65222352 64488368 63624904 62582596 
1471.477 61339656 59926128 58435452 56994528 55721604 54685556 53897648 
1474.852 53332672 52957528 52753236 52720992 52876944 53236404 53804664 
1478.227 54570688 55513376 56607976 57837548 59198224 60698004 62352468 
1481.603 64176904 66182560 68375248 70760736 73352344 76175120 79263104 
1484.978 82647384 86339000 90302944 94434600 98565016 102446864 105777040 
1488.353 108248936 109568928 109526288 108052152 105247448 101374496 
1491.246 96777496 91813616 86758496 81775608 76948176 72291112 67797752 
1494.621 63482992 59393184 55615952 52262648 49429832 47168936 45472520 
1497.997 44293668 43564336 43219272 43209132 43495808 44048016 44836312 
1501.372 45825312 46973260 48235388 49553004 50855736 52057976 53035168 
1504.747 53626560 53642456 52897452 51300472 48929556 46031924 42906336 
1508.122 39781724 36768136 33882624 31107878 28432634 25863400 23433860 
1511.498 21189426 19165638 17383206 15838688 14510908 13369365 12382328 
1514.873 11520919 10759025 10075369 9456379 8897011 8401901 7979400 7634628 
1518.730 7361872 7143076 6949776 6753903 6538440 6309771 6095268 5930312 
1522.588 5835700 5806686 5817936 5836103 5834827 5801582 5742519 5676717 
1526.445 5627171 5607468 5616463 5641705 5668593 5688500 5702265 5717137 
1530.302 5740068 5771294 5802018 5816089 5798022 5743191 5663491 5586490 
1534.160 5539505 5537793 5577160 5639792 5702735 5747354 5763571 5749536 
1538.017 5709718 5650668 5578100 5493934 5401799 5310388 5234993 5190627 
1541.875 5184022 5208836 5248240 5281443 5293718 5281845 5256155 5233685 
1545.732 5230466 5251962 5291471 5333667 5362985 5370331 5357316 5335377 
1549.590 5319109 5319277 5335847 5358590 5371908 5363588 5329407 5275205 
1553.447 5214470 5161992 5128127 5114080 5112604 5111733 5099764 5065704 
1557.304 5000373 4898558 4763098 4611875 4476136 4388502 4366479 4406610 
1561.162 4491972 4599987 4708832 4799782 4861531 4892358 4900334 4900032 
1565.019 4906466 4928550 4964946 5005568 5037009 5049211 5039255 5013176 
1568.877 4982944 4963404 4965381 4992529 5043378 5114281 5201727 5302842 
1572.734 5413206 5525880 5629520 5712269 5765686 5791307 5804638 5831099 
1576.592 5897093 6015335 6182475 6384748 6608242 6844339 7092486 7358434 
1580.449 7650377 7974979 8334545 8727133 9147722 9590736 10049190 10513186 
1584.306 10968470 11393821 11764742 12058809 12260533 12367088 12390100 
1587.682 12355361 12297105 12254091 12266327 12367429 12584849 12936784 
1591.057 13428858 14050358 14769750 15537826 16285833 16935656 17417040 
1594.432 17671546 17667680 17404656 16912470 16244691 15464755 14641492 
1597.807 13833674 13086393 12434219 11897703 11486658 11202258 11039089 
1601.183 10987806 11038749 11185123 11422360 11746971 12153696 12631751 
1604.558 13163984 13729597 14302658 14855459 15360354 15787283 16106576 
1607.933 16292540 16324775 16193135 15900275 15462420 14907922 14274374 
1611.308 13606876 12946274 12325636 11764945 11268801 10830459 10436102 
1614.684 10070757 9722593 9388183 9075075 8800162 8583277 8438251 8368255 
1618.541 8364472 8410987 8487849 8575064 8656585 8720981 8765033 8794279 
1622.398 8821802 8863227 8930088 9026662 9148704 9287569 9434605 9584808 
1626.256 9736080 9888115 10040475 10190990 10336194 10473913 10603764 
1629.631 10728593 10852065 10977067 11103058 11225378 11335353 11421952 
1633.006 11474478 11482745 11441207 11350352 11221162 11073384 10932486 
1636.382 10821016 10749345 10715687 10707605 10709777 10705261 10680810 
1639.757 10629263 10550970 10453853 10349700 10250151 10161887 10083169 
1643.132 10005279 9914420 9796094 9638670 9437687 9198721 8939356 8684979 
1646.990 8463657 8298035 8198652 8163503 8180622 8232520 8296954 8346705 
1650.847 8352312 8280609 8106280 7828976 7495414 7189225 6984119 6905403 
1654.704 6927993 7008296 7105554 7193638 7259974 7300710 7318232 7317187 
1658.562 7301721 7274125 7234435 7181005 7111987 7026345 6925804 6814247 
1662.419 6699354 6591320 6500029 6433137 6393322 6377821 6378763 6385185 
1666.277 6385320 6367835 6325270 6254673 6160125 6051721 5942404 5845976 
1670.134 5771932 5724624 5702936 5701896 5713109 5725128 5725631 5701828 
1673.991 5644760 5554171 5442093 5331453 5244685 5196294 5185430 5200519 
1677.849 5223926 5240929 5244216 5235060 5221411 5212558 5212793 5217085 
1681.706 5211217 5174063 5087326 4944603 4763132 4581469 4444970 4381138 
1685.564 4386527 4437673 4505330 4567506 4610535 4629992 4627480 4609028 
1689.421 4582373 4555217 4535630 4529938 4541891 4570955 4611172 4650789 
1693.279 4672894 4660501 4600455 4492675 4354966 4220546 4124767 4085297 
1697.136 4095699 4130554 4158821 4150457 4087739 3973498 3837424 3725053 
1700.993 3672287 3689028 3757805 3850695 3939325 4003660 4032922 4025698 
1704.851 3989549 3939760 3894389 3866775 3862997 3881351 3914850 3955508 
1708.708 3996069 4033123 4066166 4096937 4127543 4159322 4191773 4223088 
1712.566 4250926 4274181 4292887 4308515 4322168 4333111 4337797 4331539 
1716.423 4310623 4276992 4240420 4215895 4219006 4257250 4328125 4420835 
1720.281 4521869 4617702 4699521 4763433 4810838 4846352 4876140 4905561 
1724.138 4937431 4972319 5009087 5045791 5080789 5111766 5136007 5150961 
1727.995 5154514 5146669 5130541 5111733 5095573 5084644 5075291 5057122 
1731.853 5014216 4929254 4791942 4607588 4402961 4217802 4089946 4034394 
1735.710 4041383 4085632 4139418 4181268 4196457 4180264 4136642 4077370 
1739.568 4017238 3969051 3940361 3931400 3938088 3954572 3976407 4000684 
1743.425 4026601 4054326 4084427 4116672 4150524 4184212 4215560 4242762 
1747.282 4264042 4278397 4286027 4286797 4280974 4269263 4252766 4234397 
1751.140 4218672 4211679 4218237 4240420 4275854 4317751 4356639 4381707 
1754.997 4384418 4361258 4315843 4257585 4200036 4154438 4125603 4110316 
1758.855 4099646 4083023 4051250 4000116 3931768 3853904 3778026 3714560 
1762.712 3671051 3649766 3648162 3660859 3680942 3701159 3714092 3714627 
1766.570 3700557 3673624 3640143 3608168 3584280 3570182 3561329 3548634 
1770.427 3522712 3477653 3415766 3348279 3293388 3266580 3275360 3315757 
1774.284 3376595 3445189 3511255 3570449 3622234 3669113 3712521 3752425 
1778.142 3785981 3810248 3823719 3828365 3828599 3830939 3840098 3856646 
1781.999 3877205 3896362 3908665 3911708 3907094 3898936 3892818 3893520 
1785.857 3902647 3919531 3942167 3968181 3995534 4022522 4045932 4061116 
1789.714 4062286 4043590 4001821 3938221 3860557 3781502 3713290 3665671 
1793.572 3640677 3635031 3641546 3652873 3663833 3670917 3672554 3667876 
1797.429 3656348 3637236 3610473 3577231 3539882 3502336 3468802 3442550 
1801.286 3425751 3418404 3419440 3426987 3439444 3455108 3472375 3489677 
1805.144 3505443 3518670 3529059 3537176 3543657 3549235 3553278 3554748 
1809.001 3552342 3545227 3534671 3523380 3515497 3514762 3523581 3541285 
1812.859 3565237 3591530 3616520 3638572 3657885 3676497 3697015 3722112 
1816.716 3752759 3788221 3826359 3864301 3899036 3928458 3951395 3967880 
1820.573 3979416 3987308 3992859 3996170 3995902 3989682 3975471 3953368 
1824.431 3925951 3899571 3881852 3878241 3890444 3914315 3941665 3962463 
1828.288 3968315 3956076 3930030 3900741 3881184 3882554 3909200 3958517 
1832.146 4022889 4093592 4163470 4228140 4286729 4339503 4387698 4431848 
1836.003 4472521 4510686 4548755 4590878 4642015 4706588 4786783 4881300 
1839.861 4986698 5096579 5204443 5304652 5392607 5466586 5528061 5582396 
1843.718 5638886 5707972 5798963 5915734 6055552 6209497 6365918 6513011 
1847.575 6641212 6746061 6826970 6887022 6929642 6956745 6967587 6959102 
1851.433 6927858 6872412 6794524 6699522 6594348 6485298 6375871 6267413 
1855.290 6158210 6046917 5933033 5818137 5704380 5594042 5487491 5384085 
1859.148 5282751 5183083 5086622 4996585 4915983 4846453 4787520 4736467 
1863.005 4690143 4646904 4607086 4572696 4546176 4527561 4513766 4500040 
1866.863 4480187 4450962 4413538 4374043 4340441 4320327 4316345 4326251 
1870.720 4343687 4361994 4376185 4384552 4387698 4387196 4384385 4379297 
1874.577 4370997 4358647 4342114 4322770 4301989 4280974 4259057 4234598 
1878.435 4205657 4171165 4132026 4091351 4051918 4016067 3983663 3952231 
1882.292 3918327 3879779 3836488 3791329 3748648 3712688 3685252 3665404 
1886.150 3649331 3632725 3612043 3585750 3554581 3521075 3489042 3462355 
1890.007 3444220 3437908 3444688 3464827 3496357 3535072 3575393 3611542 
1893.865 3639408 3657752 3669380 3678636 3690432 3707776 3730233 3755633 
1897.722 3780734 3803429 3824053 3844778 3867945 3895158 3925917 3958049 
1901.579 3988345 4015097 4037905 4057671 4075765 4092723 4107373 4118077 
1905.437 4123496 4123563 4120519 4117174 4116070 4117943 4120820 4121489 
1909.294 4117307 4106737 4091284 4073992 4057972 4045564 4036869 4031216 
1913.152 4028006 4027103 4029444 4034962 4042320 4047002 4043022 4025431 
1917.009 3992592 3948487 3902614 3865972 3846082 3843976 3853804 3865003 
1920.866 3867577 3854840 3826694 3788722 3749484 3715462 3690532 3673290 
1924.724 3660625 3648930 3637971 3629050 3625174 3627346 3634195 3641680 
1928.581 3646358 3646023 3642448 3639942 3642883 3653642 3670850 3689129 
1932.439 3702295 3706205 3700357 3687792 3673490 3661862 3654577 3651169 
1936.296 3650233 3650200 3652172 3657919 3668177 3681677 3693272 3696480 
1940.154 3685854 3659589 3621298 3578934 3542421 3517969 3507981 3509384 
1944.011 3516700 3525618 3535172 3547365 3565505 3592432 3626611 3663733 
1947.868 3698285 3726490 3746509 3760747 3771409 3780700 3788388 3792332 
1951.726 3790259 3782171 3770807 3760580 3756134 3758474 3764156 3767799 
1955.583 3762719 3744637 3714359 3676230 3636902 3601820 3573957 3552810 
1959.441 3536207 3522545 3512023 3506512 3507881 3515330 3525351 3532800 
1963.298 3532199 3522545 3506211 3488007 3474112 3468334 3469870 3476016 
1967.156 3482629 3487105 3489610 3492583 3497092 3504106 3512056 3518169 
1971.013 3521643 3524984 3532466 3549770 3579536 3620596 3667809 3715696 
1974.870 3761215 3807005 3859521 3925850 4008376 4102088 4193010 4264411 
1978.728 4303595 4304566 4271036 4214021 4146878 4081016 4023491 3977477 
1982.585 3943036 3920768 3911240 3915352 3932771 3959822 3991722 4021852 
1986.443 4046433 4064527 4078808 4094261 4113260 4136575 4161363 4183342 
1990.300 4199099 4208200 4212315 4214857 4219542 4226167 4233394 4240152 
1994.157 4247111 4257518 4277393 4311225 4360320 4420434 4482832 4536902 
1998.015 4575039 4593859 4595097 4583980 4565028 4540351 4509012 4468973 
2001.872 4418325 4360220 4299814 4244602 4201007 4170529 4150926 4136909 
2005.730 4123195 4106838 4089311 4073992 4063390 4058674 4057403 4055798 
2009.587 4052587 4048440 4046300 4050246 4061785 4078073 4094496 4104998 
2013.445 4107574 4104497 4102055 4106436 4122258 4147948 4177889 4203349 
2017.302 4219609 4225497 4226902 4231151 4245205 4271337 4307410 4347402 
2021.159 4385523 4419128 4447581 4472588 4495587 4514336 4525485 4525418 
2025.017 4512494 4489494 4462177 4438409 4424250 4421170 4427430 4437539 
2028.874 4448418 4457557 4466227 4477208 4492976 4513934 4539245 4568242 
2032.732 4600656 4638934 4685320 4740788 4803333 4867462 4926640 4975470 
2036.589 5013612 5043914 5072509 5106034 5146065 5191432 5237810 5280000 
2040.447 5315084 5343462 5366910 5387608 5406160 5420520 5427632 5426894 
2044.304 5419312 5410052 5406127 5413004 5432799 5463902 5501316 5538901 
2048.161 5573401 5602164 5624016 5638650 5643081 5635126 5612402 5576556 
2052.019 5532290 5487860 5452159 5430618 5424445 5429242 5436892 5440952 
2055.876 5437932 5429242 5419849 5415923 5420754 5435013 5454776 5476250 
2059.734 5496416 5515343 5533430 5552962 5573670 5593438 5608576 5617671 
2063.591 5621196 5623713 5631333 5648620 5676549 5710926 5743291 5764780 
2067.448 5768977 5754338 5724356 5685580 5644726 5607468 5576455 5552258 
2071.306 5534807 5524202 5520678 5524236 5533498 5546049 5557594 5565883 
2075.163 5569508 5570078 5570817 5574878 5584107 5597969 5614214 5630024 
2079.021 5643450 5654326 5663457 5672219 5680913 5688702 5693805 5695181 
2082.878 5692764 5688030 5683935 5681921 5682323 5683364 5682592 5677456 
2086.736 5667653 5654427 5640799 5629252 5620827 5614147 5606964 5596492 
2090.593 5581322 5562192 5542156 5524403 5512088 5506786 5509235 5519101 
2094.450 5535343 5557627 5584510 5613241 5640933 5664062 5680578 5690179 
2098.308 5695819 5701392 5710490 5724020 5739464 5752189 5757461 5753129 
2102.165 5740740 5726135 5717473 5720293 5737987 5768373 5806887 5847991 
2106.023 5887958 5925609 5963029 6002401 6045237 6090496 6135962 6178912 
2109.880 6217934 6254068 6289365 6326043 6365616 6406672 6446891 6483818 
2113.738 6515871 6543755 6569858 6596837 6626981 6660794 6697537 6735495 
2117.595 6773456 6810242 6845315 6877933 6907288 6931326 6950180 6964388 
2121.452 6976307 6990079 7009137 7034999 7066251 7098852 7127851 7149207 
2125.310 7161737 7166824 7168744 7171135 7176053 7183229 7189865 7192526 
2129.167 7188787 7178614 7163354 7145771 7128997 7115019 7104982 7100300 
2133.025 7101883 7110775 7127649 7150958 7176929 7200881 7217894 7224632 
2136.882 7221498 7211156 7197849 7185688 7176593 7169720 7162882 7153720 
2140.740 7140449 7123675 7103365 7080227 7053319 7021395 6982705 6938901 
2144.597 6892341 6847402 6807819 6774701 6744514 6713150 6675060 6627351 
2148.454 6571944 6514189 6459132 6410505 6366759 6322513 6270170 6203783 
2152.312 6120605 6024776 5921578 5816727 5713276 5611395 5509235 5408576 
2156.169 5315118 5241231 5202900 5213396 5277451 5389185 5533363 5688836 
2160.027 5836473 5964238 6064657 6137777 6185768 6211817 6220320 6217833 
2163.884 6211615 6209833 6218472 6240152 6270540 6303249 6328497 6339088 
2167.741 6333003 6311822 6280725 6244454 6206203 6165368 6119630 6066740 
2171.599 6005760 5940120 5875396 5817734 5772234 5742351 5727411 5724826 
2175.456 5730970 5740471 5747958 5747657 5734730 5706226 5663793 5611663 
2179.314 5558466 5513933 5484471 5472525 5475042 5484840 5494437 5499671 
2183.171 5500846 5502826 5511584 5531484 5562527 5600923 5639825 5672823 
2187.029 5697128 5712001 5719790 5723516 5725295 5725598 5725531 5725799 
2190.886 5728217 5735200 5747757 5763739 5779621 5788990 5785867 5768373 
2194.743 5738389 5701022 5664666 5636066 5619618 5616463 5624855 5641369 
2198.601 5663961 5690414 5719185 5748126 5774988 5796679 5811757 5820320 
2202.458 5824383 5827506 5832510 5839730 5847991 5854607 5856555 5852962 
2206.316 5846447 5840100 5837917 5841544 5849570 5858201 5863474 5862600 
2210.173 5855816 5845607 5836237 5830495 5830932 5836741 5846682 5860484 
2214.031 5878486 5901762 5931084 5965213 6000688 6033343 6058307 6074066 
2217.888 6082029 6086498 6092882 6105517 6126486 6154143 6184592 6213497 
2221.745 6236790 6251917 6258202 6256253 6247042 6233328 6217262 6202473 
2225.603 6192591 6189600 6193532 6202909 6213026 6219312 6218774 6210573 
2229.460 6196927 6181769 6168662 6159554 6154580 6151253 6147288 6141776 
2233.318 6135189 6129980 6128670 6132636 6140936 6152228 6164057 6175249 
2237.175 6186340 6198977 6214909 6235547 6260085 6286743 6313805 6339760 
2241.032 6364069 6387707 6410741 6432834 6452339 6467237 6475174 6476452 
2244.890 6472618 6466463 6461116 6459132 6460780 6465623 6472147 6479714 
2248.747 6488022 6498280 6510758 6526028 6543486 6561885 6580017 6598116 
2252.605 6616148 6635493 6656891 6679737 6702483 6723245 6739768 6751244 
2256.462 6757571 6759792 6757874 6752220 6741619 6725399 6703897 6678795 
2260.320 6652988 6629841 6611808 6600100 6593473 6589941 6587822 6586779 
2264.177 6588259 6594785 6608578 6630345 6658439 6689361 6718804 6743201 
2268.034 6760633 6771537 6777865 6782139 6787322 6794524 6804621 6816839 
2271.892 6830000 6842353 6852249 6858005 6858645 6854235 6846190 6836698 
2275.749 6829024 6825085 6826364 6832760 6842689 6854067 6865410 6875308 
2279.607 6884093 6891903 6899613 6907288 6915469 6924188 6933615 6944759 
2283.464 6957924 6972738 6988698 7003649 7015266 7021900 7022876 7018196 
2287.322 7009811 6999271 6988227 6977856 6968933 6961290 6956408 6955398 
2291.179 6959775 6970078 6986038 7005804 7026951 7047022 7064601 7079183 
2295.036 7091644 7102725 7113099 7122058 7127919 7129165 7125090 7115558 
2298.894 7102220 7087199 7072144 7058101 7045203 7032743 7020149 7007353 
2302.751 6994692 6982671 6971627 6960752 6948867 6934591 6916917 6895741 
2306.609 6871975 6847032 6822527 6799438 6777898 6757706 6738591 6720183 
2310.466 6702483 6685524 6669037 6652551 6635425 6617359 6598486 6579782 
2314.323 6562626 6547690 6534740 6522496 6508605 6490780 6467473 6438820 
2318.181 6406302 6372676 6340567 6312326 6289365 6271649 6258572 6248723 
2322.038 6240017 6229900 6215144 6192222 6158243 6112002 6054241 5988123 
2325.896 5918287 5849805 5787009 5732447 5686587 5648587 5616900 5590686 
2329.753 5570179 5556620 5551385 5555110 5567360 5586289 5609045 5632810 
2333.611 5655098 5674300 5689474 5700620 5707703 5711900 5714686 5718010 
2337.468 5723718 5733521 5747623 5765586 5785531 5805444 5823846 5840100 
2341.325 5854372 5867604 5880770 5894305 5909184 5927356 5952213 5989131 
2345.183 6044229 6122487 6225967 6352537 6494950 6642692 6783821 6906952 
2349.040 7002268 7063860 7089017 7079789 7041296 6982334 6912843 6841814 
2352.898 6776451 6720251 6673714 6635123 6602119 6573659 6549742 6531679 
2356.755 6521151 6519470 6526566 6541804 6563971 6592262 6626745 6668095 
2360.613 6716986 6773388 6836294 6903349 6972200 7041195 7109596 7177906 
2364.470 7247575 7319614 7394596 7472525 7552456 7633313 7713780 7792778 
2368.327 7868281 7938601 8001236 8054734 8099696 8138284 8175321 8216143 
2372.185 8265648 8327217 8401664 8487612 8583074 8686433 8797457 8916695 
2376.042 9046013 9186233 9336993 9496644 9662555 9832087 10003957 10177523 
2379.900 10353466 10532401 10714261 10897760 11081201 11262102 11438383 
2383.275 11608372 11770597 11923176 12064226 12190702 12299934 12389862 
2386.650 12459690 12510295 12544194 12564624 12574139 12575299 12569364 
2390.025 12556779 12538021 12513193 12483014 12447858 12408340 12364565 
2393.401 12316807 12265202 12210502 12153628 12096250 12039801 11986219 
2396.776 11937174 11894570 11860517 11836818 11825377 11827455 11843390 
2400.151 11872333 11912857 11963398 12022496 12089334 12163579 12245093 
2403.526 12333476 12428252 12528984 12635605 12748736 12870224 13001579 
2406.902 13144209 13298297 13462385 13634501 13812056 13993893 14179913 
2410.277 14371150 14568640 14772560 14981173 15191121 15397361 15595146 
2413.652 15780101 15949288 16101040 16233822 16346896 16439456 16511004 
2417.027 16562290 16595028 16612206 16617164 16613411 16602773 16586008 
2420.403 16562842 16532620 16494863 16450055 16399505 16345624 16290614 
2423.778 16237194 16187837 16144987 16111080 16088352 16078381 16082402 
2427.153 16100042 16131196 16175181 16231930 16301898 16386051 16485330 
2430.528 16600363 16730681 16875232 17032992 17203358 17386172 17582450 
2433.904 17793348 18019028 18259028 18512024 18776030 19049404 19331474 
2437.279 19622288 19922942 20234704 20558536 20895646 21246658 21612688 
2440.654 21994394 22393006 22808750 23241316 23689502 24151394 24625032 
2444.029 25109156 25602714 26105558 26617618 27138074 27665798 28199394 
2447.405 28736974 29277524 29820346 30365196 30911478 31458270 32003682 
2450.780 32545068 33079616 33604084 34115212 34609788 35084092 35534212 
2454.155 35956324 36347000 36703444 37023456 37305132 37546028 37742596 
2457.530 37890300 37984240 38019500 37992884 37902376 37748052 37530676 
2460.906 37251844 36913272 36516968 36065580 35563772 35017860 34435648 
2464.281 33826604 33199988 32564528 31927824 31296462 30676190 30072532 
2467.656 29491486 28938980 28421138 27942708 27507374 27117126 26772508 
2471.031 26472396 26215496 25999800 25822890 25681378 25572102 25490156 
2474.406 25430672 25388620 25359464 25339198 25325008 25314542 25306146 
2477.782 25298350 25289534 25278122 25262598 25241176 25212136 25174318 
2481.157 25127272 25071210 25007430 24937836 24864394 24788614 24711830 
2484.532 24634148 24555394 24475496 24394738 24313502 24232738 24152934 
2487.907 24074512 23996594 23918584 23839750 23759842 23679462 23599934 
2491.283 23522416 23447498 23374274 23301270 23225518 23144292 23055220 
2494.658 22957012 22849328 22732384 22607198 22474930 22336634 22193916 
2498.033 22048352 21901340 21753924 21606348 21458266 21308634 21156028 
2501.408 20999928 20840508 20678788 20517024 20357402 20202176 20052666 
2504.784 19909934 19774150 19645308 19522844 19406376 19294652 19186692 
2508.159 19080978 18977228 18874920 18775268 18679166 18587960 18501788 
2511.534 18419504 18339312 18258612 18174718 18086762 17994852 17900096 
2514.909 17804360 17709750 17617334 17528352 17443184 17363240 17289618 
2518.285 17223698 17166542 17119046 17080756 17050842 17028306 17011800 
2521.660 17000600 16994332 16992126 16993228 16996638 17000980 17005908 
2525.035 17011456 17018692 17028788 17042778 17061146 17082824 17106466 
2528.410 17130282 17152928 17173540 17192120 17208254 17221800 17231524 
2531.786 17236590 17235798 17229146 17217424 17202598 17187086 17173126 
2535.161 17162234 17154858 17150756 17149274 17149722 17151652 17155064 
2538.536 17160268 17167646 17177608 17190912 17208150 17229938 17256622 
2541.911 17287824 17322548 17359134 17395896 17431594 17465396 17497822 
2545.287 17529662 17561644 17594250 17627168 17659122 17689146 17716134 
2548.662 17739776 17760176 17778196 17794314 17808882 17822244 17834222 
2552.037 17845236 17855868 17866916 17879448 17893674 17909628 17926582 
2555.412 17943156 17958072 17970402 17979312 17984596 17985872 17982868 
2558.788 17974788 17961112 17940740 17913458 17878552 17836500 17788068 
2562.163 17734738 17677792 17619162 17560162 17501788 17444080 17387068 
2565.538 17330098 17272896 17215804 17160166 17107672 17060974 17022034 
2568.913 16992264 16972142 16960944 16957256 16959978 16967868 16980066 
2572.289 16996088 17015142 17036300 17058908 17081996 17105364 17129454 
2575.664 17155202 17183536 17215596 17251450 17290996 17333376 17377826 
2579.039 17423662 17470708 17519072 17569028 17621164 17675444 17732254 
2582.414 17791692 17854004 17918984 17986322 18055398 18125108 18194688 
2585.790 18263554 18332122 18401426 18472504 18546740 18624342 18704624 
2589.165 18785924 18866200 18943514 19016378 19084234 19147356 19206432 
2592.540 19262472 19316542 19369964 19423216 19477584 19533450 19591020 
2595.915 19649744 19708962 19767560 19825234 19882462 19940356 20001140 
2599.291 20066648 20138626 20217728 20303756 20395530 20491874 20591854 
2602.666 20694914 20800812 20909762 21021904 21137104 21255428 21376466 
2606.041 21500356 21627070 21756920 21890118 22026776 22166370 22308692 
2609.416 22452564 22596902 22739960 22880028 23014690 23141706 23259180 
2612.792 23365532 23459984 23542528 23613684 23674178 23724460 23765092 
2616.167 23796416 23818956 23833518 23841324 23843668 23842270 23837928 
2619.542 23831698 23823718 23814406 23803452 23791306 23778078 23764568 
2622.917 23751232 23739266 23729080 23721696 23717252 23716098 23718196 
2626.292 23722958 23730060 23739054 23749870 23763272 23780422 23802680 
2629.668 23831314 23867122 23909728 23958288 24011512 24067718 24126174 
2633.043 24186318 24248224 24312380 24378686 24446962 24516302 24586004 
2636.418 24654770 24722212 24788474 24854150 24920150 24987390 25056500 
2639.793 25127938 25201636 25276892 25353214 25429830 25506460 25582680 
2643.169 25658670 25734918 25811672 25889424 25968528 26048912 26130858 
2646.544 26214194 26299024 26385560 26474122 26564954 26658062 26753550 
2649.919 26851632 26952310 27056256 27164002 27276182 27393298 27515142 
2653.294 27641114 27770868 27903628 28039504 28178888 28322772 28471940 
2656.670 28626856 28787032 28951590 29119078 29288476 29459004 29630982 
2660.045 29804978 29981778 30161884 30345262 30531062 30718152 30905786 
2663.420 31093072 31279978 31466498 31653028 31839784 32027118 32215458 
2666.795 32405168 32596994 32791302 32988876 33189762 33393994 33601296 
2670.171 33811344 34024328 34240320 34459756 34682636 34908684 35136756 
2673.546 35365560 35593188 35818344 36039836 36257192 36470404 36679616 
2676.921 36885096 37087324 37286612 37483676 37679352 37875368 38073100 
2680.296 38274360 38481148 38695128 38918240 39152304 39398508 39658500 
2683.672 39933100 40222852 40527604 40847168 41180772 41527832 41887828 
2687.047 42260028 42643808 43038612 43443584 43857988 44281192 44712708 
2690.422 45151892 45598404 46051784 46511832 46978536 47452436 47934244 
2693.797 48425192 48925996 49436960 49957964 50487636 51024888 51568736 
2697.173 52118420 52673892 53235580 53803168 54376420 54954188 55535248 
2700.548 56118224 56702660 57288260 57875596 58464220 59053344 59640832 
2703.923 60223368 60796896 61357664 61901968 62426488 62928356 63404880 
2707.298 63852720 64269132 64651376 64997168 65305024 65574140 65804480 
2710.674 65995724 66148104 66261596 66337020 66375120 66377440 66344976 
2714.049 66278696 66178472 66043780 65873272 65666324 65422380 65142424 
2717.424 64828144 64481868 64106612 63705244 63281164 62837860 62379280 
2720.799 61909724 61434148 60957492 60484556 60020696 59570288 59138192 
2724.175 58728640 58345280 57990924 57667696 57376164 57116652 56888380 
2727.550 56691028 56524188 56387932 56282568 56208232 56164864 56151744 
2730.925 56167544 56210724 56279668 56372160 56486636 56621000 56773040 
2734.300 56941072 57123076 57317484 57523172 57739332 57964608 58197540 
2737.676 58436208 58677624 58919172 59157860 59391016 59616732 59833556 
2741.051 60040744 60237680 60424768 60602940 60773760 60939840 61103656 
2744.426 61267916 61434760 61605484 61780708 61960628 62145244 62334376 
2747.801 62527492 62723800 62921652 63118480 63311720 63498288 63676580 
2751.177 63845732 64006888 64161920 64313008 64462924 64613460 64766520 
2754.552 64923436 65085144 65252228 65425196 65603464 65786056 65970920 
2757.927 66155552 66337212 66512852 66679524 66834076 66973148 67093784 
2761.302 67192632 67266856 67314680 67334488 67325120 67285584 67214912 
2764.677 67112464 66977784 66811852 66617288 66398016 66159524 65907396 
2768.053 65646632 65382012 65117016 64854644 64597888 64349740 64113372 
2771.428 63891484 63686132 63498212 63327320 63172548 63032508 62905988 
2774.803 62791988 62689728 62598332 62516168 62440336 62366812 62290740 
2778.178 62206228 62107128 61987644 61842404 61667272 61460140 61221068 
2781.554 60952000 60657344 60342176 60012172 59672876 59329176 58984604 
2784.929 58642352 58304996 57974112 57650668 57334496 57024640 56719384 
2788.304 56416796 56115320 55814280 55513940 55215236 54919856 54628740 
2791.679 54342700 54061908 53786968 53518344 53257524 53006000 52765848 
2795.055 52538052 52322860 52119208 51925432 51739804 51560640 51387144 
2798.430 51218708 51055780 50898316 50745936 50597856 50453212 50310660 
2801.805 50169384 50028120 49886600 49743860 49599428 49452556 49302760 
2805.180 49149604 48993200 48833664 48672108 48509988 48348816 48190628 
2808.556 48037120 47889480 47748064 47612464 47481484 47353356 47226704 
2811.931 47100572 46974700 46849524 46725860 46604008 46484472 46367068 
2815.306 46251876 46139252 46030380 45927464 45833708 45752228 45686444 
2818.681 45639440 45614084 45612756 45638116 45692184 45776708 45892664 
2822.057 46039408 46215052 46416696 46640268 46881672 47136912 47402136 
2825.432 47673472 47946532 48216356 48477312 48723336 48949288 49149828 
2828.807 49320760 49458940 49562100 49628584 49658116 49651540 49610608 
2832.182 49538964 49440560 49319908 49180920 49027288 48861732 48686380 
2835.558 48503316 48314264 48120620 47923852 47724316 47521960 47316224 
2838.933 47106332 46892080 46673768 46452312 46229136 46004812 45780172 
2842.308 45555200 45329832 45103512 44876724 44650200 44425412 44203928 
2845.683 43987732 43778496 43577892 43387412 43209352 43045304 42897412 
2849.059 42767668 42657516 42567784 42499048 42451036 42423340 42415156 
2852.434 42425460 42452496 42494736 42550136 42616872 42693304 42778048 
2855.809 42869800 42967052 43067512 43168872 43267624 43360684 43444864 
2859.184 43517308 43575764 43617932 43642036 43645880 43627528 43585616 
2862.560 43519576 43429852 43317664 43185636 43036596 42873860 42701164 
2865.935 42522616 42342720 42166656 41999608 41846488 41711988 41599548 
2869.310 41511644 41449412 41412964 41401372 41412456 41443544 41491048 
2872.685 41551092 41620260 41695608 41775164 41858124 41944136 42033152 
2876.061 42124560 42217524 42310616 42403140 42494480 42585472 42677072 
2879.436 42770848 42867604 42967200 43068936 43171032 43272712 43373244 
2882.811 43473356 43574044 43676988 43783108 43892188 44003460 44115128 
2886.186 44225280 44332160 44434440 44531348 44622476 44707968 44788004 
2889.562 44863020 44933896 45001144 45065468 45127740 45188216 45246972 
2892.937 45304232 45359768 45413620 45465384 45514908 45561636 45605468 
2896.312 45646284 45684784 45721928 45759296 45798540 45840664 45885848 
2899.687 45933432 45981720 46028612 46072008 46109924 46140688 46162504 
2903.063 46173596 46172124 46156460 46125508 46079048 46017856 45943300 
2906.438 45857420 45761284 45656072 45541880 45419176 45288052 45148988 
2909.813 45002948 44850712 44692984 44530100 44361848 44188192 44009624 
2913.188 43826796 43641156 43454240 43267332 43080980 42895400 42710336 
2916.563 42525688 42342096 42160816 41983732 41813212 41651372 41500160 
2919.939 41361536 41236840 41127840 41035952 40962140 40906868 40869300 
2923.314 40847968 40840032 40842508 40851972 40865188 40878840 40889796 
2926.689 40894532 40889940 40873416 40843092 40799048 40742636 40677388 
2930.064 40607892 40539464 40478172 40429840 40400204 40395112 40419548 
2933.440 40477996 40574020 40709664 40885392 41100416 41352572 41638604 
2936.815 41954280 42295380 42657004 43033960 43422012 43817008 44215560 
2940.190 44615612 45015224 45412480 45804872 46188300 46557160 46904224 
2943.565 47220240 47495788 47720660 47885224 47981644 48004812 47953004 
2946.941 47828844 47639640 47397036 47114756 46808524 46493468 46181700 
2950.316 45883084 45603408 45345056 45108036 44890468 44689900 44503520 
2953.691 44328784 44163908 44007456 43858760 43717696 43584192 43458564 
2957.066 43340840 43231020 43128804 43033852 42945872 42864896 42790956 
2960.442 42723940 42664060 42610728 42563692 42522396 42486476 42455784 
2963.817 42430284 42410260 42395576 42386592 42383048 42385308 42393640 
2967.192 42408216 42429444 42456696 42488888 42523604 42557844 42588072 
2970.567 42611348 42625312 42628896 42621984 42605576 42581560 42552256 
2973.943 42520716 42490496 42465064 42447784 42440364 42441900 42447896 
2977.318 42450268 42437484 42395684 42311748 42174872 41978656 41722272 
2980.693 41410664 41054452 40666436 40261748 39855120 39458484 39081528 
2984.068 38730772 38409140 38117736 37855920 37622620 37416892 37238308 
2987.444 37086712 36961000 36858264 36772284 36692052 36602756 36486588 
2990.819 36324196 36099892 35803052 35431668 34992144 34499788 33975452 
2994.194 33440694 32916240 32417376 31952218 31522680 31125356 30753964 
2997.569 30401584 30062304 29732554 29410640 29096582 28790962 28494298 
3000.945 28206888 27928432 27658206 27395204 27138922 26888748 26644392 
3004.320 26405666 26172454 25944856 25722824 25506706 25297330 25095290 
3007.695 24901974 24718144 24544348 24380682 24226186 24079274 23937910 
3011.070 23799952 23663716 23528046 23392946 23259146 23127866 23000400 
3014.446 22877618 22760316 22648458 22542142 22441574 22346924 22258608 
3017.821 22176760 22101274 22031028 21964698 21900330 21836110 21770368 
3021.196 21701986 21630448 21555160 21476230 21393870 21308530 21221572 
3024.571 21134738 21050632 20972142 20901488 20840648 20790210 20749406 
3027.947 20716528 20689214 20664436 20639072 20609642 20572918 20525534 
3031.322 20464818 20389176 20298236 20193256 20076572 19951874 19822666 
3034.697 19692560 19564332 19440264 19321498 19208996 19103138 19004020 
3038.072 18911950 18826580 18747694 18674772 18607258 18544318 18485088 
3041.448 18428874 18374878 18322722 18272298 18223954 18178414 18135954 
3044.823 18096988 18060614 18025868 17990672 17953584 17913564 17870852 
3048.198 17826834 17783408 17742710 17706022 17673270 17643180 17613744 
3051.573 17582622 17548188 17509274 17465914 17418592 17368032 17314928 
3054.948 17260174 17204392 17148620 17093784 17041022 16991538 16945854 
3058.324 16904582 16867514 16834482 16804932 16778172 16753271 16729167 
3061.699 16704511 16678585 16651075 16622843 16595578 16571723 16553823 
3065.074 16543772 16542189 16548350 16560089 16574545 16588625 16599882 
3068.449 16606560 16608179 16605010 16598022 16588625 16578091 16567523 
3071.825 16557574 16547937 16538162 16527181 16514137 16498581 16480993 
3075.200 16462443 16444549 16428445 16414853 16403565 16393552 16383231 
3078.575 16371429 16357528 16341737 16324844 16307883 16291371 16275512 
3081.950 16260033 16244588 16228698 16212257 16195817 16179720 16164623 
3085.326 16150730 16137833 16125970 16115138 16105268 16096810 16090380 
3088.701 16086014 16084226 16084947 16088352 16094232 16102277 16112387 
3092.076 16123665 16135393 16146533 16156163 16164038 16170608 16177038 
3095.451 16185017 16196195 16211465 16231345 16254701 16280087 16305681 
3098.827 16329763 16351335 16370395 16387600 16404117 16421355 16440386 
3102.202 16462065 16486742 16514068 16543325 16573684 16604150 16633894 
3105.577 16662402 16689224 16714292 16737707 16759401 16779928 16799456 
3108.952 16818638 16837926 16857938 16879020 16901480 16925252 16950608 
3112.328 16977344 17006184 17037300 17071106 17107294 17145310 17183710 
3115.703 17220630 17254622 17284446 17310064 17332306 17352616 17372652 
3119.078 17393588 17416142 17439940 17464464 17488992 17512828 17535804 
3122.453 17558300 17580552 17603256 17626444 17650288 17674548 17699086 
3125.829 17723452 17747888 17772084 17796284 17820620 17845338 17870438 
3129.204 17895918 17921470 17946608 17970886 17994334 18017060 18040062 
3132.579 18064518 18091598 18122240 18156578 18193928 18233216 18273440 
3135.954 18313390 18353068 18392506 18432330 18472988 18514582 18556700 
3139.330 18598786 18640288 18680790 18720226 18759110 18797688 18836096 
3142.705 18874714 18913750 18953380 18994190 19036872 19081880 19129556 
3146.080 19179420 19230642 19282458 19333968 19384964 19435656 19486802 
3149.455 19539030 19592996 19648912 19706394 19764926 19824088 19883224 
3152.831 19942334 20000930 20058668 20115130 20170106 20223248 20274906 
3156.206 20325596 20376326 20427828 20480656 20535330 20592026 20650816 
3159.581 20712150 20776516 20844472 20916264 20991824 21070874 21152618 
3162.956 21236152 21320606 21405076 21489216 21572640 21655280 21737132 
3166.332 21818792 21900470 21982752 22065644 22148936 22231440 22311972 
3169.707 22388890 22461216 22528740 22591772 22651808 22710248 22768174 
3173.082 22826000 22883276 22939094 22991946 23040720 23084884 23124476 
3176.457 23160088 23193012 23224852 23257292 23291936 23330080 23372314 
3179.833 23418612 23467818 23518918 23570548 23621484 23671344 23720718 
3183.208 23770446 23821338 23874228 23929334 23986684 24046146 24107434 
3186.583 24170906 24237084 24306004 24377844 24452220 24528608 24606342 
3189.958 24685598 24766374 24849412 24934958 25022980 25112844 25203252 
3193.333 25293186 25381630 25468372 25553792 25638634 25723774 25809668 
3196.709 25896390 25983724 26071394 26158904 26246646 26334298 26422284 
3200.084 26510924 26600180 26690440 26782096 26875142 26969480 27064966 
3203.459 27160932 27256884 27352750 27448672 27545606 27644362 27745896 
3206.834 27849748 27954828 28059084 28160536 28257558 28350110 28439072 
3210.210 28526814 28615248 28706140 28799814 28896058 28994164 29093392 
3213.585 29193812 29296096 29400888 29508756 29619380 29731738 29844478 
3216.960 29956182 30065856 30173640 30279888 30385308 30490718 30596724 
3220.335 30703820 30812188 30922258 31033956 31147034 31260856 31374100 
3223.711 31485770 31594656 31700682 31804200 31906356 32008424 32111518 
3227.086 32216456 32322954 32430730 32539066 32647644 32756250 32864704 
3230.461 32973006 33080690 33188078 33294744 33400756 33506830 33613252 
3233.836 33720020 33827176 33934104 34040596 34146720 34252904 34360120 
3237.212 34469476 34581512 34695948 34811676 34927504 35042028 35154756 
3240.587 35266040 35376776 35487860 35599948 35712640 35825468 35937572 
3243.962 36048768 36159448 36270884 36384396 36501148 36621640 36745812 
3247.337 36873592 37004476 37138968 37277044 37418992 37564056 37711192 
3250.713 37858632 38004784 38148776 38291008 38432164 38574016 38717476 
3254.088 38863156 39010336 39158104 39305384 39451480 39596680 39741564 
3257.463 39887152 40033880 40181820 40330172 40477884 40624300 40768912 
3260.838 40911856 41053540 41194908 41336352 41478432 41621028 41764184 
3264.214 41907276 42049976 42191304 42330884 42467988 42602544 42734832 
3267.589 42865080 42993828 43122216 43250380 43379284 43509356 43640644 
3270.964 43773580 43907808 44042880 44177516 44310108 44439068 44563032 
3274.339 44681708 44795792 44906704 45016876 45127884 45241236 45357344 
3277.715 45475796 45595792 45716960 45838600 45960688 46083432 46206800 
3281.090 46330940 46455228 46579476 46702876 46825204 46946084 47065492 
3284.465 47183672 47300928 47417804 47535160 47654060 47775064 47898432 
3287.840 48023984 48151048 48278788 48406520 48534220 48662328 48791840 
3291.216 48923512 49057776 49194760 49334012 49475056 49617740 49762220 
3294.591 49909048 50058756 50211376 50366324 50522512 50678648 50833948 
3297.966 50988144 51141616 51294920 51448832 51603772 51759588 51916468 
3301.341 52074412 52234136 52396796 52563368 52735020 52912308 53094996 
3304.717 53283148 53476480 53675112 53879496 54090504 54308264 54532708 
3308.092 54763132 54998376 55237472 55479940 55725520 55974628 56228108 
3311.467 56486452 56750232 57019880 57295596 57577536 57865904 58160676 
3314.842 58461492 58767936 59079424 59395348 59715832 60041432 60372752 
3318.218 60710728 61055716 61407164 61764244 62125020 62488276 62852180 
3321.593 63215972 63579068 63941656 64304328 64667448 65031684 65397768 
3324.968 65765156 66133292 66500688 66865532 67225824 67580704 67929344 
3328.343 68272088 68609440 68941192 69266320 69582784 69887648 70177760 
3331.719 70451480 70707784 70947256 71171032 71380112 71574432 71753304 
3335.094 71915464 72059496 72185536 72294208 72386880 72465184 72529904 
3338.469 72580456 72615936 72634344 72634424 72614800 72574936 72514392 
3341.844 72432880 72329352 72203072 72052880 71878472 71679824 71457944 
3345.219 71213616 70948352 70662864 70358432 70035248 69694848 69338104 
3348.595 68966632 68582008 68185976 67779504 67363160 66937080 66501112 
3351.970 66054084 65595412 65124408 64641304 64147516 63645772 63139400 
3355.345 62633008 62129648 61632176 61141796 60658072 60180056 59706636 
3358.720 59237336 58772416 58312916 57860340 57415872 56980020 56553284 
3362.096 56134472 55723184 55318532 54919520 54525608 54136632 53752052 
3365.471 53372648 52999676 52634840 52280328 51938388 51609372 51292980 
3368.846 50987588 50690228 50398212 50109772 49823792 49540860 49262004 
3372.221 48988192 48720112 48457824 48200584 47947828 47699172 47454320 
3375.597 47213004 46975176 46740508 46508256 46278120 46050236 45825016 
3378.972 45603812 45387176 45175460 44967816 44762180 44556056 44347644 
3382.347 44136068 43922104 43707804 43496172 43289588 43089720 42896532 
3385.722 42708984 42525100 42343340 42162204 41981396 41801064 41621504 
3389.098 41442744 41264788 41086648 40907964 40728368 40547868 40367440 
3392.473 40188544 40011788 39838484 39668408 39500976 39334836 39168948 
3395.848 39002288 38835108 38667888 38502108 38339140 38180140 38025248 
3399.223 37873848 37725032 37577132 37429176 37280796 37131968 36983328 
3402.599 36835396 36688268 36541764 36395384 36248332 36100324 35951392 
3405.974 35802224 35653576 35506020 35360024 35215120 35070620 34925708 
3409.349 34779368 34631352 34481384 34329960 34177724 34025724 33874888 
3412.724 33725928 33578992 33434070 33290810 33148632 33007286 32866560 
3416.100 32726668 32587424 32448366 32308642 32166644 32020766 31870480 
3419.475 31715900 31559202 31403590 31252418 31108982 30974634 30849184 
3422.850 30730208 30614500 30499142 30381434 30260348 30135530 30007518 
3426.225 29877166 29745114 29612038 29479002 29347072 29217448 29091194 
3429.601 28968768 28849492 28732582 28615850 28498120 28378442 28256888 
3432.976 28133812 28010346 27887198 27764544 27642454 27521282 27400884 
3436.351 27282144 27165904 27052660 26942262 26834184 26726592 26618286 
3439.726 26507860 26395032 26280296 26164958 26050072 25936556 25824576 
3443.102 25713508 25602118 25489276 25373692 25255012 25133626 25010168 
3446.477 24886606 24765464 24648526 24537338 24432626 24333688 24238588 
3449.852 24145440 24051712 23955976 23857846 23757814 23656368 23554562 
3453.227 23452220 23348784 23243486 23135696 23025172 22913350 22801592 
3456.603 22692024 22585558 22482608 22382156 22282918 22182932 22081086 
3459.978 21976582 21869838 21761482 21652876 21544714 21437970 21332576 
3463.353 21228636 21125416 21022426 20918976 20814994 20710864 20607208 
3466.728 20505074 20405080 20307610 20211654 20116136 20019596 19921172 
3470.104 19820690 19719466 19618996 19521076 19426750 19335664 19245916 
3473.479 19155562 19062178 18964526 18862912 18758730 18654228 18551822 
3476.854 18453246 18359116 18269050 18181594 18094500 18005662 17913078 
3480.229 17815028 17711544 17604014 17494856 17387136 17284550 17188812 
3483.604 17100676 17018900 16940134 16861452 16779790 16693356 16602015 
3486.980 16506772 16409174 16310910 16212737 16115448 16019657 15926190 
3490.355 15835596 15749006 15667139 15589307 15514235 15440344 15365641 
3493.730 15288789 15209479 15128195 15046000 14964471 14884466 14806569 
3497.105 14730912 14657360 14585567 14515294 14445888 14376185 14304747 
3500.481 14230582 14152014 14069250 13983216 13895558 13809217 13726895 
3503.856 13650742 13582364 13521584 13467204 13417170 13368374 13316951 
3507.231 13259932 13194893 13120815 13038726 12951940 12864217 12779855 
3510.606 12702299 12632467 12569671 12511761 12455871 12399578 12341418 
3513.982 12281017 12219056 12156149 12092980 12030127 11967860 11906659 
3517.357 11847305 11790445 11736554 11685562 11636959 11589076 11540313 
3520.732 11489447 11435559 11378379 11318485 11256661 11193248 11128995 
3524.107 11064037 10998171 10931839 10865280 10798936 10732906 10668109 
3527.483 10604613 10542992 10483858 10427685 10374981 10326287 10280991 
3530.858 10238956 10198961 10159987 10120236 10078625 10033592 9984733 
3534.233 9931675 9874895 9815616 9755936 9697351 9641415 9588805 9538878 
3538.091 9490413 9442427 9393973 9345118 9296945 9250809 9207622 9167891 
3541.948 9130092 9092161 9051020 9004470 8950348 8888793 8820653 8748230 
3545.805 8674466 8602946 8536709 8478760 8430582 8391800 8360351 8332215 
3549.663 8302324 8266458 8221141 8165935 8103005 8036709 7972009 7913157 
3553.520 7862107 7818518 7779892 7743630 7707271 7669127 7629165 7587083 
3557.378 7543589 7498650 7452199 7404269 7355907 7308629 7264185 7224632 
3561.235 7190977 7162411 7137821 7113907 7086929 7052847 7007689 6948025 
3565.093 6871773 6779076 6673411 6561650 6453381 6358891 6286541 6239614 
3568.950 6215884 6209901 6212926 6216152 6213363 6200187 6174778 6137878 
3572.807 6091471 6037576 5978918 5917951 5857395 5799567 5747119 5700821 
3576.665 5661208 5626533 5594244 5561218 5525007 5484270 5439442 5392372 
3580.522 5345642 5301902 5263600 5231874 5206958 5188112 5172922 5158236 
3584.380 5139997 5113141 5073213 5017098 4944469 4858917 4767989 4680932 
3588.237 4607421 4553877 4522505 4510218 4511925 4519692 4526322 4525518 
3592.094 4513231 4487418 4448987 4400719 4346799 4291883 4240921 4196825 
3595.952 4161062 4132962 4110383 4090181 4068875 4043390 4012322 3976072 
3599.809 3935948 3895459 3858451 3827864 3805334 3790727 3781669 3775018 
3603.667 3767364 3755533 3737485 3712220 3678903 3637670 3588790 3533502 
3607.524 3474446 3415866 3363104 3320799 3292186 3276695 3270252 3267181 
3611.382 3260871 3246683 3223984 3195244 3165971 3142208 3127557 3122250 
3615.239 3122651 3122317 3113740 3091815 3053107 2998020 2930498 2857949 
3619.096 2788214 2729093 2686083 2661379 2653478 2658879 2672114 2688583 
3622.954 2704153 2717290 2727959 2737596 2746132 2752134 2749899 2731494 
3626.811 2686783 2608975 2497888 2365741 2235965 2134429 2081090 2080458 
3630.669 2121077 2183512 2248088 2299515 2329329 2336857 2327230 2308542 
3634.526 2288557 2272668 2261944 2255382 2250120 2244391 2237797 2230703 
3638.384 2223709 2216815 2208389 2196234 2179350 2157772 2133997 2112520 
3642.241 2098470 2095373 2104496 2124207 2149580 2174788 2192970 2198132 
3646.098 2185810 2153542 2100800 2029289 1943212 1847768 1751014 1662797 
3649.956 1593120 1551718 1545168 1573366 1631432 1708899 1792867 1869065 
3653.813 1925040 1951932 1945941 1910530 1855854 1796926 1748552 1719843 
3657.671 1713323 1724800 1746323 1769944 1790239 1803714 1809869 1809636 
3661.528 1804479 1795961 1785448 1774468 1765053 1759398 1759963 1767781 
3665.385 1782453 1801085 1818853 1829367 1825174 1799555 1748619 1673340 
3669.243 1581414 1488443 1414739 1377011 1384490 1433588 1510653 1594384 
3673.100 1662231 1694030 1675735 1606356 1499116 1382728 1289102 1238724 
3676.958 1235601 1268665 1320408 1374319 1420590 1455430 1480963 1501743 
3680.815 1522457 1545168 1570108 1595714 1621322 1647596 1676101 1707967 
3684.673 1742631 1775400 1798690 1803580 1781755 1729024 1648361 1549823 
3688.530 1448847 1361156 1297776 1262052 1251717 1260756 1283087 1314160 
3692.387 1351085 1391071 1432491 1472086 1507295 1535658 1556307 1569974 
3696.245 1578887 1586136 1594018 1603629 1613673 1620790 1620524 1608817 
3700.102 1583177 1544037 1496223 1446653 1404468 1377775 1370995 1384922 
3703.960 1416734 1460649 1510188 1559998 1605624 1644736 1676633 1701281 
3707.817 1718313 1726829 1725398 1711494 1683751 1642408 1590593 1534560 
3711.675 1483323 1445656 1428734 1435782 1464805 1511185 1567015 1625013 
3715.532 1678829 1723735 1757435 1780158 1793499 1799488 1799954 1795795 
3719.389 1786113 1770310 1747454 1718246 1685115 1652186 1622952 1600071 
3723.247 1584673 1574397 1565851 1555609 1541377 1523554 1505400 1492533 
3727.104 1490804 1504436 1533829 1575528 1623118 1668285 1702046 1719510 
3730.962 1717880 1699651 1671145 1640080 1611677 1587001 1562027 1531202 
3734.819 1490937 1442730 1393930 1356868 1342477 1355473 1394263 1451673 
3738.677 1518733 1588597 1657242 1723702 1787444 1845871 1891893 1913458 
3742.534 1896120 1828735 1711427 1563956 1421886 1326291 1301498 1345701 
3746.391 1436547 1544303 1641410 1706238 1728160 1706504 1650989 1577590 
3750.249 1502640 1439239 1394030 1369765 1367804 1388678 1431859 1493430 
3754.106 1566250 1640346 1705107 1752478 1778028 1781854 1768580 1745159 
3757.964 1718280 1692965 1672243 1657308 1650989 1655778 1674139 1706204 
3761.821 1748718 1794264 1834192 1859514 1865437 1852227 1826339 1797325 
3765.678 1775600 1767515 1773138 1787111 1801817 1809969 1807374 1795096 
3769.536 1777197 1760629 1751812 1753675 1765985 1786213 1810368 1834624 
3773.393 1856885 1876053 1892625 1907668 1922211 1935923 1947605 1953962 
3777.251 1951233 1936322 1908400 1870129 1828003 1790771 1766118 1758533 
3781.108 1767548 1787810 1812597 1834591 1848866 1854623 1853957 1850197 
3784.966 1847635 1848367 1852393 1858749 1866269 1873757 1882009 1891627 
3788.823 1903042 1915721 1928767 1940849 1951699 1962350 1974599 1989977 
3792.680 2008484 2027492 2041939 2046500 2036480 2011413 1975331 1937188 
3796.538 1907900 1896319 1905970 1933227 1969073 2000129 2012612 1996601 
3800.395 1949036 1877384 1798656 1736077 1708500 1724068 1777496 1853824 
3804.253 1934192 1998831 2032885 2029156 1990809 1931363 1870728 1829001 
3808.110 1816989 1835256 1875786 1927769 1981755 2032219 2077994 2120878 
3811.968 2162400 2201362 2232767 2248821 2240894 2203527 2138791 2057187 
3815.825 1978959 1925273 1910130 1935657 1991841 2060915 2121444 2156107 
3819.682 2151978 2106860 2030255 1943079 1871061 1833892 1839416 1881577 
3823.540 1946307 2016007 2075298 2115117 2132398 2130933 2119346 2107693 
3827.397 2103098 2108092 2119846 2132165 2139291 2137093 2124940 2106194 
3831.255 2086684 2072334 2068206 2076829 2097404 2127404 2162500 2197133 
3835.112 2225441 2241494 2240461 2219912 2181015 2128902 2072368 2021433 
3838.969 1982887 1960952 1955127 1961518 1975098 1991508 2007152 2019902 
3842.827 2029855 2037379 2044270 2052859 2065443 2083421 2107926 2138259 
3846.684 2172890 2210087 2247722 2285226 2322800 2360477 2397225 2429244 
3850.542 2448703 2443938 2402455 2314938 2181414 2017538 1855122 1728326 
3854.399 1661400 1658739 1707502 1788009 1881411 1974565 2059983 2134696 
3858.257 2197632 2248588 2287058 2311907 2322567 2320035 2306377 2285092 
3862.114 2259279 2230469 2199297 2165863 2132265 2103431 2086817 2088282 
3865.971 2110622 2149613 2195068 2232334 2248221 2233534 2188341 2123475 
3869.829 2058352 2013344 2000628 2019403 2057553 2099602 2130367 2141222 
3873.686 2133331 2115317 2100068 2100268 2122742 2166629 2224774 2285392 
3877.544 2336491 2368173 2374203 2354081 2313473 2263875 2218347 2189407 
3881.401 2184112 2201828 2234899 2271170 2297783 2303679 2284326 2243225 
3885.259 2193003 2151345 2134529 2151611 2200530 2270404 2344586 2407387 
3889.116 2446237 2453468 2429610 2381532 2321967 2264974 2222410 2200629 
3892.973 2200663 2218980 2249887 2288323 2329495 2369672 2406220 2436308 
3896.831 2457100 2466530 2463398 2447637 2422213 2391561 2361110 2336191 
3900.688 2319569 2310974 2307377 2304146 2297317 2284626 2267839 2250586 
3904.546 2238696 2236997 2247555 2269205 2298449 2330428 2360977 2387329 
3908.403 2408453 2425379 2440106 2454034 2468630 2484392 2501021 2518117 
3912.260 2535314 2552111 2567577 2581142 2590809 2594909 2592409 2582842 
3916.118 2567643 2549545 2531881 2517750 2509385 2507353 2510685 2518284 
3919.975 2528515 2539680 2550379 2559011 2563444 2562744 2555745 2542480 
3923.833 2525349 2507686 2493256 2485958 2487757 2498021 2514751 2534381 
3927.690 2553478 2569310 2580476 2586142 2586509 2582109 2573043 2560244 
3931.548 2545046 2528982 2514751 2505553 2502854 2507953 2520150 2537180 
3935.405 2555945 2574110 2589275 2600808 2609142 2615242 2620342 2625042 
3939.262 2628909 2630309 2627376 2618409 2602942 2581809 2558178 2536181 
3943.120 2520117 2513385 2517017 2529615 2547745 2566843 2582842 2592875 
3946.977 2596275 2594109 2589242 2584376 2581742 2582342 2585709 2590775 
3950.835 2596642 2602642 2609242 2617375 2627476 2639643 2653078 2666380 
3954.692 2677748 2686083 2690850 2691984 2690517 2687116 2682682 2677848 
3958.550 2672647 2667480 2663012 2659312 2657045 2656512 2657745 2660679 
3962.407 2665246 2671380 2678715 2687383 2696652 2705354 2712955 2718457 
3966.264 2721524 2722991 2724158 2726559 2731527 2739630 2749733 2760136 
3970.122 2768740 2773108 2772641 2767339 2758503 2748132 2738096 2729760 
3973.979 2723692 2720257 2719090 2719757 2722124 2725692 2730393 2735795 
3977.837 2741430 2746965 2752300 2757302 2762137 2767006 2772141 2777443 
3981.694 2782978 2788481 2793616 2798518 2802821 2806222 2808757 2810157 
3985.552 2810024 2808923 2806889 2804555 2802554 2800986 2800053 2799786 
3989.409 2799952 2800486 2801820 2803954 2806455 2809057 2810524 2809757 
3993.266 2805822 2798819 2789248 2779344 2771641 2767773 2769240 2776176 
3997.124 2786980 2799486 2811725 2821529 2828366 2832302 2834069 2834703 
##END=
