
##TITLE=Z316_3_b
##JCAMP-DX=5.01  $$ Nicolet v. 1
##DATATYPE=INFRARED SPECTRUM
##ORIGIN=UniL
##OWNER=Nicolet
##LONGDATE=2011/09/09
##TIME=13:14:29
##SPECTROMETER/DATA SYSTEM=Nicolet iS5
##DATA PROCESSING=
Ratio against background
%Transmittance->Absorbance
Truncated
ElementMultiply or ElementDivide
##COMMENTS=
Number of sample scans: 32
Collection length: 51.19 sec
Sample gain: 2.0
Background collected on: Ven Sep 09 13:04:26 2011 (GMT+02:00);
Number of background scans: 32
Background gain: 2.0
Sample spacing:  1.000
Number of scan points: 12415
Resolution points: 8192
Number of FFT points: 65536
Apodization: N-B fort;
Phase correction: Mertz;
Laser frequency: 15798.0 cm-1
Number of rejected sample scans: 0
Number of rejected background scans: 0
Bench serial number: ASB1000141;
##RESOLUTION=4.000
##XUNITS=1/CM
##YUNITS=ABSORBANCE
##FIRSTX=649.893372
##LASTX=4000.122314
##FIRSTY=0.088177
##MAXX=4000.122314
##MINX=649.893372
##MAXY=0.242509
##MINY=0.002272
##XFACTOR=1.000000
##YFACTOR=1.000000E-009
##NPOINTS=6950
##DELTAX=0.482117
##ZPD=6100
##XYDATA=(X++(Y..Y))
649.893 88177096 88225768 88371896 88606816 88903744 89228784 89554808 
653.268 89874304 90196368 90540584 90920568 91334616 91763520 92181448 
656.643 92565704 92908600 93218672 93510920 93797808 94079960 94343760 
660.018 94568872 94740400 94852672 94913600 94938464 94943824 94941512 
663.393 94936360 94926296 94902928 94851936 94745184 94539616 94177120 
666.767 93597016 92773280 91752952 90663616 89653280 88822880 88187968 
670.142 87697912 87274224 86839744 86343200 85761872 85105664 84403400 
673.517 83691304 82995288 82323144 81669624 81024792 80383912 79750904 
676.892 79135864 78547864 77988776 77453920 76933768 76421984 75921344 
680.267 75441136 74993752 74586448 74216432 73871792 73537704 73202696 
683.642 72865952 72537688 72234016 71968600 71746808 71562992 71403736 
687.016 71255504 71109320 70963960 70824816 70698232 70586104 70484992 
690.391 70386368 70282152 70168928 70049696 69930616 69819272 69718304 
693.766 69625296 69533896 69438168 69336048 69230840 69128960 69035456 
697.141 68950592 68868344 68778192 68669904 68538824 68387456 68225248 
700.516 68064192 67914040 67779888 67661432 67554312 67453872 67357232 
703.890 67262728 67169888 67077384 66982076 66879256 66765488 66638880 
707.265 66500724 66353464 66199200 66037536 65866484 65683672 65490140 
710.640 65293856 65110356 64960032 64863376 64835684 64878188 64976804 
714.015 65097736 65196172 65220080 65119520 64859764 64425640 63826852 
717.390 63096560 62290392 61478808 60733480 60126508 59717888 59545812 
720.765 59624332 59933808 60419968 60987996 61518012 61881908 61956460 
724.139 61661236 60971256 59928900 58631468 57211856 55809760 54531168 
727.514 53440316 52552860 51847656 51283396 50816256 50414620 50057600 
730.889 49733976 49436700 49158176 48889764 48626004 48366372 48116108 
734.264 47883560 47675724 47493164 47329784 47174364 47016160 46849264 
737.639 46674432 46497048 46324084 46159924 46004632 45855580 45710112 
741.013 45568372 45433820 45310376 45199576 45097704 44996588 44886644 
744.388 44761376 44621448 44473864 44330144 44200152 44088428 43992536 
747.763 43906232 43822436 43737852 43654124 43575324 43504632 43441132 
751.138 43378404 43307452 43221724 43119948 43008792 42898692 42801012 
754.513 42722916 42665448 42624544 42594208 42570232 42550936 42536688 
757.888 42527440 42521120 42513408 42500508 42482092 42463240 42454212 
761.262 42466820 42509352 42585144 42691840 42824964 42982820 43170484 
764.637 43399568 43688016 44056556 44522980 45103588 45809364 46642964 
768.012 47594084 48634492 49717632 50780204 51764704 52640900 53431624 
771.387 54221048 55144804 56355940 57955860 59943472 62167876 64349776 
774.762 66103428 67031836 66857964 65477700 63014804 59764384 56142580 
778.136 52566248 49354580 46716932 44720380 43323816 42420164 41884616 
781.511 41609432 41510840 41537272 41658152 41852508 42107000 42413476 
784.886 42769896 43180220 43652368 44194320 44810264 45501696 46269640 
788.261 47118892 48062288 49120548 50317580 51679604 53229584 54985776 
791.636 56967060 59193440 61687168 64470648 67557632 70942304 74586408 
795.010 78416352 82317176 86130392 89678784 92765768 95195856 96815384 
798.385 97524176 97308264 96245808 94507864 92331792 89966416 87658824 
801.760 85598616 83887928 82540984 81481672 80573936 79644496 78539456 
805.135 77159256 75479576 73559880 71523448 69527520 67707120 66149340 
808.510 64870416 63818828 62893920 61976332 60970036 59814428 58497580 
811.885 57045952 55510440 53946232 52397508 50898204 49470004 48127692 
815.259 46884588 45752960 44742052 43856560 43094152 42446468 41901840 
818.634 41449488 41081660 40794568 40587336 40459556 40410240 40437988 
822.009 40542264 40726076 40996296 41364016 41841452 42438832 43161044 
825.384 44004416 44955028 45985660 47055448 48112292 49089200 49916408 
828.759 50530776 50884200 50960092 50778600 50399064 49905112 49397864 
832.133 48981108 48737160 48724856 48965940 49441560 50089840 50810000 
835.508 51481364 51966064 52140388 51920280 51272208 50225772 48862216 
838.883 47304288 45682136 44110136 42678716 41437748 40403656 39568076 
842.258 38909068 38399584 38012448 37725068 37516912 37369876 37270112 
845.633 37207368 37176540 37176324 37207296 37268992 37359008 37471976 
849.008 37602604 37747876 37908412 38088508 38293972 38529408 38795616 
852.382 39089868 39407356 39743668 40097720 40471812 40870612 41299840 
855.757 41764696 42269196 42818344 43420072 44084980 44828084 45666640 
859.132 46617140 47696952 48923364 50313188 51884616 53651864 55617456 
862.507 57761888 60034352 62349024 64578788 66578508 68198112 69298496 
865.882 69785064 69613160 68798000 67409200 65564624 63414312 61107736 
869.256 58791304 56585896 54572944 52804420 51299876 50055780 49053772 
872.631 48268640 47674952 47247060 46962628 46802356 46748224 46785752 
876.006 46904816 47099760 47370132 47718624 48148756 48661436 49252800 
879.381 49912356 50625332 51372632 52134112 52891540 53628808 54334288 
882.756 55002136 55630904 56224672 56789088 57330640 57853488 58358660 
886.131 58844952 59312460 59765224 60215376 60681576 61185972 61750072 
889.505 62387200 63098976 63874484 64693756 65530828 66358604 67154144 
892.880 67896608 68566760 69147568 69620464 69967480 70174224 70228864 
896.255 70125312 69863440 69449136 68894592 68219744 67453552 66630656 
899.630 65789872 64970224 64202832 63508912 62898480 62370600 61917944 
903.005 61531340 61203668 60931148 60713204 60550868 60444912 60395672 
906.379 60403176 60468636 60595512 60788624 61053812 61396096 61817916 
909.754 62320036 62902196 63564644 64309588 65140696 66062264 67077660 
913.129 68189088 69398280 70709344 72131192 73679648 75377632 77249616 
916.504 79321128 81611488 84130528 86875072 89825568 92944344 96165096 
919.879 99393248 102509072 105362432 107802992 109702856 110978896 111625416 
923.254 111722984 111445200 111021720 110724080 110832048 111571600 
926.146 113105616 115498944 118706624 122567080 126808104 131094680 
929.039 135019104 138165456 140172560 140736912 139677632 136952416 
931.932 132661272 127037392 120411432 113198400 105813904 98637992 91997288 
935.306 86109456 81101792 77022224 73855488 71552832 70050784 69288824 
938.681 69204800 69727440 70769232 72202008 73856352 75541552 77041848 
942.056 78160896 78755400 78743448 78127136 76981560 75445392 73683496 
945.431 71859280 70120208 68566840 67256536 66206956 65406508 64827448 
948.806 64436248 64203904 64105808 64121820 64235636 64430788 64691448 
952.181 65004280 65358632 65748580 66171796 66627756 67115400 67631576 
955.555 68170744 68727392 69297176 69878576 70472640 71081568 71705688 
958.930 72343208 72989688 73639720 74289632 74938984 75590208 76246920 
962.305 76911976 77585624 78265752 78949168 79634104 80321472 81014696 
965.680 81717656 82432408 83157856 83889704 84623616 85357096 86092096 
969.055 86834688 87593544 88376040 89187000 90027888 90898472 91799368 
972.429 92734184 93708920 94730712 95805280 96934160 98115488 99344888 
975.804 100618464 101934128 103291776 104691216 106128976 107597064 
978.697 109082904 110570568 112044688 113491760 114899208 116254376 
981.590 117541976 118742464 119836144 120806320 121644048 122351536 
984.482 122940720 123430712 123840656 124188568 124489408 124756056 
987.375 125003336 125248016 125507024 125796512 126126248 126499232 
990.268 126912384 127360864 127840784 128352016 128897560 129479888 
993.160 130098240 130746648 131415192 132093192 132773760 133455144 
996.053 134139688 134829968 135525248 136218592 136899232 137555296 
998.946 138179440 138771200 139336848 139886128 140427344 140966048 
1001.839 141505232 142046864 142596784 143164432 143762208 144401808 
1004.731 145089760 145826512 146607840 147429248 148290192 149196896 
1007.624 150159632 151190064 152295232 153475136 154722688 156026992 
1010.517 157378256 158768304 160190944 161639312 163102272 164564368 
1013.409 166009888 167427312 168815680 170185920 171559600 172961216 
1016.302 174412336 175928336 177516848 179181872 180926832 182756016 
1019.195 184672384 186673936 188750400 190883584 193051952 195240592 
1022.087 197446416 199682096 201970224 204337616 206804384 209377824 
1024.980 212053024 214816496 217651648 220539040 223456320 226371120 
1027.873 229234016 231982320 234542096 236836048 238800176 240382992 
1030.766 241546128 242262544 242509296 242269648 241539936 240337024 
1033.659 238704096 236702928 234409712 231895232 229210752 226388560 
1036.552 223440832 220370176 217179440 213877936 210482976 207020256 
1039.446 203520800 200021808 196571760 193224800 190040192 187073040 
1042.339 184355824 181890880 179641344 177541632 175505056 173446304 
1045.232 171305776 169055152 166703792 164289248 161869056 159505584 
1048.125 157253632 155161296 153261376 151571536 150094736 148817824 
1051.018 147714640 146747648 145877600 145068240 144290656 143527360 
1053.911 142768208 142006336 141234480 140442512 139618304 138751456 
1056.804 137834368 136863504 135836944 134751376 133600024 132373320 
1059.697 131062376 129663008 128180488 126629696 125031920 123410856 
1062.590 121789544 120186416 118616704 117094072 115630464 114237240 
1065.483 112921648 111684200 110516552 109402664 108322792 107257472 
1068.376 106192984 105124136 104053832 102991112 101947288 100935384 
1071.269 99967424 99055016 98209112 97439240 96751208 96145992 95618624 
1074.645 95159512 94755032 94392672 94060864 93749000 93446568 93139864 
1078.020 92811224 92441960 92014528 91519072 90957336 90343944 89704248 
1081.395 89067968 88467024 87929704 87479048 87135544 86917008 86839176 
1084.770 86917408 87163648 87586256 88190120 88976656 89945672 91093888 
1088.146 92413720 93887216 95479616 97139112 98792952 100354456 101741768 
1091.521 102882800 103732896 104282096 104554696 104604952 104503360 
1094.414 104334672 104181344 104113880 104192120 104455104 104921672 
1097.307 105591472 106446256 107452424 108560208 109711344 110835128 
1100.200 111849120 112671144 113217840 113417280 113224888 112627128 
1103.093 111648424 110342952 108790552 107080552 105294864 103508920 
1105.986 101780464 100148528 98638488 97260920 96013336 94882392 93846384 
1109.361 92878520 91949584 91033368 90108536 89158400 88171776 87140688 
1112.737 86059608 84926856 83745584 82525520 81281544 80034144 78804856 
1116.112 77611768 76469552 75387648 74370784 73421744 72542392 71734504 
1119.487 70998840 70334352 69737136 69199904 68713688 68267592 67848960 
1122.862 67443456 67032456 66591984 66095284 65513380 64820984 64003780 
1126.238 63060200 62004572 60863020 59671240 58467144 57283948 56149368 
1129.613 55081456 54088740 53172244 52326784 51543180 50809888 50115052 
1132.988 49448656 48803592 48177076 47570608 46989392 46440368 45931408 
1136.363 45469428 45060172 44708152 44417080 44190140 44029604 43936988 
1139.739 43911840 43952236 44055128 44217284 44435944 44709584 45037052 
1143.114 45417152 45847000 46321908 46835352 47380184 47949456 48536960 
1146.489 49137320 49744756 50352516 50953088 51538628 52102804 52642472 
1149.864 53158052 53652992 54131904 54599320 55058440 55511264 55959100 
1153.240 56404080 56848568 57295024 57744668 58196292 58645500 59086104 
1156.615 59510852 59912660 60285112 60622140 60916280 61159152 61340264 
1159.990 61448464 61474268 61410064 61250748 60993408 60635784 60175868 
1163.365 59612284 58944940 58177424 57316648 56373972 55363208 54298088 
1166.740 53192844 52059884 50910052 49754972 48605512 47472984 46368912 
1170.116 45302652 44282000 43312172 42396748 41537856 40738048 40000016 
1173.491 39326568 38720628 38183868 37716684 37318388 36988132 36725836 
1176.866 36532720 36411168 36365048 36397872 36513004 36713540 37002960 
1180.241 37385548 37867200 38454500 39154116 39972296 40913352 41980848 
1183.617 43177876 44506788 45969232 47563288 49281196 51105164 53005816 
1186.992 54944600 56870816 58728448 60460792 62008396 63317276 64342060 
1190.367 65047272 65415448 65448420 65168872 64615772 63840552 62902040 
1193.742 61854324 60746052 59615476 58486740 57372572 56275140 55190100 
1197.118 54109496 53026328 51938164 50848664 49768052 48710916 47695028 
1200.493 46736748 45848656 45038636 44309556 43659768 43084932 42579188 
1203.868 42135148 41743612 41393576 41071460 40761524 40448680 40119236 
1207.243 39763532 39377028 38960316 38517820 38056532 37585408 37114280 
1210.619 36653224 36213972 35808632 35448528 35144876 34906208 34738588 
1213.994 34645888 34630276 34693440 34836840 35062036 35369764 35759732 
1217.369 36229964 36777512 37399744 38095020 38863664 39707072 40627284 
1220.744 41625440 42701640 43855752 45088184 46401692 47801068 49292996 
1224.120 50883564 52576232 54369848 56258392 58229708 60265276 62340608 
1227.495 64423836 66473348 68442960 70280824 71933176 73353832 74503048 
1230.870 75353280 75891312 76120088 76061576 75755816 75266744 74676480 
1234.245 74075416 73564712 73239528 73181528 73462864 74136680 75240888 
1237.621 76801720 78832160 81332600 84286592 87660728 91399064 95421288 
1240.996 99633496 103923072 108164008 112232048 115994024 119319048 
1243.889 122094352 124222264 125637904 126315400 126265896 125534104 
1246.782 124188568 122320656 120032232 117428808 114620128 111698904 
1249.675 108732920 105756672 102763480 99711816 96535840 93170416 89566456 
1253.050 85709480 81626320 77385016 73085144 68833912 64743132 60907660 
1256.426 57391520 54232612 51437120 48987672 46849228 44978620 43332748 
1259.801 41869364 40554164 39361244 38270236 37268092 36345524 35494980 
1263.176 34710128 33984376 33311344 32685940 32104672 31565792 31069084 
1266.551 30614570 30201522 29828258 29492230 29190834 28922620 28687628 
1269.927 28486940 28321744 28192356 28097082 28033248 27997410 27987550 
1273.302 28003064 28045688 28117974 28222552 28361074 28533220 28736478 
1276.677 28966042 29214472 29470704 29719994 29946278 30131660 30261450 
1280.052 30326856 30326074 30264434 30151548 29999104 29816406 29609236 
1283.427 29380078 29129956 28860362 28575294 28281746 27988224 27704644 
1286.803 27439426 27199910 26992080 26820650 26689488 26601200 26556042 
1290.178 26550936 26579960 26635408 26709328 26795662 26891498 26997192 
1293.553 27114798 27247146 27396862 27565906 27756562 27971860 28215764 
1296.928 28492848 28807036 29160750 29554684 29989128 30463812 30980006 
1300.304 31539000 32140668 32780904 33449530 34130768 34803276 35444356 
1303.679 36034040 36556256 37001624 37367784 37658284 37882564 38054036 
1307.054 38190452 38310768 38433212 38573036 38739464 38934656 39154844 
1310.429 39392736 39638928 39885516 40126212 40355696 40568420 40757848 
1313.805 40915828 41034240 41106716 41129628 41102384 41026996 40906472 
1317.180 40744560 40544592 40311120 40050340 39769996 39480108 39189796 
1320.555 38906712 38635544 38378156 38135608 37909896 37705444 37530168 
1323.930 37394108 37307408 37279536 37317628 37426936 37611852 37875440 
1327.306 38218344 38636416 39118076 39643904 40185528 40711776 41193304 
1330.681 41605896 41935924 42179836 42343524 42438684 42480120 42484176 
1334.056 42465908 42439164 42416440 42406900 42417132 42450888 42509752 
1337.431 42595304 42711104 42863360 43061732 43316752 43636392 44024692 
1340.807 44479372 44992768 45551852 46140728 46740400 47326752 47874128 
1344.182 48355184 48743872 49021832 49179660 49218104 49145444 48973692 
1347.557 48714624 48375704 47960852 47471212 46907584 46274432 45581180 
1350.932 44841640 44075112 43303056 42546148 41824812 41156476 40555216 
1354.308 40032132 39594172 39243364 38977384 38790328 38674228 38621096 
1357.683 38625224 38682340 38788624 38939616 39128300 39345868 39584700 
1361.058 39840156 40113892 40414132 40754244 41147876 41604620 42128468 
1364.433 42717172 43364272 44060152 44792632 45545040 46291496 46998700 
1367.809 47624588 48121400 48446156 48563156 48448824 48094932 47506656 
1371.184 46702652 45711180 44573864 43343548 42078744 40845640 39705148 
1374.559 38702188 37861700 37184592 36655820 36252724 35956936 35760848 
1377.934 35670444 35703788 35888696 36261012 36857756 37715564 38862756 
1381.310 40306212 42016324 43910700 45861508 47689924 49194244 50190992 
1384.685 50518532 50074296 48832924 46865396 44343060 41506504 38636668 
1388.060 35970792 33660436 31767946 30276016 29124748 28237438 27545148 
1391.435 26991588 26534346 26146378 25810372 25518476 25270710 25072156 
1394.811 24929556 24846852 24823030 24851342 24922044 25023576 25145038 
1398.186 25277594 25413774 25548592 25679304 25805204 25926072 26041628 
1401.561 26149756 26247632 26332256 26401968 26458592 26507508 26557100 
1404.936 26615362 26687552 26774412 26872922 26978470 27087958 27201886 
1408.312 27323992 27459686 27613570 27788140 27982674 28195292 28424710 
1411.687 28672088 28940576 29234388 29556104 29905030 30277508 30668972 
1415.062 31076094 31499096 31942018 32411664 32915742 33460196 34048480 
1418.437 34680412 35350604 36049632 36763448 37474432 38163212 38812176 
1421.813 39409536 39951916 40449804 40927912 41423900 41976800 42617456 
1425.188 43361744 44209136 45150164 46174408 47276284 48452044 49694000 
1428.563 50985240 52294344 53579476 54800304 55926800 56947948 57872604 
1431.938 58725000 59536312 60336696 61155336 62020740 62965468 64033232 
1435.313 65276100 66746360 68481904 70482544 72711080 75107176 77606856 
1438.689 80150848 82675920 85110704 87354000 89277616 90754096 91660424 
1442.064 91908272 91458456 90315672 88525768 86162552 83328344 80137856 
1445.439 76705120 73149680 69582624 66110520 62845744 59889268 57318088 
1448.814 55167488 53423008 52031832 50923876 50041356 49350384 48846344 
1452.190 48542780 48455640 48587500 48924104 49435212 50085192 50845012 
1455.565 51690092 52603236 53568156 54567048 55579384 56585896 57576664 
1458.940 58547816 59500324 60436188 61357820 62264772 63150592 64003200 
1462.315 64798096 65496348 66052580 66419176 66565492 66491732 66232808 
1465.691 65845892 65385824 64894736 64393820 63889376 63380384 62862524 
1469.066 62326076 61752060 61107816 60349448 59431856 58332776 57075688 
1472.441 55740704 54439776 53278992 52322000 51580228 51032008 50647448 
1475.816 50408704 50316576 50385668 50631212 51060256 51665272 52429360 
1479.192 53332036 54359184 55508332 56787084 58210040 59791192 61540692 
1482.567 63462860 65561576 67845936 70334432 73052840 76022968 79249472 
1485.942 82697528 86272992 89828384 93150832 95982624 98065072 99152256 
1489.317 99070248 97765632 95329208 91987904 88036176 83779296 79451296 
1492.693 75189120 71060456 67074216 63220188 59507092 55972596 52691248 
1496.068 49761064 47269224 45265212 43747524 42678900 42002676 41663768 
1499.443 41620372 41839920 42295600 42961820 43807408 44795424 45886180 
1502.818 47027940 48159084 49205112 50057264 50576044 50595212 49952356 
1506.194 48566008 46502172 43975228 41245804 38515176 35880492 33357068 
1509.569 30929374 28586370 26332468 24195952 22215886 20423486 18838066 
1512.944 17458256 16267464 15240742 14351458 13575184 12888825 12273485 
1516.319 11716537 11213070 10767041 10386417 10075776 9830697 9635045 
1519.695 9462847 9288076 9094225 8885512 8686871 8531066 8439163 8409231 
1523.552 8420413 8443453 8454129 8439366 8401732 8355251 8317522 8299420 
1527.409 8300264 8310667 8320022 8323434 8324007 8329918 8348394 8379402 
1531.267 8413893 8436021 8429265 8387374 8319245 8249033 8202568 8195748 
1535.124 8227151 8282737 8342787 8390686 8416764 8418352 8397982 8359608 
1538.982 8305837 8237045 8154657 8066953 7988884 7935564 7915013 7922977 
1542.839 7944877 7962054 7960738 7937588 7901280 7867674 7852626 7862714 
1546.697 7893856 7933404 7967488 7987028 7991010 7986656 7984361 7991955 
1550.554 8009539 8029689 8041030 8034718 8008425 7967521 7922774 7885759 
1554.411 7864232 7857957 7860994 7863423 7855763 7828740 7773854 7684741 
1558.269 7561424 7417852 7281605 7184745 7146613 7167261 7233021 7324129 
1562.126 7420616 7504651 7565133 7598818 7611159 7613485 7618442 7633853 
1565.984 7659516 7687946 7708991 7715028 7703966 7681065 7656177 7640867 
1569.841 7643632 7667171 7710576 7771256 7847329 7936880 8036676 8140377 
1573.698 8238295 8319279 8375788 8408657 8430683 8463691 8530390 8641679 
1577.556 8795192 8979471 9182747 9398409 9626238 9871099 10139535 10436781 
1581.413 10764018 11119170 11498055 11896171 12307706 12724715 13134339 
1584.789 13517756 13852830 14119973 14305945 14409442 14441606 14425850 
1588.164 14392283 14373753 14403825 14510155 14715385 15035125 15474781 
1591.539 16026568 16664432 17346306 18012260 18592664 19024062 19252564 
1594.914 19248062 19008416 18559708 17950062 17237558 16485434 15748078 
1598.290 15067165 14474526 13988109 13616278 13358669 13208762 13156880 
1601.665 13192879 13309879 13503912 13772312 14111964 14515670 14970747 
1605.040 15460978 15965238 16459588 16918912 17314410 17616816 17800564 
1608.415 17844510 17738500 17484576 17098126 16606251 16043929 15452326 
1611.791 14868489 14321287 13828304 13393386 13010455 12667331 12350862 
1615.166 12050463 11762460 11492271 11253498 11063119 10933776 10869018 
1618.541 10862563 10901599 10968708 11046635 11120666 11180023 11221197 
1621.916 11248296 11272712 11307908 11364807 11447534 11553073 11674160 
1625.292 11803178 11935403 12068587 12201267 12332147 12458326 12576970 
1628.667 12686094 12787158 12884526 12983416 13088033 13198787 13311621 
1632.042 13418196 13507604 13568757 13591457 13569236 13501725 13397384 
1635.417 13273665 13152611 13054330 12988878 12954842 12942280 12938286 
1638.792 12928865 12903366 12856572 12789444 12708782 12624314 12545286 
1642.168 12475955 12414205 12351885 12277336 12179082 12048249 11882651 
1645.543 11687434 11477642 11273629 11097653 10967893 10893038 10872415 
1648.918 10897216 10953926 11024374 11085451 11111420 11071684 10941286 
1652.293 10715517 10430196 10156324 9960220 9868658 9864320 9911335 9975104 
1656.151 10032914 10073707 10093851 10095615 10082796 10059431 10027251 
1659.526 9986597 9936252 9875031 9802025 9718155 9626034 9530614 9439210 
1663.384 9359507 9298434 9259576 9242076 9240587 9246036 9247898 9234969 
1667.241 9197908 9132326 9039551 8927586 8809122 8698939 8608691 8545055 
1671.098 8508933 8496127 8498492 8504676 8502242 8477983 8422541 8334208 
1674.956 8223301 8110095 8015952 7955372 7929287 7927937 7936508 7942279 
1678.813 7938668 7927431 7915959 7912989 7922673 7940220 7952065 7937285 
1682.671 7876176 7758168 7592917 7411617 7256469 7157863 7120610 7129939 
1686.528 7163118 7201588 7232144 7248518 7249495 7236457 7212908 7183667 
1690.385 7155034 7133981 7125932 7133274 7153148 7177233 7191852 7182757 
1694.243 7138899 7060121 6960752 6868104 6810006 6799573 6829596 6877596 
1698.100 6916108 6918229 6867329 6763628 6631254 6510691 6436768 6422880 
1701.958 6458460 6521555 6588965 6643332 6674353 6678829 6660424 6628899 
1705.815 6596467 6573087 6563668 6567537 6580320 6596602 6611841 6624525 
1709.673 6636031 6649691 6669306 6697302 6733711 6776350 6821551 6865579 
1713.530 6905840 6941325 6971021 6994019 7007386 7007151 6990348 6958159 
1717.387 6918196 6883588 6868440 6880794 6920586 6980146 7048570 7115153 
1721.245 7172112 7216310 7248653 7273485 7295723 7319984 7348527 7381554 
1725.102 7418020 7456513 7495448 7533037 7566853 7593895 7611799 7619521 
1728.960 7618948 7614969 7612339 7614126 7617936 7615542 7593085 7534689 
1732.817 7429784 7280055 7106430 6942503 6821921 6760902 6754004 6782004 
1736.675 6822326 6856524 6871941 6863290 6832827 6789072 6743504 6706353 
1740.532 6684078 6677449 6683606 6698109 6716986 6737447 6757975 6778436 
1744.389 6799438 6821450 6845214 6870224 6895405 6918970 6939103 6953749 
1748.247 6961964 6962435 6954893 6939036 6915267 6885844 6854403 6826735 
1752.104 6808357 6802232 6807886 6820878 6833231 6835823 6820912 6784865 
1755.962 6730413 6666009 6604003 6555023 6523708 6507596 6498246 6485869 
1759.819 6461284 6419652 6361648 6293331 6223648 6161974 6115430 6086733 
1763.677 6075409 6078165 6090127 6105584 6118488 6122789 6115463 6096477 
1767.534 6070134 6043523 6023735 6013521 6010598 6007205 5993834 5962727 
1771.391 5912140 5848999 5787143 5741747 5721972 5728787 5756285 5795605 
1775.249 5839663 5885035 5931219 5979523 6029983 6079945 6124671 6159016 
1779.106 6179383 6186004 6183113 6177232 6174610 6178005 6186205 6194877 
1782.964 6199716 6197666 6189264 6177736 6167889 6163789 6167351 6178207 
1786.821 6194742 6215077 6237563 6260421 6281196 6295920 6299652 6287549 
1790.678 6256757 6208859 6150615 6092412 6044498 6013521 6000352 6000956 
1794.536 6008448 6017015 6022357 6022626 6017317 6006365 5989131 5965078 
1798.393 5933335 5894507 5850880 5805981 5764545 5730298 5705521 5689944 
1802.251 5682827 5681753 5684975 5691152 5699076 5707670 5716029 5723180 
1806.108 5729157 5734327 5740035 5747421 5756990 5768373 5780259 5791273 
1809.966 5800205 5807458 5814174 5822066 5832174 5844969 5859376 5874254 
1813.823 5888663 5902870 5917884 5935317 5956479 5981673 6009725 6038954 
1817.680 6067144 6092748 6115363 6135156 6153404 6171552 6190104 6209598 
1821.538 6229396 6247816 6262270 6269934 6268153 6256253 6236555 6213632 
1825.395 6194440 6184693 6187214 6200053 6218001 6232858 6237261 6227412 
1829.253 6204489 6175518 6150211 6137878 6143557 6166914 6203548 6247816 
1833.110 6295416 6343996 6393490 6445108 6499659 6556806 6614869 6671897 
1836.968 6726543 6779379 6832894 6890388 6954994 7028702 7111246 7199971 
1840.825 7291241 7380509 7463592 7537521 7602088 7660359 7718974 7785930 
1844.682 7869124 7971335 8090616 8219148 8347549 8465854 8566515 8646276 
1848.540 8705430 8746809 8773924 8788531 8790289 8777001 8746302 8697047 
1852.397 8631032 8552152 8465009 8372951 8277704 8178461 8074446 7965564 
1856.255 7854279 7745047 7642857 7551175 7470907 7399315 7332621 7266813 
1860.112 7199904 7131826 7063994 6998127 6934457 6872783 6812463 6754306 
1863.969 6700666 6655074 6620219 6596568 6581161 6568008 6550415 6524044 
1867.827 6488594 6449245 6413599 6388682 6378325 6380646 6390699 6402199 
1871.684 6411077 6415818 6417701 6418912 6421131 6424292 6426982 6426882 
1875.542 6421972 6411649 6396113 6375568 6350485 6320428 6284793 6243580 
1879.399 6198238 6150715 6103332 6057366 6012345 5966758 5918858 5868075 
1883.257 5816256 5767634 5726638 5696692 5678429 5669231 5663927 5657549 
1887.114 5646572 5630125 5609918 5589377 5572227 5561218 5557661 5561722 
1890.971 5572831 5589612 5610254 5632810 5654259 5672084 5684808 5692764 
1894.829 5698001 5703775 5713075 5727243 5745474 5765855 5785967 5804973 
1898.686 5823308 5842316 5863440 5886379 5908513 5927356 5940086 5946301 
1902.544 5948417 5950768 5957890 5972401 5994338 6020509 6046514 6068152 
1906.401 6082634 6089488 6089388 6083742 6074233 6062037 6048328 6034956 
1910.259 6024205 6017284 6014630 6015571 6017452 6018594 6018527 6017452 
1914.116 6017620 6019770 6022391 6021282 6009859 5982849 5938105 5879359 
1917.973 5815182 5756453 5710926 5681148 5662853 5648955 5631970 5608072 
1921.831 5578469 5548264 5523632 5508698 5503564 5504504 5507255 5508329 
1925.688 5507692 5507222 5508832 5512121 5513900 5508832 5492457 5464137 
1929.546 5428303 5392573 5365769 5354163 5358523 5374592 5395358 5413977 
1933.403 5425653 5429444 5425317 5414447 5396431 5371036 5338397 5302036 
1937.260 5267222 5240828 5228319 5230399 5243075 5259039 5270744 5273494 
1941.118 5268731 5261152 5257463 5261789 5273259 5286843 5296603 5298481 
1944.975 5292746 5284394 5279632 5282751 5293987 5309516 5323470 5332090 
1948.833 5335210 5335981 5341013 5354397 5376504 5403510 5428404 5443468 
1952.690 5444072 5428370 5397270 5353424 5300124 5239587 5174331 5108514 
1956.548 5046462 4994071 4956266 4933610 4924361 4924294 4928081 4933409 
1960.405 4940614 4950702 4964410 4978955 4987971 4984016 4961360 4919166 
1964.262 4862469 4800150 4741927 4694396 4660368 4637259 4621586 4611305 
1968.120 4606316 4607655 4616931 4631365 4645598 4654607 4654808 4648311 
1971.977 4641747 4644526 4662812 4698248 4745344 4795762 4843806 4889443 
1975.835 4939006 5002585 5088064 5194517 5311394 5421358 5506819 5556788 
1979.692 5569944 5554137 5521920 5486417 5455346 5432329 5416661 5405154 
1983.550 5395089 5384924 5373384 5359899 5344267 5326992 5310791 5301433 
1987.407 5304854 5326153 5366876 5422499 5483967 5542089 5589477 5623109 
1991.264 5647143 5667519 5690918 5720562 5755211 5791172 5824585 5853835 
1995.122 5879158 5903575 5928867 5953523 5975055 5989568 5994271 5990743 
1998.979 5982580 5973846 5966892 5959435 5944722 5915230 5865522 5794598 
2002.837 5708308 5616900 5528934 5452662 5391063 5342824 5306497 5281979 
2006.694 5270039 5272823 5290163 5316996 5344535 5362918 5364930 5348996 
2010.552 5319344 5284528 5253438 5231405 5219232 5213832 5212424 5213028 
2014.409 5217287 5228554 5249347 5279497 5316962 5357718 5399316 5442965 
2018.266 5492055 5549203 5614684 5682559 5742989 5785632 5803596 5796545 
2022.124 5771395 5740505 5714452 5701089 5702399 5715358 5734931 5757125 
2025.981 5779353 5800978 5819883 5832040 5832241 5816760 5784893 5742687 
2029.839 5701459 5672622 5666277 5686587 5730734 5791038 5861694 5937601 
2033.696 6018930 6108340 6207279 6313402 6421535 6522799 6609285 6677718 
2037.553 6728361 6765917 6796577 6826062 6857332 6891567 6928060 6964355 
2041.411 7000012 7032137 7058337 7076523 7084976 7083561 7075310 7065847 
2045.268 7060728 7065577 7083292 7112594 7150621 7192358 7233324 7269138 
2049.126 7297037 7312369 7312133 7293533 7256436 7205462 7149274 7097909 
2052.983 7062311 7048469 7056282 7079183 7107777 7132298 7147354 7153619 
2056.841 7155775 7160053 7171068 7189057 7209977 7229213 7241915 7246969 
2060.698 7246800 7245082 7245183 7248350 7253302 7256840 7256941 7252561 
2064.555 7244239 7234469 7224531 7214491 7203643 7191246 7177165 7163219 
2068.413 7152272 7146209 7145535 7148634 7151598 7151160 7145670 7135598 
2072.270 7124180 7114581 7108485 7106160 7105588 7104342 7101344 7097437 
2076.128 7094440 7094541 7098616 7104510 7108417 7106699 7096696 7078914 
2079.985 7056417 7033383 7013919 7000517 6993177 6990281 6990651 6992537 
2083.843 6995668 7000618 7007184 7015165 7023280 7030520 7035740 7039209 
2087.700 7041195 7041263 7039444 7034023 7023583 7007757 6987284 6964119 
2091.557 6941763 6922808 6908972 6900521 6897391 6898939 6905638 6918667 
2095.415 6938059 6963176 6991156 7017253 7037154 7047930 7049109 7043788 
2099.272 7036447 7030958 7030049 7034528 7042812 7053824 7067227 7083292 
2103.130 7102826 7126201 7152306 7178883 7203879 7226990 7250136 7277393 
2106.987 7313144 7359614 7415931 7477345 7536914 7588938 7629873 7660123 
2110.844 7683392 7704809 7728351 7755807 7786234 7816932 7845103 7868585 
2114.702 7886332 7899020 7907421 7912887 7916599 7921323 7929220 7943392 
2118.559 7965293 7994317 8027630 8060540 8088388 8108170 8120695 8128898 
2122.417 8137676 8151383 8170864 8194093 8216514 8232723 8239004 8234580 
2126.274 8221141 8201961 8180453 8158810 8137102 8115630 8093890 8072117 
2130.132 8051730 8033334 8017133 8002148 7987129 7970458 7953314 7937285 
2133.989 7925035 7918793 7919265 7924259 7931683 7939039 7945889 7953955 
2137.846 7966239 7984834 8009775 8038228 8065299 8086126 8097232 8096760 
2141.704 8085957 8066581 8039444 8005691 7965665 7918421 7866122 7810725 
2145.561 7754053 7698232 7643160 7587454 7529261 7468143 7405213 7342697 
2149.419 7283660 7228304 7174740 7119363 7057427 6986240 6907053 6821720 
2153.276 6733577 6645048 6555191 6461823 6365246 6270708 6189701 6140365 
2157.134 6140667 6202406 6326211 6496733 6688923 6875644 7035067 7156146 
2160.991 7238579 7289455 7317255 7330397 7337271 7342764 7354020 7376599 
2164.848 7413571 7465480 7527305 7590017 7643227 7678468 7691015 7681470 
2168.706 7653884 7613249 7563414 7507044 7444682 7377341 7308359 7241140 
2172.563 7181005 7132432 7096865 7072717 7057831 7048133 7041195 7036178 
2176.421 7032002 7026917 7018566 7003750 6980011 6949136 6915873 6887493 
2180.278 6871234 6871571 6887493 6913920 6942773 6967048 6983917 6994860 
2184.135 7003783 7016545 7036514 7063860 7097505 7134723 7172954 7211729 
2187.993 7251315 7290804 7329959 7367298 7400831 7430727 7457457 7482503 
2191.850 7506471 7528722 7545545 7553737 7550265 7535430 7512741 7488234 
2195.708 7467199 7453243 7446536 7444109 7441648 7437469 7431402 7426312 
2199.565 7426312 7433593 7447817 7467098 7487660 7506876 7525249 7544263 
2203.423 7565572 7589781 7614295 7634359 7644947 7644408 7633246 7617262 
2207.280 7603268 7596794 7599930 7611395 7626771 7642317 7655604 7666598 
2211.137 7677828 7691318 7706731 7722077 7733714 7738200 7735232 7727474 
2214.995 7719683 7717456 7725113 7743125 7769198 7799896 7830730 7858665 
2218.852 7882654 7902596 7919029 7933708 7946666 7959557 7973123 7988614 
2222.710 8005894 8024491 8041772 8053991 8058886 8054294 8040523 8020069 
2226.567 7996039 7971436 7947712 7925272 7903136 7881541 7860926 7842809 
2230.425 7829853 7823646 7824995 7833092 7846519 7863558 7883195 7905363 
2234.282 7929625 7955979 7983214 8009640 8034144 8055915 8075425 8094262 
2238.139 8113740 8133963 8154252 8172552 8186463 8194566 8196897 8194870 
2241.997 8190886 8187408 8185348 8185281 8187138 8190886 8196762 8206047 
2245.854 8219587 8237417 8259164 8282905 8306479 8328500 8347786 8364134 
2249.712 8378322 8391226 8402914 8414197 8425954 8439231 8455887 8477543 
2253.569 8504506 8535627 8567629 8596085 8617242 8628057 8627619 8617580 
2257.427 8600884 8580370 8558708 8537385 8516502 8496093 8476327 8457711 
2261.284 8441190 8428487 8420379 8417609 8420278 8427575 8438623 8452576 
2265.141 8467948 8483625 8499033 8513393 8526538 8538906 8550462 8560769 
2268.999 8569319 8574726 8575402 8571381 8562797 8551747 8540730 8532485 
2272.856 8528667 8529579 8534444 8541068 8547928 8553741 8558235 8562020 
2276.714 8565805 8570028 8575267 8582229 8591049 8603013 8619034 8639853 
2280.571 8665644 8695661 8727336 8758710 8786874 8809697 8826266 8836173 
2284.428 8839116 8836207 8828193 8816561 8802732 8788767 8775987 8765236 
2288.286 8756513 8749277 8742414 8735619 8728857 8723211 8719764 8719594 
2292.143 8723043 8729162 8736498 8743294 8749041 8753504 8757696 8762936 
2296.001 8769901 8778421 8787753 8796577 8803341 8807567 8809392 8809224 
2299.858 8807905 8805944 8803441 8800500 8797017 8792825 8788328 8783324 
2303.716 8777474 8770205 8761009 8749649 8736870 8724327 8713273 8705531 
2307.573 8701509 8700427 8700258 8699176 8695357 8688325 8679063 8669294 
2311.430 8661148 8656112 8654794 8656788 8661115 8666523 8671559 8675480 
2315.288 8677508 8677136 8674871 8671085 8666961 8664426 8665137 8670545 
2319.145 8681700 8698365 8719256 8742820 8766418 8787381 8802596 8808716 
2323.003 8802190 8781024 8744240 8693193 8631674 8565500 8500756 8443217 
2326.860 8396867 8362851 8340254 8326338 8317929 8312389 8308404 8305229 
2330.718 8303270 8302696 8303202 8304992 8308572 8314584 8324615 8339950 
2334.575 8361061 8387104 8416326 8445649 8472239 8494303 8511197 8523327 
2338.432 8532315 8539311 8545360 8551138 8556613 8561986 8567697 8574219 
2342.290 8582094 8591996 8604399 8620149 8640733 8668618 8706106 8755499 
2346.147 8817947 8892784 8978017 9069865 9164202 9256631 9343155 9419978 
2350.005 9484588 9535152 9571021 9593378 9604997 9609164 9609875 9610214 
2353.862 9611400 9613737 9616176 9617735 9618107 9618751 9621664 9629422 
2357.719 9644870 9669025 9701924 9742755 9789756 9841001 9894894 9949473 
2361.577 10003008 10054446 10102873 10148115 10191091 10232748 10274375 
2364.952 10316650 10359269 10400908 10440413 10476255 10507552 10534879 
2368.327 10558744 10579522 10598025 10614357 10628278 10640231 10651097 
2371.703 10661691 10673882 10689130 10708317 10732838 10763610 10801823 
2375.078 10848974 10906662 10975810 11056831 11149052 11250778 11360249 
2378.453 11475567 11595576 11719499 11846999 11977703 12110867 12245605 
2381.828 12380657 12514523 12646317 12774908 12898758 13016226 13125050 
2385.204 13222629 13306974 13376745 13431798 13473322 13503058 13522883 
2388.579 13533958 13537239 13532557 13519807 13499024 13470143 13433712 
2391.954 13390174 13340252 13284495 13224132 13160329 13095204 13031214 
2395.329 12970102 12913879 12863739 12820260 12784190 12756584 12738738 
2398.705 12732359 12738910 12758870 12791765 12835652 12888382 12947469 
2402.080 13011412 13079495 13151893 13229598 13312919 13402682 13499366 
2405.455 13603115 13714584 13834050 13962002 14098239 14242702 14394441 
2408.830 14552776 14717612 14888444 15064969 15246370 15431108 15616165 
2412.206 15798828 15975861 16144712 16303720 16451605 16587455 16709849 
2415.581 16816814 16906304 16977136 17029028 17063282 17082582 17090234 
2418.956 17088750 17080238 17065178 17043848 17016350 16983546 16946232 
2422.331 16906442 16865518 16824286 16783130 16742080 16701447 16662816 
2425.707 16628696 16602222 16587213 16586525 16602395 16635720 16686847 
2429.082 16755614 16841474 16944268 17062868 17196224 17342616 17499856 
2432.457 17665540 17838330 18017164 18202048 18393718 18593562 18802878 
2435.832 19023544 19256686 19503056 19763156 20036530 20322228 20619438 
2439.208 20927322 21245580 21574764 21915592 22268722 22634528 23012908 
2442.583 23403016 23804432 24216936 24640918 25077598 25527998 25992554 
2445.958 26470564 26960384 27459368 27964192 28472080 28979820 29484570 
2449.333 29983872 30475222 30956558 31427134 31886708 32335628 32774438 
2452.708 33202138 33616152 34012608 34386224 34731232 35044116 35321420 
2456.084 35561468 35763116 35924576 36043008 36115196 36137232 36105400 
2459.459 36017628 35872392 35669116 35408696 35092392 34722836 34304068 
2462.834 33842184 33343938 32817316 32270488 31710092 31142370 30572584 
2466.209 30004926 29444926 28898466 28371510 27870628 27401380 26967540 
2469.585 26571718 26214124 25894382 25611360 25363716 25150056 24968930 
2472.960 24818680 24696890 24600520 24526820 24472130 24432486 24404024 
2476.335 24382156 24361932 24340066 24313116 24280530 24243180 24203170 
2479.710 24162990 24123792 24085264 24045094 24000374 23947854 23885570 
2483.086 23813566 23733384 23647760 23559564 23471456 23384974 23301724 
2486.461 23222686 23148870 23081110 23019966 22964664 22913838 22865290 
2489.836 22816222 22764680 22709306 22649820 22586464 22520122 22451238 
2493.211 22380274 22307508 22232766 22156152 22077986 21997426 21914268 
2496.587 21827328 21735252 21636926 21531866 21419732 21301604 21178640 
2499.962 21051988 20922976 20792574 20661658 20530642 20400566 20271676 
2503.337 20144526 20019318 19896440 19776264 19659764 19547834 19441372 
2506.712 19341382 19248062 19160408 19077274 18997098 18918008 18839280 
2510.088 18760632 18682002 18604076 18526926 18450548 18374670 18299426 
2513.463 18224472 18150672 18078230 18007216 17937562 17868746 17800286 
2516.838 17732634 17666748 17604188 17546948 17496338 17452910 17416040 
2520.213 17384998 17358412 17335720 17316926 17302618 17293272 17288860 
2523.589 17289204 17292686 17298652 17306340 17315686 17326960 17340996 
2526.964 17357824 17377516 17399242 17421798 17444702 17467088 17488508 
2530.339 17508722 17526836 17541840 17553260 17560438 17563128 17562232 
2533.714 17558540 17552674 17545362 17536770 17526558 17515242 17503860 
2537.090 17493786 17486782 17484818 17488680 17498926 17515416 17537496 
2540.465 17564612 17596768 17632896 17672442 17713892 17755102 17793970 
2543.840 17829250 17860426 17888392 17914668 17940878 17967708 17995060 
2547.215 18021930 18047178 18070078 18090838 18110424 18130428 18151640 
2550.591 18174476 18198386 18221776 18243270 18262034 18278138 18292272 
2553.966 18305786 18319610 18334196 18349472 18364680 18378542 18390572 
2557.341 18399454 18404778 18405780 18401840 18392160 18376088 18353206 
2560.716 18323206 18286502 18243962 18196312 18145282 18092290 18038128 
2564.092 17983870 17930104 17876826 17824246 17773120 17724108 17678620 
2567.467 17638522 17605188 17579620 17562232 17551950 17547466 17547258 
2570.842 17549948 17554986 17561988 17571340 17583312 17598184 17616022 
2574.217 17636968 17661296 17689422 17721486 17757898 17798284 17841540 
2577.593 17886664 17932210 17977550 18022482 18067590 18113604 18161174 
2580.968 18210858 18262034 18314564 18367930 18421752 18476168 18531594 
2584.343 18587892 18645336 18703898 18763332 18824018 18886272 18950438 
2587.718 19016760 19084752 19153622 19221602 19287306 19349454 19407588 
2591.094 19462476 19515046 19566792 19619306 19673424 19729592 19788090 
2594.469 19848574 19910350 19972828 20034692 20095312 20153966 20210890 
2597.844 20266746 20323164 20381778 20444360 20511952 20584730 20662040 
2601.219 20743150 20827438 20914352 21004308 21097622 21194608 21295550 
2604.594 21400168 21507702 21618050 21730898 21845970 21963652 22083772 
2607.970 22206122 22330180 22455286 22580392 22704732 22827572 22947966 
2611.345 23064618 23176376 23281274 23377946 23465056 23542004 23608402 
2614.720 23664976 23711864 23749974 23780176 23803102 23819446 23829948 
2618.095 23834988 23834954 23830192 23820776 23807056 23789486 23769222 
2621.471 23747174 23724706 23702976 23682504 23663786 23646992 23632052 
2624.846 23619666 23610360 23605182 23605182 23611200 23623480 23642198 
2628.221 23666936 23697132 23732266 23771706 23814862 23861136 23909832 
2631.596 23960108 24011196 24062884 24114614 24166526 24219004 24272084 
2634.972 24326222 24381594 24438166 24495794 24554656 24614442 24674724 
2638.347 24735856 24797664 24860256 24923942 24988794 25054780 25121934 
2641.722 25189242 25256418 25322724 25388200 25452912 25517986 25584544 
2645.097 25653468 25725496 25800808 25878768 25958854 26040326 26122836 
2648.473 26206346 26291140 26377356 26465670 26556184 26648796 26744036 
2651.848 26842222 26943250 27047864 27156310 27268280 27383698 27502574 
2655.223 27624412 27749922 27879178 28012962 28151558 28295220 28443636 
2658.598 28595996 28751558 28909586 29069088 29230102 29391742 29554472 
2661.974 29718148 29882774 30048634 30215838 30384206 30553670 30723948 
2665.349 30894684 31065666 31236750 31407938 31579834 31752828 31927430 
2668.724 32104064 32283124 32464720 32649074 32836434 33026916 33220414 
2672.099 33416680 33615040 33814604 34014400 34213540 34411296 34607204 
2675.475 34801156 34992500 35181092 35366532 35548484 35727280 35903632 
2678.850 36078432 36253196 36429652 36609136 36793344 36983872 37182100 
2682.225 37389812 37608568 37839504 38083628 38341308 38612256 38896096 
2685.600 39192484 39501084 39821668 40154012 40497416 40850952 41213268 
2688.976 41582812 41958076 42338700 42724744 43116580 43515656 43922728 
2692.351 44338472 44763280 45196636 45637708 46085640 46539384 46997920 
2695.726 47460900 47928400 48400520 48878640 49363672 49856456 50357392 
2699.101 50865868 51380840 51900672 52423376 52947348 53471308 53993920 
2702.477 54513924 55029816 55539960 56042292 56535132 57016968 57486216 
2705.852 57941132 58379428 58798212 59193668 59562424 59901176 60207460 
2709.227 60480136 60718504 60922528 61092216 61227400 61327864 61393656 
2712.602 61425484 61424532 61392052 61329388 61237244 61115328 60963364 
2715.978 60780160 60564960 60317736 60039112 59730852 59395120 59035196 
2719.353 58654376 58256684 57846220 57426804 57002652 56577556 56155136 
2722.728 55740024 55335920 54947304 54578464 54232124 53911080 53616364 
2726.103 53348296 53106716 52891764 52703704 52543472 52412536 52311460 
2729.479 52240452 52198600 52184144 52194716 52228308 52283204 52358104 
2732.854 52452240 52564864 52694652 52839972 52998740 53168688 53347920 
2736.229 53534572 53726928 53923648 54123156 54323732 54523840 54722196 
2739.604 54917752 55109596 55296968 55478548 55653348 55820080 55977948 
2742.979 56127384 56269708 56406984 56542188 56678152 56817068 56960488 
2746.355 57109132 57262852 57420976 57582416 57745612 57908836 58070036 
2749.730 58227016 58378708 58524120 58663704 58798324 58929496 59058772 
2753.105 59187512 59317092 59448800 59584276 59725072 59873220 60029332 
2756.480 60193416 60364488 60539744 60716484 60891080 61060636 61222136 
2759.856 61373312 61511180 61633512 61737660 61821164 61882748 61920996 
2763.231 61935096 61924284 61887604 61823720 61732120 61612436 61466440 
2766.606 61296612 61107356 60903276 60688932 60468520 60245024 60021304 
2769.981 59800168 59584196 59376848 59181252 58999632 58833760 58683884 
2773.357 58549184 58428664 58320876 58224476 58138104 58060456 57989676 
2776.732 57922996 57857084 57787852 57710344 57619716 57511408 57381008 
2780.107 57225504 57043116 56834368 56601068 56346696 56075580 55792240 
2783.482 55500912 55204512 54906508 54608788 54313936 54023932 53740428 
2786.858 53464488 53196064 52933984 52676172 52421132 52167064 51913072 
2790.233 51659972 51408664 51160364 50916272 50677496 50444316 50217664 
2793.608 49998192 49786592 49583644 49389880 49205224 49029364 48861400 
2796.983 48700428 48545520 48396408 48252236 48112552 47976544 47843456 
2800.359 47712188 47582108 47452396 47322504 47191836 47059804 46925340 
2803.734 46787448 46645360 46498484 46346976 46191724 46034208 45876016 
2807.109 45719056 45564616 45414248 45269000 45129136 44995228 44866840 
2810.484 44743484 44624644 44509540 44397592 44288712 44182724 44079588 
2813.860 43978820 43879876 43782304 43686040 43591956 43501740 43418320 
2817.235 43345380 43285924 43243244 43219456 43216012 43234204 43275312 
2820.610 43340436 43430732 43546756 43688124 43853152 44039432 44243772 
2823.985 44463072 44694340 44934888 45181892 45431760 45680220 45921388 
2827.361 46149240 46357776 46541672 46697196 46822436 46916480 46979828 
2830.736 47013908 47020368 47001392 46959192 46895884 46813836 46714976 
2834.111 46601352 46474920 46338056 46193240 46043568 45891076 45737540 
2837.486 45583680 45429148 45272788 45113624 44951060 44785468 44618000 
2840.862 44450260 44283064 44117144 43951908 43786664 43620424 43453212 
2844.237 43285524 43119216 42956408 42799184 42649544 42509352 42379540 
2847.612 42261160 42155448 42063268 41985300 41921800 41872612 41836964 
2850.987 41814200 41803440 41803876 41815512 41837696 41870020 41911912 
2854.363 41962200 42019428 42082576 42150336 42221172 42294028 42367264 
2857.738 42439232 42507672 42570600 42625348 42669832 42701528 42718344 
2861.113 42718344 42699956 42662412 42605500 42530032 42437112 42328732 
2864.488 42206968 42074364 41934168 41790084 41645900 41506392 41375896 
2867.864 41258120 41156292 41072552 41008020 40963304 40938544 40933304 
2871.239 40947028 40978128 41024228 41081692 41147184 41216948 41288324 
2874.614 41359716 41431080 41503000 41576976 41654032 41735184 41821020 
2877.989 41911364 42006252 42105428 42208392 42314448 42422976 42532996 
2881.365 42643732 42754832 42866324 42978428 43091332 43204996 43319056 
2884.740 43432672 43544996 43655260 43763172 43868764 43972112 44072916 
2888.115 44170840 44265196 44355056 44440056 44520080 44595780 44667648 
2891.490 44736176 44801892 44864452 44923756 44979796 45032936 45083884 
2894.865 45133472 45182588 45231640 45280808 45330052 45378972 45427820 
2898.241 45476460 45525064 45573412 45620924 45666564 45709008 45747328 
2901.616 45780060 45806456 45825460 45835840 45836136 45824760 45800348 
2904.991 45761948 45709928 45644924 45568484 45482052 45387100 45284484 
2908.366 45175164 45060248 44940548 44817576 44692436 44566156 44439104 
2911.742 44311136 44181368 44049296 43914220 43776368 43636212 43494268 
2915.117 43351092 43206680 43060816 42913320 42764264 42614456 42465468 
2918.492 42319304 42178596 42045268 41921324 41808068 41706296 41616908 
2921.867 41540444 41477376 41427724 41391168 41365836 41348964 41336756 
2925.243 41324692 41307856 41282460 41245548 41195596 41132688 41058496 
2928.618 40974884 40884624 40790420 40695328 40602396 40515748 40439732 
2931.993 40379660 40341040 40328536 40346352 40397224 40482104 40601160 
2935.368 40753808 40938072 41151924 41392768 41657312 41941436 42240640 
2938.744 42551012 42868628 43190760 43515624 43841640 44167320 44489976 
2942.119 44805892 45109576 45394528 45652504 45875168 46053588 46179048 
2945.494 46244428 46244652 46178056 46047252 45859520 45626152 45360580 
2948.869 45077488 44790428 44509652 44242524 43992536 43760388 43544996 
2952.245 43344100 43155844 42978540 42810812 42652072 42502300 42360872 
2955.620 42227820 42102872 41984936 41873416 41767360 41665956 41569032 
2958.995 41477048 41390436 41310080 41236328 41168824 41106716 41048624 
2962.370 40993344 40940076 40888888 40840360 40795592 40755844 40721636 
2965.746 40693468 40671708 40656536 40648060 40646532 40651300 40660904 
2969.121 40673020 40684080 40690232 40688340 40675968 40652208 40617900 
2972.496 40575044 40526480 40475700 40426168 40381512 40344352 40316828 
2975.871 40298792 40288396 40280108 40266368 40237576 40182472 40091180 
2979.247 39955480 39770248 39534580 39251704 38928856 38575684 38204416 
2982.622 37827900 37458068 37105188 36777116 36477832 36208860 35969424 
2985.997 35757360 35570640 35408228 35269776 35154972 35062648 34988192 
2989.372 34922652 34853176 34763072 34633976 34450032 34200380 33881088 
2992.748 33496916 33060844 32591496 32109164 31633712 31181102 30760686 
2996.123 30376458 30026762 29706794 29409824 29129036 28859372 28596774 
2999.498 28339110 28085242 27835124 27588926 27347280 27110952 26880466 
3002.873 26656476 26439434 26229224 26025868 25829078 25638530 25454212 
3006.249 25276012 25104066 24938224 24778512 24624542 24476128 24333160 
3009.624 24195252 24062288 23934058 23810312 23690624 23575062 23463202 
3012.999 23355288 23251770 23153064 23059482 22971476 22888866 22811404 
3016.374 22738738 22670694 22606918 22547236 22491018 22437142 22384530 
3019.750 22331192 22275802 22217176 22154794 22088548 22019212 21947132 
3023.125 21873184 21798168 21723164 21649672 21579744 21515362 21458614 
3026.500 21410506 21371418 21340234 21314934 21293044 21271990 21249234 
3029.875 21222302 21189426 21148444 21097832 21036234 20962996 20878856 
3033.250 20784754 20683306 20577296 20469574 20362854 20259422 20160526 
3036.626 20067240 19980150 19898938 19823152 19752060 19685106 19621664 
3040.001 19561732 19505586 19453950 19407242 19365840 19329360 19297074 
3043.376 19267944 19240616 19214642 19189186 19164010 19138870 19113350 
3046.751 19087142 19060068 19032198 19003812 18975774 18949124 18923960 
3050.127 18900358 18877550 18854262 18829312 18801908 18771842 18739426 
3053.502 18704972 18669066 18632126 18594152 18555142 18514996 18474164 
3056.877 18432918 18392058 18352340 18314426 18278968 18246554 18217768 
3060.252 18193100 18172852 18156440 18143382 18132328 18122376 18112532 
3063.628 18103032 18094396 18087488 18083272 18082064 18083618 18087108 
3067.003 18091320 18095330 18098782 18101512 18103654 18105140 18105692 
3070.378 18104242 18100234 18092946 18082548 18069838 18056676 18044312 
3073.753 18034190 18027042 18022792 18020514 18019650 18018786 18017578 
3077.129 18015574 18012502 18008356 18003142 17996822 17989224 17980798 
3080.504 17971646 17962390 17953620 17945572 17938286 17931382 17924060 
3083.879 17915220 17904172 17890566 17875306 17859838 17846478 17837744 
3087.254 17835464 17840334 17851692 17867572 17885284 17902098 17916326 
3090.630 17927132 17934800 17940704 17946366 17952722 17960906 17971198 
3094.005 17983766 17998892 18016956 18037956 18062064 18088592 18116608 
3097.380 18144558 18171262 18195794 18218148 18238882 18259234 18280454 
3100.755 18303920 18330048 18359046 18390260 18422996 18456150 18489098 
3104.131 18520980 18551512 18580490 18607950 18634062 18659138 18683248 
3107.506 18706494 18729222 18751534 18773952 18797100 18821630 18848172 
3110.881 18877308 18908974 18942684 18978060 19014336 19050858 19087210 
3114.256 19122976 19157744 19191160 19222814 19252636 19280622 19307190 
3117.632 19332720 19357940 19383302 19408732 19434270 19459668 19485138 
3121.007 19511130 19538476 19567868 19599722 19633694 19668466 19702616 
3124.382 19734168 19762324 19786842 19808828 19829984 19852388 19877882 
3127.757 19907576 19941710 19979940 20021124 20063770 20106454 20147892 
3131.133 20186940 20223144 20256504 20287854 20318442 20349416 20382056 
3134.508 20416888 20454084 20493054 20533350 20574516 20616242 20658738 
3137.883 20701968 20746034 20790732 20835364 20879168 20921688 20962718 
3141.258 21002256 21040858 21079082 21117484 21156582 21196626 21238274 
3144.634 21281770 21327706 21376082 21426902 21479886 21534094 21589356 
3148.009 21645180 21701534 21758836 21817400 21877190 21937898 21998682 
3151.384 22058428 22116092 22171076 22223418 22273570 22322574 22371552 
3154.759 22421722 22474058 22529402 22587898 22650028 22715172 22782838 
3158.135 22852052 22921872 22991526 23060914 23129718 23198848 23268688 
3161.510 23340322 23414172 23490516 23569150 23649790 23731600 23814092 
3164.885 23896458 23978210 24059034 24139414 24219530 24300150 24381488 
3168.260 24463612 24545648 24626258 24703764 24776652 24843730 24905202 
3171.635 24961840 25015118 25066750 25118144 25170104 25222318 25274398 
3175.011 25325534 25374746 25421890 25466648 25509552 25550876 25591292 
3178.386 25631498 25672064 25713438 25756048 25800000 25845676 25892624 
3181.761 25941196 25991498 26043564 26098134 26155422 26215708 26278924 
3185.136 26344754 26412460 26481622 26551920 26623148 26695656 26769690 
3188.512 26845464 26922766 27001388 27080518 27159450 27237832 27315240 
3191.887 27391958 27468194 27544440 27621304 27698816 27777260 27856356 
3195.262 27936276 28017168 28098920 28182068 28266754 28352798 28440100 
3198.637 28528124 28616202 28703874 28790892 28877748 28965296 29054066 
3202.013 29144414 29236446 29329382 29422624 29515600 29608278 29700906 
3205.388 29794758 29890016 29986642 30083576 30178932 30270436 30357236 
3208.763 30439110 30517838 30596012 30676830 30762572 30854308 30951682 
3212.138 31053458 31157714 31263028 31368368 31473338 31578086 31682290 
3215.514 31785556 31887598 31987916 32086618 32184486 32282018 32380142 
3218.889 32479468 32579530 32680258 32781192 32881894 32982692 33084408 
3222.264 33187580 33292740 33399756 33508048 33616580 33724748 33831728 
3225.639 33937116 34041240 34144568 34247524 34351008 34455160 34560452 
3229.015 34666704 34773588 34880140 34985280 35088224 35188204 35285448 
3232.390 35380872 35475636 35570960 35667352 35765200 35864012 35963308 
3235.765 36062768 36162872 36264040 36366812 36471704 36578172 36685528 
3239.140 36792912 36899888 37006600 37114280 37224048 37337016 37453156 
3242.516 37572036 37692144 37812108 37931084 38048868 38166248 38284024 
3245.891 38403312 38524228 38646844 38770620 38895260 39021064 39148208 
3249.266 39277384 39408880 39542600 39677520 39813028 39948104 40082024 
3252.641 40215184 40348276 40482396 40618552 40757372 40898896 41042508 
3256.017 41186708 41329648 41469392 41604216 41733688 41858200 41979424 
3259.392 42099772 42221868 42347796 42478292 42612664 42749276 42885744 
3262.767 43020352 43152076 43280872 43407880 43533936 43660064 43786480 
3266.142 43912904 44038772 44163728 44287796 44410988 44533368 44654940 
3269.518 44775108 44893184 45008532 45120752 45230168 45337336 45443200 
3272.893 45548428 45653388 45758116 45862168 45965512 46067884 46169580 
3276.268 46270968 46372820 46475252 46578888 46683692 46789108 46895036 
3279.643 47000616 47104968 47208240 47309868 47410300 47510540 47611684 
3283.019 47714596 47819892 47927364 48036008 48144572 48251756 48356408 
3286.394 48458160 48557380 48654504 48750504 48846084 48941720 49038452 
3289.769 49137208 49238664 49343664 49452592 49565036 49680072 49796624 
3293.144 49913544 50030088 50146588 50263604 50381804 50502004 50624700 
3296.520 50749140 50875296 51002268 51129692 51257520 51385684 51514264 
3299.895 51643140 51772020 51900636 52028884 52157652 52287988 52421024 
3303.270 52558584 52701612 52850676 53005852 53166220 53331024 53499080 
3306.645 53669596 53842024 54016092 54192596 54372364 54556712 54746404 
3310.021 54941928 55143448 55350032 55561160 55776228 55995060 56218300 
3313.396 56446752 56680948 56921164 57167104 57418068 57673408 57932800 
3316.771 58196820 58466004 58741536 59023696 59312040 59605864 59903568 
3320.146 60203960 60506112 60809204 61112620 61415524 61716916 62015580 
3323.521 62311236 62604336 62896260 63188836 63483992 63782028 64082228 
3326.897 64381868 64677836 64966992 65247416 65517924 65779196 66031864 
3330.272 66276536 66513160 66740952 66958964 67165672 67359944 67540720 
3333.647 67706624 67856472 67989088 68104232 68202808 68286784 68359144 
3337.022 68423144 68480704 68532112 68575680 68608240 68625424 68624072 
3340.398 68601448 68556592 68490056 68402816 68296560 68172920 68032376 
3343.773 67876032 67703328 67513816 67306360 67080476 66835584 66572600 
3347.148 66293100 65999888 65695232 65381436 65059432 64729020 64389056 
3350.523 64038144 63675164 63300296 62914372 62519228 62116688 61708592 
3353.899 61296420 60881472 60465704 60050372 59637372 59227996 58822832 
3357.274 58421764 58024172 57629328 57236884 56847396 56462072 56082176 
3360.649 55709056 55343260 54984876 54633212 54287536 53947320 53611752 
3364.024 53280636 52953108 52628744 52306940 51987984 51672808 51363648 
3367.400 51062828 50772604 50494412 50228004 49972052 49724208 49482260 
3370.775 49244820 49011152 48781572 48556524 48336036 48119436 47905460 
3374.150 47692364 47478600 47263796 47047952 46831920 46617064 46404600 
3377.525 46195520 45990928 45791324 45597076 45407992 45223772 45043192 
3380.901 44864856 44687400 44509396 44330584 44150704 43970608 43791356 
3384.276 43613604 43438124 43264656 43093528 42924328 42756952 42591724 
3387.651 42428420 42267372 42108240 41950628 41794024 41637840 41481932 
3391.026 41325676 41169444 41013336 40858016 40703916 40551760 40401800 
3394.402 40254224 40108224 39962964 39817056 39669752 39520536 39370356 
3397.777 39220876 39074028 38931320 38793916 38661188 38531832 38403964 
3401.152 38275772 38145920 38014112 37880504 37745708 37610408 37475008 
3404.527 37339904 37205384 37071520 36938272 36805424 36672188 36537876 
3407.903 36401404 36262380 36121100 35978676 35836588 35696704 35560032 
3411.278 35426560 35295616 35166072 35036680 34906744 34776208 34645816 
3414.653 34516004 34387192 34259140 34131268 34002864 33873064 33741220 
3418.028 33607344 33471436 33333742 33194124 33053372 32912272 32772112 
3421.404 32634356 32500498 32371112 32246254 32124970 32005894 31887810 
3424.779 31769726 31651140 31532374 31413422 31294256 31174660 31054134 
3428.154 30932078 30808740 30684440 30559822 30436162 30313886 30192784 
3431.529 30072886 29953342 29834044 29714742 29596466 29479356 29364442 
3434.905 29251826 29141190 29032208 28924388 28816986 28710564 28604808 
3438.280 28500100 28395986 28291932 28186734 28079302 27968964 27856002 
3441.655 27740914 27625612 27511434 27399932 27291176 27184424 27077802 
3445.030 26968986 26856072 26738608 26617794 26496590 26378870 26268856 
3448.406 26168828 26079274 25998148 25921502 25844588 25763432 25675436 
3451.781 25579870 25477928 25371586 25263054 25153568 25043828 24933626 
3455.156 24822538 24710568 24597890 24485874 24374760 24265428 24157978 
3458.531 24051818 23946174 23840378 23734050 23627012 23520178 23413998 
3461.906 23309450 23207342 23108052 23011512 22917086 22823416 22729242 
3465.282 22632784 22533452 22431210 22327494 22224360 22124006 22028308 
3468.657 21937582 21851022 21766116 21680218 21590610 21495726 21395540 
3472.032 21290470 21182642 21073448 20964318 20856014 20748918 20643066 
3475.407 20538942 20436996 20337852 20241994 20149246 20059050 19970260 
3478.783 19880900 19789442 19694156 19594486 19490718 19383994 19276536 
3482.158 19170278 19067268 18968366 18873814 18782326 18692690 18603350 
3485.533 18513372 18422720 18332052 18242716 18155544 18071426 17989914 
3488.908 17910214 17831184 17751788 17670960 17589246 17506824 17425006 
3492.284 17344858 17267240 17192292 17119528 17047570 16975000 16900446 
3495.659 16822668 16741805 16658684 16574958 16492557 16412823 16336542 
3499.034 16262716 16189557 16114760 16035918 15951728 15862228 15768418 
3502.409 15673049 15578317 15487726 15403196 15326441 15257798 15196578 
3505.785 15140649 15086924 15032039 14972840 14907166 14834682 14757478 
3509.160 14678882 14603043 14533040 14470312 14413826 14361013 14308171 
3512.535 14253282 14194497 14132331 14067675 14002173 13936408 13870379 
3515.910 13803197 13734281 13663393 13591697 13520524 13451586 13386176 
3519.286 13324399 13265466 13208215 13151484 13094828 13038350 12982256 
3522.661 12926680 12871522 12815345 12756618 12693532 12624689 12549412 
3526.036 12468521 12383317 12296321 12210638 12129436 12055540 11990681 
3529.411 11935199 11888270 11847544 11810192 11773116 11734375 11692745 
3532.787 11647748 11599592 11548582 11494687 11438383 11379569 11318859 
3536.162 11257444 11196546 11137323 11080182 11025087 10971189 10917501 
3539.537 10863854 10810247 10757564 10706857 10658601 10612626 10568080 
3542.912 10523269 10476662 10426837 10373148 10315055 10252865 10187089 
3546.288 10119050 10050377 9983885 9922386 9868726 9824021 9787655 9757156 
3550.145 9728455 9696977 9659539 9614347 9562384 9505992 9448286 9392009 
3554.002 9338212 9286722 9236221 9185996 9134931 9083432 9031500 8979844 
3557.860 8928465 8877329 8825995 8774296 8722637 8671829 8622684 8576315 
3561.717 8533363 8493998 8457948 8423859 8389739 8352852 8309079 8254672 
3565.575 8186429 8103444 8008121 7906712 7808195 7720796 7650478 7599155 
3569.432 7564055 7540285 7521777 7503538 7481862 7455569 7424324 7389103 
3573.290 7350380 7309235 7266207 7222610 7179860 7139876 7103702 7071707 
3577.147 7042509 7013953 6983446 6948867 6909611 6866521 6821720 6777561 
3581.004 6735999 6698378 6664697 6634315 6605382 6575946 6543486 6504805 
3584.862 6456576 6395575 6320126 6231177 6133106 6033041 5940221 5863642 
3588.719 5808902 5777842 5768205 5775223 5792516 5813939 5833719 5846917 
3592.577 5849738 5839763 5816256 5780562 5735737 5686654 5638550 5595720 
3596.434 5560849 5534236 5513732 5495410 5475277 5449206 5414715 5371539 
3600.292 5320820 5266082 5211183 5159846 5115421 5079180 5051557 5031512 
3604.149 5017366 5006473 4995848 4982407 4962834 4934415 4896044 4848262 
3608.006 4794522 4739683 4689975 4649684 4620883 4602063 4589003 4576312 
3611.864 4559168 4535228 4505262 4472889 4442861 4419229 4403798 4394125 
3615.721 4385991 4373173 4350447 4313902 4263005 4200638 4132527 4066467 
3619.579 4009613 3967412 3942367 3933507 3937653 3950359 3967312 3984667 
3623.436 4000149 4013124 4023826 4032353 4037470 4035062 4019311 3981690 
3627.293 3915486 3818571 3698185 3571551 3460853 3385744 3354022 3361234 
3631.151 3393959 3436672 3476584 3504808 3518704 3520674 3515964 3510453 
3635.008 3507848 3509117 3512491 3515096 3514729 3510587 3503773 3496224 
3638.866 3489443 3483965 3479356 3473812 3466363 3456544 3445422 3435203 
3642.723 3427655 3423614 3422412 3421577 3417536 3405347 3381236 3341901 
3646.581 3285976 3213969 3128725 3034955 2939071 2848610 2771374 2714889 
3650.438 2685416 2685783 2715689 2770373 2842174 2921624 2997853 3061015 
3654.295 3102661 3117245 3103796 3067489 3018005 2966927 2923959 2894772 
3658.153 2878995 2872758 2870890 2868722 2863452 2854814 2843941 2833369 
3662.010 2825431 2822063 2824131 2831935 2844808 2862218 2882698 2905179 
3665.868 2927362 2946643 2959720 2962489 2950647 2920590 2870924 2804888 
3669.725 2730760 2661279 2609409 2583542 2584209 2604575 2631209 2648777 
3673.583 2643310 2605275 2534714 2443672 2354980 2292920 2272002 2293253 
3677.440 2345252 2412917 2481626 2542346 2591542 2630143 2661179 2687650 
3681.297 2710588 2729126 2741297 2746165 2744364 2738663 2732394 2727893 
3685.155 2724525 2718457 2703620 2673947 2626209 2562011 2489324 2420014 
3689.012 2365874 2334626 2327797 2341055 2368206 2402622 2439806 2477127 
3692.870 2513185 2547012 2577109 2602375 2621342 2633143 2638877 2640343 
3696.727 2640143 2640910 2644377 2650444 2657912 2664179 2666413 2662246 
3700.584 2650444 2631709 2608975 2586442 2569243 2561211 2565210 2581242 
3704.442 2607508 2640043 2674614 2706354 2731427 2746899 2751733 2745665 
3708.299 2729560 2704287 2671180 2631176 2586042 2538680 2493089 2454734 
3712.157 2429244 2420747 2431043 2458733 2499854 2548612 2598842 2645110 
3716.014 2683049 2710522 2727192 2734661 2736062 2734361 2732227 2730760 
3719.872 2729927 2728593 2726259 2722758 2718923 2715756 2714622 2715423 
3723.729 2717123 2717256 2713856 2706020 2694751 2683182 2676281 2678581 
3727.586 2693018 2719157 2753301 2789815 2822063 2844075 2852913 2848010 
3731.444 2832535 2811358 2789415 2769273 2749233 2725259 2692884 2649844 
3735.301 2599208 2548779 2508852 2488557 2492123 2517617 2559244 2610775 
3739.159 2666713 2724525 2783179 2842274 2899109 2947811 2978503 2979404 
3743.016 2940739 2860417 2750366 2635976 2548212 2507519 2515751 2559511 
3746.874 2618009 2671647 2704253 2707354 2680682 2631876 2572843 2517250 
3750.731 2474861 2450402 2444405 2456434 2484925 2529082 2585976 2651544 
3754.588 2719357 2782345 2834136 2869923 2887401 2887334 2872191 2846209 
3758.446 2813025 2776776 2741263 2711055 2690917 2684883 2694484 2718190 
3762.303 2751200 2786747 2818161 2840973 2853813 2859217 2861818 2866855 
3766.161 2877027 2891537 2906714 2917388 2919356 2910917 2893705 2871624 
3770.018 2850478 2834803 2826699 2825532 2828900 2833602 2837171 2837905 
3773.875 2835603 2831168 2825798 2821329 2818528 2817994 2818661 2818961 
3777.733 2816961 2811425 2802654 2792849 2785213 2783445 2789381 2802320 
3781.590 2819662 2837004 2850278 2856915 2856682 2851812 2845642 2841840 
3785.448 2842641 2847910 2856115 2864853 2872558 2878361 2882598 2886133 
3789.305 2889702 2893305 2896673 2899542 2902110 2904779 2908248 2912718 
3793.163 2916988 2918722 2914953 2903645 2884732 2861285 2839038 2825165 
3797.020 2825031 2839472 2864820 2893138 2914119 2917822 2897841 2853747 
3800.877 2793583 2732261 2688083 2674614 2696185 2747099 2814993 2885233 
3804.735 2943541 2979037 2986343 2966693 2928163 2883632 2846876 2826098 
3808.592 2823497 2835503 2856348 2880396 2904412 2927462 2950480 2973999 
3812.450 2996953 3016270 3026380 3021842 2998754 2958319 2907914 2860751 
3816.307 2831601 2830267 2858883 2910917 2974066 3033187 3074997 3089413 
3820.165 3072861 3030785 2976835 2929263 2902211 2902377 2925827 2962689 
3824.022 3000522 3028182 3039593 3033521 3014702 2991047 2971897 2963424 
3827.879 2967227 2980104 2996452 3010465 3018272 3019340 3016804 3015770 
3831.737 3021375 3037291 3063985 3099023 3137435 3173047 3199683 3211633 
3835.594 3204957 3178054 3132396 3073362 3008430 2947244 2898608 2867288 
3839.452 2854614 2857516 2871591 2891603 2913085 2933200 2950480 2965025 
3843.309 2977569 2990146 3004660 3023777 3049170 3081370 3119547 3161399 
3847.167 3203855 3243913 3279600 3310282 3336024 3356827 3370884 3373022 
3851.024 3354656 3306242 3219377 3094885 2946310 2801787 2692351 2639777 
3854.881 2647711 2704453 2790615 2887968 2983774 3070258 3144211 3205024 
3858.739 3252759 3287045 3306776 3310816 3298997 3273190 3237136 3195477 
3862.596 3152120 3110069 3070826 3036390 3009497 2994384 2995184 3013968 
3866.454 3048135 3091148 3132730 3163034 3174583 3166105 3143877 3121149 
3870.311 3111938 3124653 3158562 3204389 3249154 3280468 3290751 3279934 
3874.168 3254495 3225386 3202987 3194543 3200617 3216673 3234599 3246650 
3878.026 3246283 3230727 3201185 3162834 3124520 3095686 3084574 3095119 
3881.883 3126389 3172380 3223450 3269150 3300099 3310482 3300600 3277864 
3885.741 3254962 3244680 3255797 3289048 3337660 3389618 3432765 3455910 
3889.598 3452603 3421811 3369081 3305107 3242344 3192006 3161399 3153289 
3893.456 3166038 3196145 3239372 3290751 3345808 3399970 3448729 3487806 
3897.313 3514094 3525819 3522979 3507380 3482997 3454039 3424583 3397232 
3901.170 3373022 3350616 3328211 3304172 3277997 3251056 3226120 3207360 
3905.028 3198481 3201385 3216206 3240574 3271187 3304372 3336358 3365141 
3908.885 3389150 3408452 3423480 3435637 3446591 3457646 3470238 3485034 
3912.743 3501735 3518804 3534170 3544592 3547298 3540383 3523881 3500031 
3916.600 3472609 3446257 3425050 3411024 3404645 3404512 3409454 3417669 
3920.458 3428623 3441415 3455442 3468969 3479790 3485602 3484500 3476450 
3924.315 3463324 3448428 3435670 3428056 3426820 3431095 3438476 3446458 
3928.172 3453071 3456778 3457713 3455776 3451401 3444754 3436138 3426954 
3932.030 3418805 3414597 3417169 3428356 3448361 3474647 3503271 3529894 
3935.887 3550405 3562698 3566807 3564235 3557788 3549703 3541452 3532967 
3939.745 3523013 3510353 3494186 3474880 3454340 3435270 3420742 3412894 
3943.602 3413027 3420408 3433366 3449263 3465462 3479623 3490545 3497860 
3947.459 3502002 3504274 3505710 3507213 3509117 3510787 3511522 3510854 
3951.317 3508148 3504106 3499597 3496023 3494453 3495121 3497961 3502203 
3955.174 3506612 3510219 3512557 3513526 3513326 3512758 3512457 3512624 
3959.032 3513392 3514294 3515163 3515697 3515196 3514027 3512591 3511655 
3962.889 3512090 3514628 3519505 3526687 3535205 3543957 3551775 3557654 
3966.747 3561629 3563968 3565505 3567576 3570783 3575527 3581574 3588589 
3970.604 3596007 3603323 3610206 3616587 3622167 3626611 3629517 3630654 
3974.461 3630019 3628014 3625341 3623336 3622668 3624105 3627446 3632124 
3978.319 3636801 3640610 3642381 3641680 3638606 3633560 3627613 3621365 
3982.176 3615752 3610974 3607165 3603858 3600751 3597543 3594737 3592833 
3986.034 3592732 3595004 3599982 3607099 3614950 3621799 3625942 3626510 
3989.891 3622969 3616520 3609170 3602789 3599281 3599314 3603089 3609905 
3993.749 3618158 3627012 3635198 3642314 3647761 3651704 3653842 3654109 
3997.606 3652639 3649298 3644520 3638639 3632491 3626410 3620897 
##END=
