
##TITLE=Z316_2_a
##JCAMP-DX=5.01  $$ Nicolet v. 1
##DATATYPE=INFRARED SPECTRUM
##ORIGIN=UniL
##OWNER=Nicolet
##LONGDATE=2011/09/09
##TIME=12:52:29
##SPECTROMETER/DATA SYSTEM=Nicolet iS5
##DATA PROCESSING=
Ratio against background
%Transmittance->Absorbance
Truncated
ElementMultiply or ElementDivide
##COMMENTS=
Number of sample scans: 32
Collection length: 51.21 sec
Sample gain: 2.0
Background collected on: Ven Sep 09 12:34:57 2011 (GMT+02:00);
Number of background scans: 32
Background gain: 2.0
Sample spacing:  1.000
Number of scan points: 12415
Resolution points: 8192
Number of FFT points: 65536
Apodization: N-B fort;
Phase correction: Mertz;
Laser frequency: 15798.0 cm-1
Number of rejected sample scans: 0
Number of rejected background scans: 0
Bench serial number: ASB1000141;
##RESOLUTION=4.000
##XUNITS=1/CM
##YUNITS=ABSORBANCE
##FIRSTX=649.893372
##LASTX=4000.122314
##FIRSTY=0.100449
##MAXX=4000.122314
##MINX=649.893372
##MAXY=0.266828
##MINY=0.001187
##XFACTOR=1.000000
##YFACTOR=1.000000E-009
##NPOINTS=6950
##DELTAX=0.482117
##ZPD=6100
##XYDATA=(X++(Y..Y))
649.893 100448864 100375328 100390528 100487112 100633208 100790944 
652.786 100932840 101057928 101189832 101364664 101609152 101928424 
655.679 102303376 102702192 103094952 103465656 103815584 104153208 
658.571 104482496 104794784 105070160 105286880 105433936 105515328 
661.464 105547992 105550024 105532480 105493072 105419992 105298576 
664.357 105118904 104874000 104556384 104149840 103626136 102955328 
667.250 102131640 101198656 100253984 99402832 98705936 98155240 97693096 
670.624 97238496 96716056 96079056 95312872 94440936 93508328 92566928 
673.999 91651752 90771496 89914000 89058736 88192600 87316520 86444712 
677.374 85596232 84785024 84015360 83284192 82587024 81924312 81303712 
680.749 80736520 80230592 79785816 79392968 79037360 78704840 78387056 
684.124 78082840 77795992 77528424 77277248 77034136 76789576 76538952 
687.498 76285896 76042872 75825376 75645808 75507328 75402384 75316552 
690.873 75236360 75153472 75067592 74985328 74913704 74856224 74810248 
694.248 74768016 74719992 74660424 74586728 74499472 74398784 74282472 
697.623 74145768 73985480 73802904 73606512 73410288 73230504 73077344 
700.998 72952416 72846640 72745744 72634936 72504880 72354432 72189136 
704.373 72016904 71842776 71668056 71490360 71306568 71116464 70923464 
707.747 70732424 70547128 70366848 70186840 70000600 69804952 69603784 
711.122 69410608 69244872 69125768 69065872 69064240 69102856 69146712 
714.497 69152504 69071776 68861392 68493896 67959720 67272736 66467056 
717.872 65597376 64732560 63942192 63296616 62853292 62648164 62692644 
721.247 62963708 63404456 63918008 64383520 64673216 64664916 64279236 
724.621 63493764 62353424 60957760 59441736 57946396 56576724 55394448 
727.996 54411984 53604480 52929416 52345324 51825256 51356672 50936096 
731.371 50561896 50227036 49919756 49627248 49340396 49057224 48782388 
734.746 48522660 48282192 48060292 47851708 47651140 47456020 47268524 
738.121 47093892 46936048 46793796 46660264 46523968 46374184 46205804 
741.496 46021540 45830392 45643008 45468288 45309308 45164356 45028932 
744.870 44899212 44773900 44653104 44537300 44424424 44310108 44189660 
748.245 44060040 43922324 43781496 43644016 43514596 43393636 43277504 
751.620 43161480 43042780 42923784 42810776 42711256 42629700 42564968 
754.995 42510300 42456516 42396708 42329316 42258240 42190136 42129636 
758.370 42077648 42031036 41986104 41943112 41908664 41893992 41911836 
761.744 41969496 42066368 42194188 42343120 42506760 42689024 42903812 
765.119 43174000 43525288 43980216 44556568 45263780 46101560 47055708 
768.494 48094712 49170824 50221644 51192352 52057904 52847492 53652200 
771.869 54613636 55888024 57574580 59663528 61987720 64247540 66036068 
775.244 66940828 66680216 65159320 62522672 59090776 55304720 51598848 
778.619 48298816 45612168 43596976 42202292 41311320 40794352 40541064 
781.993 40467116 40520804 40669200 40888628 41162412 41479996 41839480 
785.368 42246880 42712828 43248076 43858540 44546144 45311844 46160440 
788.743 47106076 48171152 49382420 50768356 52353248 54156524 56197144 
792.118 58495992 61077380 63966764 67180600 70714768 74529760 78547824 
795.493 82646016 86654192 90381720 93617040 96149384 97812360 98496552 
798.867 98185760 96963616 95016024 92602600 89997152 87473696 85243136 
802.242 83420240 82022072 80964184 80093752 79215144 78152488 76789496 
805.617 75092296 73119648 71001416 68906672 66982464 65326124 63960320 
808.992 62835560 61848860 60876556 59817428 58605872 57226148 55704124 
812.367 54091632 52447604 50821392 49252836 47769108 46388048 45123880 
815.742 43985972 42978796 42100500 41342808 40693728 40140276 39673524 
819.116 39289460 38988656 38773264 38644380 38600308 38637608 38753408 
822.491 38949080 39230956 39610980 40103172 40719272 41465272 42337384 
825.866 43321144 44387388 45493640 46585340 47592936 48444120 49072840 
829.241 49428604 49494328 49290916 48880940 48353888 47817600 47382916 
832.616 47138244 47145632 47426856 47959260 48673928 49460016 50186752 
835.990 50706392 50888036 50645212 49946068 48826764 47377892 45732752 
839.365 44030888 42392984 40912548 39639220 38586512 37741728 37078480 
842.740 36566456 36176192 35884088 35669400 35514040 35404092 35329148 
846.115 35283468 35265680 35276532 35316604 35384504 35477220 35591964 
849.490 35727676 35887148 36075444 36297716 36556508 36850040 37172032 
852.865 37514204 37870344 38237884 38619032 39019648 39446652 39907096 
856.239 40406968 40953944 41558492 42234024 42997856 43868984 44863792 
859.614 45997964 47285372 48739644 50375400 52204504 54229160 56430908 
862.989 58759896 61130888 63415080 65464260 67122352 68244016 68728592 
866.364 68527568 67655744 66185996 64243124 61986500 59575076 57163628 
869.739 54879024 52805772 50995340 49465032 48207620 47201736 46419716 
873.113 45835472 45423664 45163108 45034776 45019892 45102040 45267860 
876.488 45508096 45819604 46203556 46663436 47201884 47817416 48502056 
879.863 49242560 50020272 50814060 51604372 52373620 53109036 53804516 
883.238 54460024 55080704 55675008 56250812 56813672 57364708 57902324 
886.613 58425256 58936292 59446028 59971544 60534184 61155072 61847216 
889.987 62613448 63444564 64322732 65224008 66121908 66992560 67811576 
893.362 68554344 69197496 69716632 70090736 70304984 70350952 70227888 
896.737 69941080 69501120 68922944 68226568 67439584 66595504 65732008 
900.112 64888924 64098552 63383868 62756076 62214600 61751564 61356408 
903.487 61020672 60739424 60511292 60336848 60216860 60151780 60142496 
906.862 60191244 60303040 60484480 60742320 61081232 61502400 62003736 
910.236 62582292 63236704 63969032 64784908 65691808 66697100 67805264 
913.611 69019416 70343472 71784960 73358616 75087056 76995880 79112648 
916.986 81459408 84048048 86876816 89926472 93158472 96504520 99866536 
920.361 103119656 106105960 108665592 110660760 111999616 112671872 
923.254 112759760 112445120 111971872 111629272 111715824 112472680 
926.146 114073088 116584824 119959512 124024800 128492176 133007232 
929.039 137139904 140451168 142560880 143150144 142030128 139159248 
931.932 134646704 128742608 121799504 114257416 106555288 99092896 92211600 
935.306 86136408 80995928 76833592 73626336 71315400 69828256 69097608 
938.681 69057480 69634784 70741632 72248224 73981112 75743352 77310384 
942.056 78477520 79096032 79083320 78445800 77267392 75697792 73912248 
945.431 72081200 70354888 68832704 67567080 66570052 65824652 65299252 
948.806 64959108 64775400 64725480 64791368 64958528 65211488 65534764 
952.181 65914608 66339956 66803896 67304000 67839344 68408672 69008696 
955.555 69633928 70278448 70937976 71611128 72298936 73003760 73726176 
958.930 74464304 75213592 75968264 76724576 77481688 78242104 79009424 
962.305 79786656 80574136 81369488 82169176 82970664 83774360 84582752 
965.680 85399320 86225912 87061488 87903216 88747920 89595408 90449944 
969.055 91319048 92212376 93137528 94098144 95094424 96125400 97191496 
972.429 98296944 99449400 100657856 101929304 103266640 104668144 106129816 
975.804 107648688 109224224 110858392 112552712 114304360 116103528 
978.697 117934264 119774368 121601384 123394656 125134456 126802120 
981.590 128377544 129836824 131157160 132320016 133316504 134150296 
984.482 134837104 135400688 135864800 136252240 136582368 136871632 
987.375 137138544 137404112 137689040 138013088 138388896 138820432 
990.268 139304752 139835056 140405648 141014240 141661760 142349984 
993.160 143077600 143838352 144622576 145419440 146221920 147027392 
996.053 147837104 148651696 149468080 150276688 151065232 151820800 
998.946 152536400 153212704 153857504 154481120 155092000 155695072 
1001.839 156292256 156886016 157483232 158096336 158740544 159430688 
1004.731 160174704 160973760 161823136 162718576 163660288 164656384 
1007.624 165719408 166862384 168092704 169408256 170798832 172249520 
1010.517 173747648 175283440 176850720 178443120 180050272 181656672 
1013.409 183246464 184807760 186340496 187857712 189384816 190949824 
1016.302 192577264 194284128 196077072 197957840 199926592 201984192 
1019.195 204131104 206362976 208668800 211030192 213427376 215848368 
1022.087 218294384 220782896 223339920 225993600 228762032 231647520 
1024.980 234637776 237711680 240846448 244017760 247199440 250356400 
1027.873 253434304 256364912 259067744 261459168 263470384 265047312 
1030.766 266150592 266752176 266828384 266360992 265345520 263800032 
1033.659 261771344 259327856 256553376 253527136 250307920 246934912 
1036.552 243427248 239794656 236048320 232206512 228294224 224344656 
1039.446 220393872 216483520 212666240 208999760 205547680 202368320 
1042.339 199495120 196928432 194625680 192512944 190492896 188470224 
1045.232 186377904 184182112 181890480 179540176 177189968 174902656 
1048.125 172733408 170729600 168922928 167329344 165949392 164766688 
1051.018 163751504 162861504 162054144 161290096 160539072 159784288 
1053.911 159016752 158231072 157421008 156575792 155681968 154726480 
1056.804 153698224 152589696 151395328 150107840 148717808 147214944 
1059.697 145592352 143851488 142004816 140076064 138094960 136091152 
1062.590 134091960 132118032 130185248 128308832 126502248 124778664 
1065.483 123147368 121609848 120157840 118773872 117436800 116125520 
1068.376 114825832 113532776 112250112 110987584 109757416 108571944 
1071.269 107442448 106378608 105389496 104482416 103660960 102923792 
1074.162 102263872 101669656 101126808 100621640 100143104 99681016 99225912 
1077.538 98765256 98282520 97760608 97183992 96544696 95846800 95106792 
1080.913 94351504 93611280 92918400 92301176 91782592 91383368 91121352 
1084.288 91012704 91072440 91311848 91738592 92356376 93166184 94166960 
1087.663 95355624 96724216 98254352 99909616 101636320 103359248 104989216 
1091.039 106442960 107648432 108562496 109178040 109522672 109654192 
1093.932 109645616 109583352 109549616 109614144 109834296 110246416 
1096.825 110865840 111689216 112695544 113849392 115099648 116387168 
1099.718 117640360 118775128 119706664 120348528 120625368 120490752 
1102.611 119929944 118969000 117664392 116099976 114369024 112556408 
1105.504 110740248 108980144 107316184 105775016 104367496 103091464 
1108.397 101932616 100867296 99866080 98895672 97926224 96932176 95893120 
1111.772 94794968 93628176 92387032 91071624 89688352 88251784 86782160 
1115.147 85305352 83847896 82431728 81074952 79789360 78581696 77456536 
1118.523 76416648 75463448 74596720 73812688 73104552 72461696 71871872 
1121.898 71321800 70796456 70279848 69751728 69186424 68556240 67832224 
1125.273 66990004 66017056 64915048 63701600 62405868 61066432 59723436 
1128.648 58411268 57158416 55982848 54892148 53885756 52956588 52093692 
1132.024 51283808 50514700 49776820 49063936 48374852 47712044 47081408 
1135.399 46489708 45944000 45451072 45016176 44644620 44341444 44111016 
1138.774 43957372 43882880 43887312 43968480 44122280 44344380 44630592 
1142.149 44977812 45384044 45846484 46361392 46923164 47524144 48156380 
1145.525 48812492 49485564 50170200 50860916 51551312 52234884 52904936 
1148.900 53555936 54185504 54794028 55384700 55961400 56528112 57087780 
1152.275 57642344 58193448 58743244 59294116 59847964 60404660 60962180 
1155.650 61515000 62056288 62578580 63074304 63536720 63957864 64327808 
1159.026 64635112 64865916 65006128 65043888 64969956 64778292 64465308 
1162.401 64028316 63465504 62775948 61961616 61028296 59986116 58849468 
1165.776 57635000 56358844 55037452 53685344 52316172 50944144 49582900 
1169.151 48245904 46945904 45692776 44493756 43353912 42276244 41263364 
1172.527 40318172 39443824 38643768 37920852 37276464 36710804 36222868 
1175.902 35811832 35477220 35219468 35040232 34940788 34922548 34986216 
1179.277 35133092 35365560 35687888 36107164 36631628 37269896 38030060 
1182.652 38917404 39936372 41090144 42381364 43811040 45377132 47071548 
1186.028 48875748 50759532 52683020 54593756 56433888 58144996 59665960 
1189.403 60942320 61929100 62592440 62917320 62908284 62590940 62006180 
1192.778 61206952 60252488 59196552 58087688 56963436 55847440 54751928 
1196.153 53678712 52622536 51574744 50527540 49477544 48427708 47387796 
1199.529 46371788 45397108 44479440 43631192 42860400 42169800 41558164 
1202.904 41021132 40551904 40141804 39779076 39450028 39138416 38826452 
1206.279 38498380 38141252 37747116 37314232 36845564 36348332 35831656 
1209.654 35306252 34783708 34275312 33793688 33351310 32959386 32628570 
1213.030 32366756 32179344 32069922 32040778 32093574 32230302 32452222 
1216.405 32759894 33152462 33627716 34182708 34814728 35522560 36306364 
1219.780 37167304 38106340 39123372 40217732 41388580 42636828 43966024 
1223.155 45382136 46892672 48503984 50218928 52035380 53945444 55936300 
1226.531 57987968 60075712 62166884 64218996 66184804 68010792 69641944 
1229.906 71031192 72138984 72938888 73420448 73589832 73472992 73113760 
1233.281 72579440 71955112 71332896 70815416 70498400 70463640 70782496 
1236.656 71507552 72675160 74309568 76421432 79007872 82048528 85505696 
1240.031 89318768 93402272 97657832 101968864 106206736 110246032 113954232 
1243.407 117203512 119885184 121907544 123212224 123779144 123624424 
1246.300 122796152 121363752 119418368 117060360 114393560 111525640 
1249.193 108547912 105526864 102495856 99447568 96340112 93107840 89687016 
1252.568 86030848 82127904 78008480 73743688 69435488 65191968 61124444 
1255.943 57325652 53857252 50753836 48019024 45633108 43559464 41754152 
1259.319 40173568 38775436 37525688 36398264 35373252 34437584 33581532 
1262.694 32797090 32076556 31412282 30796468 30223012 29687812 29189310 
1266.069 28728052 28305300 27922036 27577734 27270960 26999872 26762994 
1269.444 26560130 26392110 26259810 26163692 26102708 26074560 26076706 
1272.820 26107106 26164922 26250516 26365104 26509762 26684944 26890018 
1276.195 27123192 27380840 27656544 27940304 28217602 28471514 28682742 
1279.570 28834654 28916846 28926090 28867054 28749186 28584458 28382970 
1282.945 28151240 27893098 27610676 27307302 26988942 26664544 26344790 
1286.321 26041490 25764030 25519884 25314050 25149426 25027262 24947558 
1289.696 24908256 24905238 24932188 24982652 25049900 25129588 25220458 
1293.071 25323392 25440826 25575476 25729646 25905180 26104750 26332080 
1296.446 26591690 26888820 27227672 27610394 28037524 28508310 29022042 
1299.822 29579264 30180566 30825812 31510602 32225274 32954380 33677376 
1303.197 34371736 35017784 35598940 36105328 36533548 36886612 37173508 
1306.572 37407940 37608424 37794608 37985288 38196132 38435820 38706032 
1309.947 39001776 39314344 39633304 39948684 40252732 40538336 40798356 
1313.323 41025500 41211772 41349728 41434104 41461920 41432796 41347980 
1316.698 41209444 41019416 40780848 40498908 40181092 39837976 39482252 
1320.073 39125436 38777212 38443820 38128444 37832964 37560476 37315676 
1323.448 37106056 36941232 36829516 36778776 36794932 36882792 37046836 
1326.823 37291232 37617672 38023080 38496280 39018052 39559948 40090964 
1330.199 40582028 41009512 41360044 41630512 41825512 41955192 42031804 
1333.574 42068744 42078084 42070896 42057388 42045528 42041692 42050344 
1336.949 42075164 42120692 42193784 42303856 42462656 42681932 42969212 
1340.324 43326964 43750788 44230636 44751640 45296508 45845528 46374664 
1343.700 46858752 47271996 47590720 47799624 47892696 47874128 47754832 
1347.075 47548796 47268304 46920692 46508220 46030084 45485288 44876172 
1350.450 44210536 43500972 42765876 42025596 41300168 40609532 39970808 
1353.825 39397672 38901316 38488676 38161980 37918972 37753732 37658356 
1357.201 37624680 37646616 37719212 37838240 37998884 38193928 38414716 
1360.576 38654196 38908924 39182004 39482864 39826212 40226636 40693908 
1363.951 41231884 41837400 42502700 43216160 43963824 44726700 45477048 
1367.326 46180192 46793760 47270300 47567836 47651692 47499484 47103824 
1370.702 46470752 45620116 44581500 43398616 42126240 40824164 39559184 
1374.077 38391620 37364820 36501324 35800212 35244728 34811064 34480740 
1377.452 34245696 34111916 34097472 34230316 34546820 35084376 35880312 
1380.827 36963164 38339392 39978836 41798036 43668120 45409724 46821808 
1384.203 47722800 47954744 47420724 46101448 44074196 41514744 38664664 
1387.578 35801688 33156786 30874192 29009432 27541336 26408446 25534640 
1390.953 24852852 24309192 23863132 23488698 23169490 22897316 22671672 
1394.328 22496252 22376054 22312984 22303880 22340610 22413034 22510490 
1397.704 22624092 22747920 22877722 23011268 23146808 23282778 23416866 
1401.079 23545956 23665990 23772862 23863832 23938400 23999710 24054270 
1404.454 24111182 24177736 24257894 24350648 24451800 24556026 24660556 
1407.829 24766796 24880148 25008414 25158202 25333684 25535310 25761040 
1411.205 26008032 26275194 26563510 26875248 27212080 27573604 27957372 
1414.580 28360296 28780306 29218194 29678342 30167814 30694966 31267512 
1417.955 31890984 32566674 33288628 34044144 34813828 35574596 36303300 
1421.330 36981132 37597764 38152792 38660680 39149368 39658860 40229072 
1424.706 40889504 41654436 42521484 43479988 44518684 45631380 46813728 
1428.081 48056624 49342140 50637468 51900412 53091028 54179944 55157444 
1431.456 56033284 56831988 57585212 58323640 59077180 59875504 60753024 
1434.831 61755460 62937392 64353316 66042700 68005752 70203584 72573168 
1438.207 75047112 77563040 80054936 82449232 84642864 86506776 87913760 
1441.582 88742392 88907728 88374496 87151904 85290312 82866952 79986976 
1444.957 76767552 73323824 69776312 66235780 62807152 59599096 56707000 
1448.332 54201116 52110092 50414844 49060156 47975912 47105560 46417104 
1451.708 45907392 45590820 45483816 45589164 45892920 46365448 46972776 
1455.083 47688188 48491204 49369020 50309844 51297532 52309368 53321136 
1458.458 54316828 55287972 56232556 57151384 58046288 58917692 59760544 
1461.833 60564620 61307944 61954588 62461840 62784672 62893504 62788084 
1465.208 62501328 62087708 61599756 61078296 60544352 60004412 59458036 
1468.584 58900844 58323340 57706596 57019312 56220448 55269948 54151796 
1471.959 52894084 51578924 50315240 49202480 48296636 47604288 47101496 
1475.334 46758848 46560260 46507852 46616916 46902124 47368988 48009216 
1478.709 48805524 49737436 50791264 51963896 53261420 54695516 56277136 
1482.085 58013344 59906920 61961464 64187348 66604116 69238344 72112032 
1485.460 75228712 78552312 81987856 85388512 88544768 91204744 93117608 
1488.835 94047248 93828984 92416464 89903768 86516520 82544552 78286376 
1492.210 73970032 69728928 65629712 61682544 57880444 54235356 50786308 
1495.586 47606804 44789544 42414100 40521604 39103792 38120052 37513156 
1498.961 37228776 37226104 37473384 37943740 38611244 39444836 40407984 
1502.336 41462500 42558576 43637348 44627360 45424696 45895572 45882204 
1505.711 45230940 43866968 41856412 39405832 36763988 34121412 31569072 
1509.087 29121240 26763382 24487170 22299310 20229532 18317468 16593719 
1512.462 15076392 13762667 12634582 11666195 10830357 10102126 9458750 
1515.837 8881319 8357615 7883026 7461704 7100940 6805395 6570127 6379300 
1519.695 6208489 6034150 5843088 5642913 5459574 5324073 5253505 5241667 
1523.552 5264204 5290398 5296636 5271884 5222484 5165982 5123668 5107776 
1527.409 5117768 5142645 5169503 5190862 5207159 5224262 5247401 5275674 
1531.267 5300124 5306095 5280437 5220573 5140097 5066039 5023936 5026953 
1535.124 5069324 5132452 5193679 5234456 5244819 5222384 5171783 5100300 
1538.982 5015556 4923255 4829633 4744707 4681870 4652497 4659932 4696205 
1542.839 4744607 4786046 4808023 4808559 4798073 4792411 4805477 4840958 
1546.697 4891454 4941854 4977145 4989144 4979827 4960388 4945172 4944636 
1550.554 4958946 4978218 4987569 4975168 4937129 4879223 4814791 4758844 
1554.411 4721896 4705182 4701062 4696975 4679693 4637393 4561277 4448117 
1558.269 4306005 4158821 4040547 3981523 3992391 4063189 4172837 4297505 
1562.126 4416116 4511959 4575643 4607321 4616195 4617166 4625303 4648947 
1565.984 4686659 4728193 4760284 4772880 4763199 4736902 4706153 4686157 
1569.841 4688300 4716637 4769765 4842935 4931465 5030808 5135638 5238749 
1573.698 5329541 5397639 5436523 5449776 5453836 5473834 5534504 5646774 
1577.556 5805914 5997395 6206909 6425604 6652281 6891802 7151463 7437334 
1581.413 7751894 8093620 8458792 8842734 9239945 9642160 10037051 10406372 
1585.271 10728694 10984374 11159998 11253838 11276384 11251186 11208616 
1588.646 11182742 11208344 11314063 11522722 11848906 12296117 12853637 
1592.021 13492496 14168753 14821447 15382290 15790753 15997449 15976926 
1595.396 15731072 15288274 14696910 14013158 13296930 12598697 11956723 
1598.772 11399875 10944616 10598229 10360355 10225081 10183730 10227490 
1602.147 10350921 10550970 10825941 11172373 11581760 12039869 12528574 
1605.522 13025410 13506476 13947973 14324027 14609177 14780583 14819802 
1608.897 14716961 14473498 14103305 13631424 13091686 12524414 11966191 
1612.273 11445764 10979787 10571102 10212157 9889335 9588500 9298672 9017223 
1616.130 8751813 8519137 8338801 8224382 8179102 8194870 8256597 8345050 
1619.988 8441190 8529714 8599498 8647594 8679469 8708169 8748939 8813484 
1623.845 8905838 9021588 9151816 9287569 9423228 9557304 9690370 9823343 
1627.702 9955983 10086526 10213039 10334430 10451782 10566519 10679825 
1631.078 10790511 10894023 10983116 11048742 11082289 11075967 11026480 
1634.453 10936291 10817721 10690114 10576670 10496045 10455380 10449780 
1637.828 10466344 10489765 10504496 10498658 10466208 10408204 10332326 
1641.203 10249405 10170604 10101617 10040814 9979986 9906013 9805550 9667704 
1645.061 9488923 9274672 9042224 8816088 8622447 8482307 8404367 8385246 
1648.918 8412102 8466968 8527889 8568204 8559586 8471192 8281824 7996680 
1652.776 7667171 7378386 7200173 7151396 7201352 7303776 7417009 7515506 
1656.633 7587387 7629772 7646229 7642317 7623399 7592445 7549894 7494200 
1660.490 7423279 7336125 7234099 7121485 7006242 6898502 6807953 6741586 
1664.348 6701205 6683674 6680713 6681420 6674454 6648950 6597577 6518124 
1668.205 6414742 6297769 6180727 6077526 5997799 5945629 5919395 5913249 
1672.063 5917951 5921746 5912409 5877882 5810749 5712135 5595485 5483833 
1675.920 5398511 5352183 5342522 5356477 5376135 5387105 5382408 5363857 
1679.778 5340107 5320518 5309550 5302171 5284159 5234758 5136644 4984519 
1683.635 4797168 4614185 4480823 4422944 4435765 4494081 4567606 4634044 
1687.492 4679190 4698382 4693526 4670951 4638900 4606115 4581234 4570854 
1691.350 4578823 4603871 4639369 4672894 4687296 4665358 4595231 4478045 
1695.207 4332810 4194282 4097405 4058373 4069210 4103125 4128513 4116070 
1699.065 4049510 3933908 3800655 3695679 3653107 3680240 3757271 3855308 
1702.922 3946046 4010449 4039076 4031618 3996838 3950225 3909100 3885797 
1706.780 3885429 3905422 3938857 3977945 4016201 4050480 4080515 4107975 
1710.637 4134802 4161965 4188929 4214155 4235334 4251562 4262905 4270768 
1714.494 4276022 4277862 4272943 4256748 4226434 4184513 4141024 4111053 
1718.352 4109413 4143064 4208969 4296166 4391012 4480555 4556020 4613984 
1722.209 4655846 4686626 4712316 4738243 4767252 4799715 4834492 4869573 
1726.067 4903283 4933208 4956600 4970476 4972520 4962231 4942458 4918698 
1729.924 4896681 4879491 4864613 4843002 4800251 4720723 4595299 4429739 
1733.781 4249454 4091351 3989549 3955843 3979416 4035296 4096703 4143432 
1737.639 4161932 4148383 4107105 4049978 3991655 3944407 3915452 3904620 
1741.496 3908030 3920166 3936784 3955542 3975471 3996738 4019311 4042687 
1745.354 4065998 4087639 4106002 4119749 4127911 4130119 4126439 4117207 
1749.211 4102623 4083558 4061483 4039812 4023224 4017338 4026033 4050380 
1753.069 4086903 4128781 4166582 4190134 4192408 4170596 4128814 4076668 
1756.926 4026835 3989515 3968415 3959587 3953502 3939826 3909267 3858250 
1760.783 3789190 3710650 3634296 3571050 3528357 3508082 3507146 3519472 
1764.641 3537878 3555249 3564903 3562331 3546697 3520775 3491046 3465495 
1768.498 3450098 3445356 3445923 3442316 3424616 3387147 3332218 3270953 
1772.356 3221180 3198415 3209396 3250623 3310616 3377095 3439745 3494453 
1776.213 3541118 3582142 3619460 3652840 3679471 3696079 3701259 3696815 
1780.071 3687892 3682011 3684718 3697717 3718035 3739958 3757404 3766562 
1783.928 3767531 3763320 3758675 3757973 3763287 3774884 3791730 3812354 
1787.785 3835518 3859387 3881217 3896094 3897365 3879144 3837792 3774784 
1791.643 3698385 3621732 3558021 3516499 3498862 3500800 3513893 3529894 
1795.500 3543523 3551340 3552543 3547265 3536007 3518904 3495890 3467766 
1799.358 3436338 3404445 3375426 3352052 3336292 3328445 3327844 3333620 
1803.215 3344873 3360633 3379700 3400338 3420442 3438275 3452302 3462355 
1807.073 3468802 3472108 3472576 3469837 3462990 3451768 3437340 3422178 
1810.930 3410189 3405213 3409755 3423848 3444955 3469470 3493518 3514996 
1814.787 3533335 3549937 3567108 3587019 3610673 3637737 3666874 3695912 
1818.645 3723248 3747612 3768802 3787218 3803897 3819273 3833747 3846316 
1822.502 3854974 3857247 3850896 3835886 3814794 3793401 3778461 3775085 
1826.360 3784945 3804098 3825256 3838861 3837190 3817267 3783341 3746074 
1830.217 3718470 3711986 3731236 3773481 3830772 3893587 3954438 4008911 
1834.074 4056567 4099178 4139485 4179194 4219307 4259626 4300583 4343787 
1837.932 4392317 4449556 4517985 4597843 4687162 4780887 4873057 4957740 
1841.789 5029500 5086153 5128697 5163400 5200586 5251929 5327629 5431289 
1845.647 5559137 5700888 5843894 5975559 6086498 6173132 6236555 6281801 
1849.504 6314511 6338516 6353848 6357647 6345274 6313267 6261026 6191247 
1853.362 6108709 6018661 5924635 5828346 5729761 5629185 5527592 5427666 
1857.219 5332325 5243478 5161187 5083303 5006875 4930158 4853087 4778140 
1861.076 4708699 4647641 4595734 4552237 4514871 4482397 4454611 4432853 
1864.934 4417923 4408986 4402359 4392284 4372469 4339604 4295229 4246777 
1868.791 4204453 4178056 4172804 4187691 4216464 4251060 4284421 4312329 
1872.649 4333178 4347268 4355166 4357308 4352924 4342047 4325180 4304131 
1876.506 4281275 4258722 4237241 4216029 4193646 4168890 4141425 4112858 
1880.364 4084495 4057537 4031317 4003460 3971057 3932236 3887703 3840934 
1884.221 3796978 3761081 3736115 3722079 3715428 3711719 3706439 3696547 
1888.078 3681677 3663198 3644286 3628549 3619327 3619427 3630386 3652172 
1891.936 3682847 3719405 3757037 3791429 3819607 3840767 3857247 3872558 
1895.793 3889876 3910705 3934009 3956946 3976607 3991822 4004128 4016836 
1899.651 4033825 4057771 4088609 4124064 4160092 4193278 4222017 4246108 
1903.508 4266452 4284119 4299212 4310823 4318085 4320997 4320327 4318487 
1907.365 4317751 4318353 4319758 4319625 4315442 4305703 4291214 4273479 
1911.223 4255376 4239382 4226568 4217802 4213653 4214490 4221081 4233025 
1915.080 4247981 4261600 4268393 4263842 4246208 4218605 4188360 4164072 
1918.938 4151494 4151059 4157884 4163671 4160861 4145105 4117609 4083825 
1922.795 4051617 4026568 4011519 4004563 4002490 4001787 4002089 4004530 
1926.653 4011653 4024160 4040514 4056734 4068608 4073591 4072888 4070079 
1930.510 4069811 4075263 4086401 4099412 4109614 4113093 4108611 4098308 
1934.367 4086234 4077002 4073658 4077002 4087003 4102422 4123228 4148316 
1938.225 4176049 4202546 4222386 4230181 4222787 4201241 4171365 4141459 
1942.082 4120719 4113762 4120351 4135504 4152398 4166247 4175648 4183442 
1945.940 4193713 4210307 4233962 4262336 4292251 4320997 4347636 4373407 
1949.797 4399748 4426894 4452334 4472454 4483502 4484204 4476873 4466194 
1953.655 4456887 4452368 4451431 4450929 4446108 4433823 4413338 4387598 
1957.512 4360454 4335153 4312831 4293389 4275152 4259258 4248316 4246175 
1961.369 4256313 4278866 4309853 4342147 4368520 4384452 4389071 4385456 
1965.227 4378829 4373641 4372068 4374244 4379097 4385891 4395196 4408016 
1969.084 4425287 4446878 4471349 4496591 4521601 4547549 4576044 4608760 
1972.942 4644526 4679860 4709670 4730940 4745109 4759581 4784974 4830236 
1976.799 4898055 4982340 5067648 5136308 5174599 5176276 5145126 5091316 
1980.656 5027188 4963773 4907103 4860961 4826383 4805410 4800284 4813015 
1984.514 4843069 4886192 4935386 4982441 5021456 5051390 5074956 5097585 
1988.371 5122662 5150793 5178053 5198642 5207394 5202699 5187274 5167189 
1992.229 5150156 5141036 5142142 5153240 5173325 5201022 5236502 5279263 
1996.086 5326958 5374625 5415856 5444173 5456151 5453232 5440046 5422365 
1999.944 5404583 5387138 5366775 5339302 5301869 5255820 5206623 5162528 
2003.801 5130240 5112906 5109017 5113644 5121522 5129167 5137113 5147272 
2007.658 5161522 5179126 5196395 5208433 5212726 5209540 5202800 5198206 
2011.516 5199882 5208366 5220808 5232813 5241566 5248005 5255853 5270274 
2015.373 5295295 5329340 5367681 5402269 5428169 5443871 5454306 5465815 
2019.231 5485276 5515242 5553499 5594143 5630427 5658691 5678161 5691454 
2023.088 5702063 5711564 5720897 5728922 5734394 5738793 5743795 5752424 
2026.946 5766257 5782878 5798492 5807291 5806283 5795134 5778446 5761658 
2030.803 5751719 5752592 5765586 5789930 5824249 5867840 5919697 5978751 
2034.660 6042011 6105315 6163553 6213060 6253093 6286608 6318109 6352637 
2038.518 6392212 6436230 6481564 6523640 6558892 6585904 6604272 6614163 
2042.375 6614869 6605752 6585669 6555831 6519234 6482203 6451195 6432330 
2046.233 6428294 6439526 6463370 6495690 6533092 6571607 6605921 6630244 
2050.090 6637108 6620992 6578873 6515299 6439425 6364876 6306106 6272859 
2053.948 6267648 6284625 6312965 6340601 6358992 6365481 6362758 6356000 
2057.805 6349174 6344232 6339256 6331658 6320025 6305871 6292794 6285801 
2061.662 6287819 6298946 6315386 6333003 6348098 6359866 6369953 6381217 
2065.520 6395676 6412388 6427924 6437811 6438113 6427420 6407176 6380881 
2069.377 6352402 6325169 6301097 6281028 6266371 6258270 6258438 6267749 
2073.235 6284793 6306678 6327556 6342887 6348569 6343963 6330649 6312057 
2077.092 6291819 6272691 6256455 6244152 6236555 6234740 6239513 6250505 
2080.949 6266439 6284087 6299887 6311116 6317066 6319016 6320361 6323891 
2084.807 6331288 6341542 6351998 6358756 6358824 6350755 6335120 6313537 
2088.664 6288222 6261094 6233664 6207682 6185029 6167653 6158042 6157302 
2092.522 6165570 6181130 6201868 6225093 6248959 6272523 6294676 6314377 
2096.379 6330649 6342114 6348872 6352469 6356369 6364540 6379570 6401291 
2100.237 6425503 6446084 6457249 6455803 6442956 6424460 6408488 6401796 
2104.094 6408756 6428664 6457955 6491553 6525557 6558421 6591623 6627115 
2107.951 6666749 6710189 6755855 6801626 6846022 6888739 6930518 6971930 
2111.809 7013077 7052005 7086997 7116534 7140381 7160592 7179692 7200140 
2115.666 7223284 7248148 7272642 7294645 7313413 7329555 7345224 7362108 
2119.524 7381014 7400393 7418695 7433761 7445457 7455670 7467907 7485503 
2123.381 7510348 7541634 7576732 7611698 7643261 7669531 7690644 7707676 
2127.239 7721470 7732601 7739886 7742821 7740258 7732736 7721605 7708654 
2131.096 7695635 7684202 7675400 7670745 7671960 7681302 7699649 7726900 
2134.953 7760057 7794971 7827019 7852829 7871925 7886130 7898411 7911875 
2138.811 7926790 7941300 7951559 7954630 7948353 7933910 7913832 7891663 
2142.668 7869631 7849320 7829482 7810016 7790046 7769738 7749769 7729497 
2146.526 7707102 7680593 7647712 7608427 7564965 7521608 7482065 7448154 
2150.383 7418290 7388193 7351459 7303271 7241780 7169653 7091409 7011966 
2154.240 6934322 6860193 6789812 6726038 6674118 6643904 6645990 6688115 
2158.098 6770191 6883790 7014087 7143143 7256908 7347853 7413841 7458704 
2161.955 7487121 7503269 7511056 7514158 7515641 7519316 7526598 7537790 
2165.813 7548680 7554580 7549017 7528654 7493155 7445356 7389743 7329992 
2169.670 7268161 7204216 7136878 7065847 6992537 6921091 6857163 6805530 
2173.528 6768744 6746701 6737076 6736100 6740913 6749023 6758816 6767869 
2177.385 6773422 6772143 6762956 6745994 6725332 6706084 6693364 6689730 
2181.242 6693331 6699690 6703325 6699556 6688284 6672234 6656521 6645249 
2185.100 6640808 6641784 6645216 6647739 6647907 6646091 6644240 6644240 
2188.957 6647201 6651878 6657328 6662443 6667153 6672839 6680511 6689125 
2192.815 6696830 6699489 6692826 6675464 6648883 6617090 6586476 6562457 
2196.672 6547690 6542006 6542477 6545302 6548397 6550617 6552837 6556571 
2200.530 6562995 6571977 6583415 6596232 6610025 6624121 6637848 6649354 
2204.387 6655881 6655141 6645249 6627317 6604608 6582002 6564778 6555931 
2208.244 6555057 6559497 6564745 6567200 6565687 6560708 6555293 6551962 
2212.102 6552635 6557075 6564408 6573760 6585467 6600605 6620858 6646596 
2215.959 6676709 6708339 6737211 6760331 6775845 6784461 6788163 6789442 
2219.817 6789678 6789543 6787423 6782375 6773725 6761542 6747341 6733038 
2223.674 6720116 6710088 6703459 6700532 6700969 6704671 6709988 6715439 
2227.531 6718333 6716314 6708103 6694071 6676238 6658237 6642962 6632667 
2231.389 6627553 6626140 6625534 6623617 6618906 6611606 6602624 6594112 
2235.246 6587014 6582540 6581093 6583045 6588696 6598418 6612346 6630278 
2239.104 6651507 6674824 6699724 6725164 6750302 6774465 6796207 6813641 
2242.961 6825287 6830235 6828720 6823335 6817647 6815257 6818724 6828552 
2246.819 6843329 6860126 6875206 6887190 6894832 6899310 6902239 6905605 
2250.676 6911025 6919475 6931460 6947688 6967890 6991931 7018869 7046180 
2254.533 7071067 7090667 7102893 7107272 7104140 7095147 7081372 7063422 
2258.391 7041263 7014929 6984792 6952739 6921462 6894125 6873557 6861270 
2262.248 6857029 6858880 6865108 6873422 6883050 6893250 6904157 6915233 
2266.106 6925838 6934423 6939810 6941258 6939036 6933952 6927858 6922236 
2269.963 6918735 6918364 6921596 6927959 6936915 6946375 6954792 6960516 
2273.821 6962166 6959944 6955634 6951392 6949978 6952840 6960449 6971257 
2277.678 6983412 6994490 7003783 7011427 7018734 7027220 7037659 7050052 
2281.535 7063422 7076287 7087603 7096865 7104038 7108855 7111044 7109764 
2285.393 7103803 7092756 7077230 7058404 7038973 7021159 7006713 6996039 
2289.250 6988564 6982806 6978126 6974085 6971324 6970482 6972301 6976880 
2293.108 6983782 6992099 7001224 7010619 7019711 7028029 7034629 7038131 
2296.965 7037188 7031160 7020620 7006982 6992772 6980281 6970381 6963075 
2300.823 6956913 6950079 6941022 6929340 6915839 6901363 6886753 6872311 
2304.680 6857163 6839929 6819666 6796005 6769686 6742124 6714833 6689192 
2308.537 6665605 6644072 6624121 6605651 6588360 6572280 6557176 6542611 
2312.395 6527778 6512171 6495757 6478874 6462327 6446924 6432498 6418441 
2316.252 6403107 6385219 6363565 6338247 6310208 6281095 6252757 6226337 
2320.110 6202540 6181332 6161738 6142919 6123125 6100611 6072923 6037913 
2323.967 5993733 5940053 5878217 5811152 5742486 5676314 5615523 5561789 
2327.824 5515141 5475143 5441086 5412937 5391399 5377376 5371472 5372981 
2331.682 5380563 5392103 5405590 5419815 5434443 5449776 5465613 5481485 
2335.539 5496148 5508363 5517457 5524135 5529706 5536652 5546284 5559507 
2339.397 5575247 5591861 5607602 5621431 5633347 5644391 5655636 5668022 
2343.254 5682290 5699445 5722039 5754506 5802388 5870929 5963298 6078332 
2347.112 6210371 6349410 6483784 6601883 6693432 6751816 6774297 6762787 
2350.969 6722707 6663082 6594079 6524515 6461184 6407109 6362388 6324664 
2354.826 6291247 6260455 6232017 6207044 6187684 6176022 6173804 6181467 
2358.684 6199111 6226236 6262001 6305132 6353982 6406638 6460747 6514424 
2362.541 6566830 6618133 6669609 6723212 6780692 6842757 6909241 6978866 
2366.399 7050389 7122496 7194143 7264792 7333329 7398337 7457626 7509910 
2370.256 7554614 7593287 7629536 7667677 7712127 7765994 7830764 7906004 
2374.114 7990740 8084168 8186193 8297495 8419129 8551206 8692855 8842159 
2377.971 8996622 9153948 9312991 9473447 9635689 9799585 9964526 10128580 
2381.828 10289710 10445470 10594087 10734740 10867013 10990626 11104995 
2385.204 11208582 11300154 11378243 11442261 11492577 11530582 11557701 
2388.579 11575226 11584142 11584653 11577200 11562295 11540961 11514250 
2391.954 11483017 11447840 11408550 11365114 11317499 11266489 11213444 
2395.329 11160542 11109754 11063085 11021722 10987025 10960077 10942033 
2398.705 10934490 10938703 10955217 10983694 11022674 11070155 11124100 
2402.080 11182946 11246052 11313383 11385522 11462979 11546303 11636380 
2405.455 11733660 11838895 11952772 12075230 12205493 12342134 12483355 
2408.830 12627658 12775214 12926543 13083763 13248079 13419734 13596791 
2412.206 13775663 13951258 14118913 14274819 14416533 14542737 14652733 
2415.581 14745789 14821105 14877952 14916666 14938544 14947015 14945849 
2418.956 14938956 14929011 14916872 14902057 14882992 14857893 14826179 
2422.331 14788158 14745652 14700989 14656880 14616236 14581524 14555174 
2425.707 14539002 14534171 14540818 14557984 14584402 14618600 14659690 
2429.082 14708084 14765293 14833721 14915740 15012934 15125999 15254091 
2432.457 15396090 15550464 15716368 15893023 16079996 16276751 16482715 
2435.832 16697109 16919636 17150514 17390104 17639728 17900476 18173092 
2439.208 18458330 18756136 19067026 19390958 19727788 20077650 20439880 
2442.583 20813430 21196974 21589216 21989340 22396706 22811612 23233836 
2445.958 23663120 24098820 24539826 24985004 25433906 25886154 26341550 
2449.333 26799574 27258754 27717074 28171144 28617654 29053288 29475280 
2452.708 29881142 30269124 30637220 30983636 31305756 31601176 31866666 
2456.084 32099246 32295364 32451440 32563850 32629642 32646072 32612066 
2459.459 32526958 32391210 32205038 31969194 31684320 31351484 30972890 
2462.834 30552320 30094832 29607214 29096970 28571754 28038760 27504480 
2466.209 26974592 26454472 25949286 25464400 25004938 24575942 24181168 
2469.585 23822738 23501674 23217444 22968890 22754834 22573622 22424268 
2472.960 22304994 22214002 22147470 22101134 22069688 22047552 22029982 
2476.335 22013494 21995578 21976026 21954870 21933156 21911202 21889142 
2479.710 21865692 21839002 21806600 21766570 21717592 21660016 21595656 
2483.086 21526644 21456038 21385968 21317996 21252540 21189286 21127572 
2486.461 21066562 21005560 20944186 20882506 20820104 20757296 20694252 
2489.836 20631218 20568716 20507540 20448110 20390288 20333374 20276120 
2493.211 20216896 20153826 20085318 20009988 19927416 19837094 19739542 
2496.587 19635600 19526624 19414344 19300644 19186486 19072322 18957742 
2499.962 18841632 18722440 18599270 18472192 18342386 18211686 18082512 
2503.337 17956624 17835292 17718516 17606292 17498132 17394346 17295100 
2506.712 17201290 17113048 17030132 16951812 16876952 16804242 16733747 
2510.088 16664984 16598642 16534410 16471392 16408177 16342733 16273208 
2513.463 16198877 16120089 16038669 15956953 15877489 15802333 15732583 
2516.838 15668375 15610051 15556886 15508603 15464514 15424619 15388469 
2520.213 15356304 15328432 15305435 15288137 15277394 15272899 15274099 
2523.589 15279453 15287245 15295996 15305332 15315526 15327642 15342676 
2526.964 15361041 15381878 15403986 15425340 15444326 15459811 15472000 
2530.339 15480893 15487486 15492018 15495074 15496413 15495898 15493598 
2533.714 15489615 15484464 15478489 15472068 15465510 15458987 15453047 
2537.090 15448137 15444772 15443536 15444978 15449098 15456343 15466918 
2540.465 15481477 15500602 15524331 15552388 15583674 15616543 15649242 
2543.840 15680606 15710011 15738115 15765704 15793743 15822504 15851507 
2547.215 15879344 15904605 15926259 15944099 15958639 15971357 15983423 
2550.591 15995799 16008861 16022097 16034681 16046165 16056202 16064798 
2553.966 16072500 16080031 16087973 16096672 16106198 16116204 16125763 
2557.341 16133914 16139176 16140413 16136251 16126107 16109291 16086288 
2560.716 16056823 16021686 15981257 15936228 15887558 15836317 15783640 
2564.092 15730763 15678475 15627328 15577252 15528108 15480035 15433443 
2567.467 15389430 15349507 15315320 15288480 15269672 15258964 15255670 
2570.842 15258656 15266721 15278321 15292084 15306808 15321464 15335469 
2574.217 15349267 15363478 15379578 15399043 15423143 15452326 15486284 
2577.593 15524296 15564922 15607098 15650308 15694553 15739832 15786491 
2580.968 15834531 15883468 15933134 15983354 16033992 16085394 16137937 
2584.343 16191518 16246274 16301932 16358389 16415747 16474420 16534824 
2587.718 16596783 16660301 16724277 16787436 16848776 16907440 16963494 
2591.094 17017590 17070554 17122942 17175124 17226766 17277756 17327202 
2594.469 17375618 17422800 17469364 17515278 17561196 17607086 17653602 
2597.844 17701468 17752064 17806778 17866710 17932382 18003348 18078574 
2601.219 18156820 18237050 18319230 18403672 18491310 18582912 18678958 
2604.594 18779004 18882362 18987960 19094966 19202934 19311970 19422316 
2607.970 19534490 19648532 19764614 19882114 20000340 20117940 20233418 
2611.345 20344622 20449534 20546168 20633094 20709474 20775472 20831992 
2614.720 20880176 20920854 20954756 20982190 21003230 21018080 21027052 
2618.095 21030876 21030738 21027538 21022322 21015714 21008134 20999474 
2621.471 20989772 20978784 20966856 20954164 20941784 20930206 20920506 
2624.846 20913412 20909416 20908790 20911258 20916718 20924782 20935630 
2628.221 20950132 20969046 20993702 21024896 21062876 21106910 21155608 
2631.596 21207446 21260786 21314550 21368286 21422272 21477066 21532980 
2634.972 21590434 21649150 21708570 21768624 21829036 21889736 21951140 
2638.347 22013460 22076554 22140218 22204516 22269140 22333948 22399008 
2641.722 22464148 22529194 22594214 22658686 22722608 22786120 22849434 
2645.097 22913210 22978216 23045226 23114658 23186756 23261522 23338644 
2648.473 23417668 23498318 23580274 23663786 23748958 23836668 23927476 
2651.848 24021736 24120148 24222612 24328710 24438094 24550380 24665572 
2655.223 24783704 24905378 25030842 25160274 25293468 25429970 25568904 
2658.598 25710064 25852920 25997866 26144864 26294202 26445666 26598596 
2661.974 26752422 26906656 27061086 27216066 27372124 27529614 27688858 
2665.349 27849572 28011122 28172912 28334478 28495750 28657080 28819500 
2668.724 28983572 29150120 29319670 29492408 29668726 29848844 30032940 
2672.099 30221272 30413276 30608064 30804364 31000290 31193884 31383644 
2675.475 31568464 31747374 31920512 32088402 32251966 32412522 32571782 
2678.850 32731130 32892294 33056554 33225134 33398934 33579172 33766972 
2682.225 33964024 34171628 34391208 34624000 34870120 35129500 35401580 
2685.600 35685556 35980692 36286552 36602464 36927700 37261520 37603004 
2688.976 37951008 38304832 38664304 39029180 39399848 39776856 40160628 
2692.351 40551180 40948956 41353772 41766188 42186300 42614312 43049880 
2695.726 43492472 43941204 44395612 44854716 45318428 45786836 46259908 
2699.101 46737372 47218728 47703240 48189960 48678076 49167076 49656928 
2702.477 50146960 50636352 51123652 51606312 52081028 52544484 52993084 
2705.852 53423340 53832380 54217560 54576700 54908312 55211096 55484232 
2709.227 55727100 55939164 56119992 56268916 56385400 56469584 56522376 
2712.602 56544908 56538832 56505768 56446372 56360428 56247304 56105592 
2715.978 55934224 55733168 55503096 55245188 54961748 54654820 54326628 
2719.353 53979508 53616248 53239884 52854044 52462784 52070496 51681396 
2722.728 51299952 50929948 50575520 50240204 49927260 49638912 49376780 
2726.103 49141216 48932112 48748504 48589724 48455232 48345112 48259604 
2729.479 48199140 48163896 48153644 48167156 48203548 48261084 48338148 
2732.854 48433192 48544816 48671296 48811304 48963528 49126116 49298120 
2736.229 49478136 49664804 49856496 50051616 50247980 50443908 50637320 
2739.604 50826720 51010356 51186872 51355292 51514784 51665348 51807820 
2742.979 51943656 52075348 52205364 52335904 52468616 52604172 52742536 
2746.355 52883756 53027752 53174680 53324692 53477828 53633120 53789100 
2749.730 53943568 54093920 54238580 54376644 54508780 54636556 54761928 
2753.105 54887300 55014244 55144616 55279320 55419144 55564168 55714144 
2756.480 55868392 56025328 56183420 56340700 56495396 56645460 56789200 
2759.856 56924112 57047460 57156336 57247164 57316916 57363728 57386264 
2763.231 57383732 57356200 57303152 57224524 57119864 56989504 56835084 
2766.606 56659092 56465808 56259296 56044256 55824904 55604952 55387332 
2769.981 55175392 54971636 54778764 54598980 54433464 54282548 54145676 
2773.357 54022020 53910328 53810032 53720516 53641480 53571864 53509796 
2776.732 53452236 53395316 53334508 53264792 53181460 53080352 52957492 
2780.107 52810072 52636448 52436688 52212088 51966212 51703340 51428208 
2783.482 51145604 50859908 50573920 50290612 50011944 49739404 49474164 
2786.858 49216392 48965716 48720552 48478944 48239240 47999928 47760640 
2790.233 47521772 47284520 47049948 46819188 46592828 46371308 46155132 
2793.608 45945660 45743868 45551628 45369924 45199064 45038344 44886312 
2796.983 44741208 44601400 44465676 44333404 44204520 44079076 43957152 
2800.359 43838124 43721836 43607564 43494816 43382948 43271104 43158372 
2803.734 43043180 42924328 42800648 42671952 42538696 42402188 42264888 
2807.109 42128976 41996872 41870164 41750064 41636600 41529800 41428456 
2810.484 41331432 41237168 41144744 41053176 40962504 40872540 40784016 
2813.860 40696964 40611640 40527748 40445552 40365260 40288072 40216236 
2817.235 40152924 40101464 40065236 40046848 40048232 40070212 40113676 
2820.610 40178872 40266184 40376240 40508912 40663632 40838904 41032640 
2823.985 41241724 41463192 41693784 41930120 42168704 42405512 42635948 
2827.361 42855060 43058036 43240024 43397332 43526828 43626576 43695308 
2830.736 43733016 43740452 43719236 43672008 43602288 43513716 43410184 
2834.111 43295592 43172604 43043916 42910980 42774904 42635584 42493128 
2837.486 42346848 42196012 42040012 41878960 41713480 41544968 41375204 
2840.862 41206200 41038792 40873668 40710356 40547976 40385404 40222456 
2844.237 40059204 39896924 39737316 39582380 39433808 39293052 39161152 
2847.612 39039408 38928784 38830652 38746780 38678648 38627216 38593248 
2850.987 38576480 38576188 38591216 38620264 38661660 38714108 38776488 
2854.363 38847648 38926716 39012980 39105316 39202348 39302048 39402096 
2857.738 39499668 39591960 39676576 39751080 39813900 39863256 39898088 
2861.113 39916684 39917624 39899976 39862996 39807180 39733356 39643580 
2864.488 39540276 39426260 39304768 39179028 39052420 38929072 38812752 
2867.864 38707296 38616316 38542732 38488604 38454936 38441828 38448492 
2871.239 38473000 38513044 38565616 38627216 38695088 38766452 38839456 
2874.614 38913564 38988840 39065980 39145704 39228456 39314200 39402968 
2877.989 39493824 39586772 39681444 39778056 39876800 39977420 40080172 
2881.365 40184436 40290068 40396492 40503708 40611532 40720180 40829476 
2884.740 40939200 41048988 41158624 41267556 41375604 41481932 41585804 
2888.115 41686276 41782240 41872648 41956872 42034832 42106744 42173488 
2891.490 42236328 42296368 42354372 42411396 42467480 42522836 42577068 
2894.865 42629552 42679560 42726280 42769460 42809240 42846500 42882416 
2898.241 42918588 42955932 42994524 43033488 43070880 43104176 43130996 
2901.616 43149148 43156980 43153432 43137952 43110216 43070000 43017352 
2904.991 42952492 42876200 42789348 42693412 42589384 42478476 42361020 
2908.366 42237604 42108388 41973072 41831564 41683680 41528996 41367152 
2911.742 41198076 41021676 40838940 40650932 40459408 40266184 40072828 
2915.117 39880468 39689608 39500324 39312492 39126344 38942228 38761452 
2918.492 38585640 38416708 38256848 38108044 37972308 37851148 37745852 
2921.867 37656948 37584540 37527348 37484076 37451856 37427948 37409132 
2925.243 37392520 37375256 37355288 37330592 37299680 37261340 37214840 
2928.618 37160084 37097644 37029372 36957752 36886760 36821148 36766332 
2931.993 36727568 36710404 36719096 36757028 36826344 36928060 37062100 
2935.368 37227656 37423144 37646432 37894672 38164620 38452508 38754460 
2938.744 39066956 39387040 39712192 40040640 40370568 40699436 41024008 
2942.119 41339416 41639628 41917932 42166220 42376836 42541764 42653568 
2945.494 42705988 42695276 42620124 42483372 42291732 42055744 41787968 
2948.869 41502276 41211592 40925876 40652572 40395184 40154852 39930632 
2952.245 39720796 39523652 39337992 39163072 38998552 38844384 38700412 
2955.620 38566124 38440564 38322420 38210640 38103844 38001348 37903064 
2958.995 37809648 37722032 37641408 37568536 37503980 37447160 37397504 
2962.370 37353880 37315676 37282568 37254696 37232060 37214696 37202172 
2965.746 37193688 37188420 37185640 37184952 37186504 37190080 37195492 
2969.121 37201664 37206828 37208632 37204768 37193360 37173224 37144056 
2972.496 37106740 37062820 37014508 36964644 36916624 36873592 36838784 
2975.871 36813612 36797456 36786348 36773256 36748340 36699984 36617176 
2979.247 36490876 36315872 36091572 35822196 35516520 35185152 34840608 
2982.622 34495340 34159372 33841288 33546704 33278144 33036106 32819602 
2985.997 32626890 32456652 32308142 32181308 32075558 31989380 31918232 
2989.372 31853508 31783130 31691984 31563584 31384178 31144328 30841608 
2992.748 30481156 30075158 29641198 29197356 28761506 28347102 27962002 
2996.123 27608488 27284332 26984536 26702914 26434082 26174142 25920904 
2999.498 25673470 25432078 25196790 24967912 24745258 24528118 24316026 
3002.873 24108520 23905420 23706510 23512132 23322422 23137898 22958898 
3006.249 22786330 22620916 22463486 22315076 22175818 22045668 21923958 
3009.624 21809456 21700210 21594370 21490190 21386420 21282744 21179510 
3012.999 21077658 20978574 20883374 20792958 20707666 20627292 20551448 
3016.374 20479996 20412652 20349624 20290876 20236508 20185898 20138104 
3019.750 20091600 20045030 19996974 19946462 19893074 19836608 19776958 
3023.125 19714544 19649536 19583048 19516328 19451560 19391270 19337884 
3026.500 19293404 19258766 19233342 19215680 19203038 19192512 19180980 
3029.875 19165500 19143580 19112866 19071768 19019112 18954556 18878762 
3033.250 18793154 18700162 18602590 18503344 18405124 18310210 18219946 
3036.626 18135332 18056606 17983802 17916636 17855006 17798284 17746266 
3040.001 17698602 17654808 17614606 17577584 17543188 17510966 17480644 
3043.376 17452048 17425386 17400622 17377792 17356272 17335754 17315306 
3046.751 17294030 17271862 17249072 17226490 17205046 17185502 17167578 
3050.127 17150550 17132592 17112186 17088130 17060182 17029028 16996088 
3053.502 16962564 16929212 16896038 16862692 16828662 16793566 16757887 
3056.877 16722728 16689774 16660130 16634721 16613651 16596438 16582154 
3060.252 16569864 16558917 16548488 16538093 16527319 16515652 16503295 
3063.628 16490838 16479755 16471907 16469292 16473388 16484676 16502365 
3067.003 16524497 16548246 16570965 16590277 16605010 16614856 16620709 
3070.378 16623635 16624840 16625322 16625391 16624806 16623188 16619641 
3073.753 16613996 16606146 16596956 16587386 16578952 16572583 16568866 
3077.129 16567903 16568968 16571103 16573375 16575063 16575923 16576163 
3080.504 16576197 16576128 16576404 16576817 16577369 16577540 16577231 
3083.879 16576026 16574064 16571345 16568039 16564528 16561534 16559847 
3087.254 16560294 16563358 16569486 16578332 16589452 16601982 16615614 
3090.630 16629936 16644636 16660025 16675899 16692150 16708264 16723864 
3094.005 16738843 16753823 16769974 16788744 16811646 16839304 16871924 
3097.380 16908094 16946094 16983994 17020104 17053392 17084166 17113290 
3100.755 17142140 17171988 17203496 17236936 17271894 17307306 17342376 
3104.131 17376240 17408486 17439148 17468468 17496960 17525076 17553122 
3107.506 17581346 17610156 17639452 17669580 17700776 17732978 17765974 
3110.881 17799736 17833566 17867330 17900960 17934972 17969710 18005870 
3114.256 18043552 18082548 18122032 18160760 18197866 18232696 18265662 
3117.632 18297872 18330740 18365580 18403084 18443012 18484328 18525474 
3121.007 18564928 18601690 18635342 18666644 18696496 18726316 18757242 
3124.382 18789626 18823466 18858208 18892952 18927110 18960198 18992840 
3127.757 19025448 19059374 19095588 19134404 19175370 19217446 19258904 
3131.133 19298182 19334384 19367814 19399862 19432538 19468054 19507908 
3134.508 19552306 19600416 19650750 19701298 19750708 19798146 19843822 
3137.883 19888218 19932378 19977130 20022998 20070086 20118530 20168128 
3141.258 20218736 20270392 20322574 20375112 20427828 20480238 20532342 
3144.634 20584208 20635840 20687580 20739744 20792504 20846420 20901730 
3148.009 20959066 21018914 21081552 21147088 21215242 21285320 21356348 
3151.384 21427284 21497224 21565468 21631840 21696412 21759358 21821198 
3154.759 21882348 21943124 22003770 22064180 22124458 22184500 22244308 
3158.135 22304682 22366562 22431036 22499184 22571666 22648422 22728788 
3161.510 22811752 22896374 22982200 23069056 23157572 23248064 23340636 
3164.885 23434700 23529166 23622746 23714838 23805132 23894252 23982796 
3168.260 24071080 24158820 24244720 24327274 24405216 24478160 24546700 
3171.635 24612442 24677216 24742346 24808402 24874676 24940082 25003148 
3175.011 25062888 25119022 25172212 25223162 25272748 25321952 25371408 
3178.386 25421608 25473466 25527016 25582506 25639760 25698182 25756892 
3181.761 25815014 25872192 25928464 25985060 26042824 26103096 26166684 
3185.136 26233974 26304868 26379152 26456724 26537480 26621246 26707706 
3188.512 26795840 26884554 26972476 27058760 27143048 27225838 27308044 
3191.887 27391286 27476840 27565624 27657958 27753702 27851868 27951366 
3195.262 28050744 28148730 28244440 28337378 28427964 28517438 28607250 
3198.637 28699202 28794256 28893084 28995298 29100054 29206072 29312934 
3202.013 29419928 29527090 29634564 29742382 29850440 29958490 30066532 
3205.388 30174386 30282410 30390746 30499426 30608136 30716090 30822754 
3208.763 30927594 31030822 31133010 31235396 31338486 31442772 31547800 
3212.138 31652850 31757430 31861390 31965482 32070958 32178990 32289940 
3215.514 32403916 32519638 32635786 32751140 32865274 32978762 33092454 
3218.889 33207536 33324580 33443556 33563992 33685072 33805972 33926224 
3222.264 34045360 34163352 34279648 34394548 34507856 34620160 34732452 
3225.639 34846032 34961976 35081148 35203264 35327316 35451512 35573912 
3229.015 35693576 35809996 35923680 36035952 36148288 36262056 36377764 
3232.390 36495456 36614612 36734384 36853644 36971752 37088372 37204012 
3235.765 37319648 37436508 37555888 37678412 37804080 37932312 38062032 
3239.140 38191824 38320860 38448600 38575176 38700888 38825832 38950092 
3242.516 39073376 39195456 39316336 39437112 39558748 39683036 39811284 
3245.891 39944436 40082496 40225396 40372420 40523168 40677424 40834648 
3249.266 40994512 41155492 41316532 41475952 41632956 41787240 41939900 
3252.641 42092504 42247140 42404932 42566724 42732128 42900300 43070112 
3256.017 43240464 43410556 43579756 43747524 43913304 44076764 44237608 
3259.392 44396088 44552900 44708996 44865444 45022572 45180308 45337960 
3262.767 45494340 45648712 45800492 45949708 46097284 46243800 46389964 
3266.142 46535804 46681216 46825648 46968536 47109436 47248352 47385432 
3269.518 47521664 47657648 47794408 47932284 48071208 48210360 48348184 
3272.893 48482608 48611888 48734712 48850720 48960896 49067164 49171976 
3276.268 49277592 49385908 49497704 49612948 49730860 49850436 49970492 
3279.643 50089840 50207804 50323720 50437284 50548716 50658356 50766684 
3283.019 50874400 50981736 51088876 51195708 51301744 51406760 51510984 
3286.394 51614968 51719204 51824396 51930884 52038516 52146964 52255812 
3289.769 52364612 52473548 52582964 52693492 52805620 52919684 53035836 
3293.144 53154196 53274832 53397636 53522804 53650104 53779240 53909540 
3296.520 54040368 54170972 54300868 54429900 54558256 54685744 54812672 
3299.895 54938884 55064644 55190256 55316648 55445004 55576744 55712976 
3303.270 55854296 56000976 56152572 56308672 56469016 56633496 56802380 
3306.645 56976204 57155464 57340432 57531004 57727104 57928184 58134012 
3310.021 58343840 58557224 58773476 58992384 59214248 59439760 59670480 
3313.396 59907604 60152500 60405688 60666680 60934616 61208284 61486752 
3316.771 61769860 62057512 62350324 62648624 62952368 63261120 63574388 
3320.146 63891216 64211316 64533764 64857840 65182500 65506132 65827272 
3323.521 66145212 66459948 66772788 67085540 67399848 67716384 68034856 
3326.897 68353136 68668664 68979064 69281944 69576096 69860552 70134584 
3330.272 70397232 70647464 70884256 71107168 71316336 71512088 71694984 
3333.647 71864320 72018776 72156152 72274640 72373072 72452536 72515104 
3337.022 72563896 72601408 72629096 72646448 72651736 72642608 72616840 
3340.398 72573016 72510832 72430176 72331312 72213712 72076352 71918632 
3343.773 71739656 71539704 71319344 71080040 70822744 70548528 70258392 
3347.148 69952920 69633496 69301216 68957464 68603584 68240872 67870064 
3350.523 67491368 67104764 66710272 66307528 65896524 65477236 65049736 
3353.899 64614812 64173864 63729340 63284196 62841304 62403576 61972280 
3357.274 61547832 61129404 60715836 60306200 59900336 59498768 59102656 
3360.649 58712976 58330124 57953968 57583360 57217000 56854084 56493960 
3364.024 56137300 55785004 55438264 55098760 54767752 54446464 54135880 
3367.400 53836548 53548292 53270448 53001472 52739208 52481476 52226736 
3370.775 51973904 51723012 51474644 51229484 50988144 50750708 50516780 
3374.150 50285440 50055892 49827692 49600616 49374624 49150084 48927216 
3377.525 48706580 48488720 48274416 48064956 47860992 47663264 47471356 
3380.901 47284188 47100020 46917180 46733832 46549012 46362496 46174920 
3384.276 45986876 45799352 45613124 45428484 45245908 45065980 44888920 
3387.651 44715388 44545704 44379352 44215264 44052156 43887972 43721616 
3391.026 43552432 43380932 43209060 43039268 42873824 42714468 42561388 
3394.402 42413476 42268248 42122844 41974496 41821788 41664828 41504936 
3397.777 41344408 41185580 41030672 40880220 40734412 40592068 40451952 
3401.152 40312940 40174404 40035984 39897720 39759356 39620960 39482140 
3404.527 39342384 39201692 39059380 38915592 38770000 38622760 38473688 
3407.903 38322564 38169648 38015416 37860440 37705912 37552564 37401436 
3411.278 37253180 37107752 36965292 36825008 36686248 36548144 36409800 
3414.653 36270668 36130640 35989944 35849184 35708720 35568372 35427532 
3418.028 35284728 35138232 34987260 34831744 34673232 34514280 34358072 
3421.404 34207120 34062960 33925364 33792508 33661980 33531740 33400256 
3424.779 33267162 33132612 32997384 32861844 32726024 32589782 32453258 
3428.154 32316890 32181702 32048662 31918872 31792294 31668604 31546232 
3431.529 31423860 31300240 31175050 31048262 30920728 30792946 30665522 
3434.905 30538172 30410822 30283084 30155456 30028324 29902582 29778896 
3438.280 29658260 29540072 29424324 29309814 29195760 29081026 28965260 
3441.655 28848252 28730388 28612522 28495184 28378938 28263394 28147458 
3445.030 28029502 27907938 27781570 27650578 27516906 27383558 27254344 
3448.406 27132326 27019266 26914590 26816174 26720566 26624592 26525576 
3451.781 26422320 26314302 26202686 26088354 25972328 25855452 25737942 
3455.156 25620358 25503192 25386584 25270780 25155358 25039828 24923660 
3458.531 24806576 24688894 24571138 24454078 24337998 24222858 24107854 
3461.906 23991902 23874228 23754592 23633696 23512762 23393540 23277078 
3465.282 23164038 23054276 22946848 22840668 22734654 22628246 22520784 
3468.657 22412264 22303148 22194230 22086316 21980730 21878098 21778622 
3472.032 21681470 21585212 21487266 21386072 21280170 21169524 21055188 
3475.407 20939072 20823476 20709996 20599358 20491560 20385876 20281188 
3478.783 20176318 20070328 19962316 19851454 19737774 19622012 19505446 
3482.158 19390508 19279998 19175958 19079386 18989690 18904580 18821112 
3485.533 18735966 18646790 18552582 18453800 18351686 18247900 18144004 
3488.908 18040892 17939288 17839642 17742332 17647872 17556712 17468744 
3492.284 17383240 17298996 17214528 17128524 17040126 16948920 16855562 
3495.659 16760711 16666017 16572755 16482543 16396409 16315108 16238535 
3499.034 16165931 16095160 16024023 15949907 15870614 15785873 15696201 
3502.409 15603457 15510836 15421220 15336978 15259479 15188994 15124147 
3505.785 15062945 15002403 14939024 14869586 14792273 14706336 14613323 
3509.160 14516870 14421157 14330910 14249481 14177619 14114087 14055457 
3512.535 13997760 13937640 13872910 13803300 13729973 13654606 13578808 
3515.910 13504118 13431319 13360754 13292899 13228026 13166545 13108590 
3519.286 13053613 13000589 12947571 12893331 12836129 12775181 12710454 
3522.661 12642462 12571956 12499962 12427025 12353554 12280165 12206787 
3526.036 12133252 12059457 11985572 11911495 11837839 11765694 11696012 
3529.411 11630016 11569203 11513570 11463285 11417258 11374366 11332327 
3532.787 11289306 11243604 11194336 11140620 11082663 11020941 10956645 
3536.162 10890421 10823360 10756171 10689436 10623490 10559220 10497469 
3539.537 10439394 10385467 10335991 10290287 10246793 10203100 10156697 
3542.912 10105450 10047901 9983139 9912217 9836561 9758817 9681731 9609197 
3546.770 9543823 9488449 9443545 9407382 9376706 9346269 9310419 9265363 
3550.627 9209145 9142883 9070507 8997332 8928160 8866034 8811252 8761990 
3554.485 8715064 8667976 8619304 8569082 8518529 8468623 8419771 8371093 
3558.342 8321542 8269498 8214522 8157561 8100372 8045552 7995466 7951559 
3562.199 7914440 7882519 7853132 7822330 7785019 7735906 7670847 7587657 
3566.057 7488503 7379835 7271497 7174942 7099155 7047897 7018937 7005669 
3569.914 6998732 6989540 6972402 6944389 6905706 6858880 6807112 6753061 
3573.772 6698849 6645384 6593372 6543149 6495556 6450153 6406941 6364540 
3577.629 6321269 6275750 6226942 6175451 6122957 6072016 6025011 5983689 
3581.487 5949022 5920940 5898638 5880501 5864380 5847152 5825189 5793691 
3585.344 5748328 5685647 5605454 5511249 5410320 5312702 5228487 5164406 
3589.201 5123199 5102144 5096412 5098658 5101675 5099831 5088198 5064329 
3593.059 5027623 4979659 4923356 4863139 4804103 4750302 4704311 4666530 
3596.916 4635317 4607253 4578020 4544067 4503354 4456419 4405605 4355233 
3600.774 4310221 4273780 4247681 4231018 4221148 4213887 4205590 4193245 
3604.631 4175112 4150792 4119749 4082220 4038407 3988913 3935112 3879947 
3608.489 3827061 3780032 3741295 3710182 3683715 3657585 3627446 3590728 
3612.346 3548701 3505376 3467432 3440580 3428223 3429091 3438275 3447593 
3616.203 3448061 3432932 3397499 3341333 3268316 3186131 3104596 3033420 
3620.061 2980171 2948278 2936736 2941372 2955984 2974566 2991948 3005994 
3623.918 3016370 3024145 3030351 3033587 3029216 3009130 2963457 2884465 
3627.776 2771074 2634143 2495722 2381832 2313473 2296518 2321967 2372004 
3631.633 2428477 2476627 2508152 2521883 2521883 2514518 2505820 2498855 
3635.490 2493023 2486191 2475128 2458566 2437474 2414417 2392427 2373603 
3639.348 2357778 2343020 2327297 2309009 2288657 2268971 2254150 2247788 
3643.205 2252384 2267373 2289323 2313006 2331528 2338656 2328829 2298616 
3647.063 2246789 2175121 2087782 1990909 1892792 1803048 1731353 1686479 
3650.920 1674505 1695327 1744360 1811932 1886036 1952731 2000029 2018870 
3654.778 2005189 1962150 1899714 1833094 1777330 1741766 1729390 1735644 
3658.635 1752544 1771707 1787544 1796926 1799754 1797592 1792534 1786213 
3662.492 1779858 1774102 1770010 1769112 1772971 1782686 1798024 1816523 
3666.350 1833759 1843376 1837918 1810701 1757934 1681357 1589828 1499881 
3670.207 1432458 1404268 1423249 1484021 1571105 1661832 1732185 1761660 
3674.065 1736210 1655413 1534494 1404733 1300268 1243144 1237296 1270127 
3677.922 1322502 1375947 1419194 1448182 1465270 1476308 1486980 1500546 
3681.780 1517736 1536689 1555975 1575428 1596313 1620124 1647330 1675236 
3685.637 1697489 1706604 1694196 1655013 1589794 1505965 1416734 1336262 
3689.494 1276274 1241649 1231780 1242346 1268000 1303758 1345767 1389941 
3693.352 1433488 1472717 1505101 1528509 1542840 1549358 1551120 1551386 
3697.209 1552816 1556706 1561827 1565153 1562559 1550189 1525716 1489208 
3701.067 1444492 1397819 1357001 1329614 1319910 1329216 1355140 1392833 
3704.924 1436414 1480896 1522158 1558070 1587699 1611045 1627508 1635723 
3708.781 1633561 1617996 1587001 1541044 1483755 1422285 1366840 1326856 
3712.639 1309341 1316420 1345468 1390207 1442664 1495525 1543239 1582146 
3716.496 1610979 1630501 1642441 1648528 1650091 1647264 1639381 1625346 
3720.354 1604660 1577656 1546764 1515076 1486083 1462079 1443794 1429765 
3724.211 1417199 1403437 1386684 1367671 1349988 1338655 1339386 1355971 
3728.069 1388944 1434751 1486748 1536622 1575528 1597942 1601002 1586635 
3731.926 1560929 1530903 1501776 1474247 1444758 1408423 1362120 1308510 
3735.783 1256070 1217791 1204899 1222177 1267435 1332539 1407825 1485318 
3739.641 1560265 1631066 1696757 1754740 1797991 1815126 1792268 1719145 
3743.498 1596978 1446154 1302960 1208587 1186824 1235036 1330279 1441367 
3747.356 1540213 1604227 1622020 1592954 1527578 1443029 1357899 1287274 
3751.213 1239024 1216395 1220150 1249889 1303957 1377343 1462444 1548559 
3755.071 1624282 1680924 1713024 1720409 1707369 1681390 1650157 1619692 
3758.928 1593951 1574929 1564421 1564488 1576659 1600769 1633262 1668118 
3762.785 1697356 1713689 1713456 1698088 1674239 1651621 1639248 1641842 
3766.643 1657442 1678795 1696624 1703111 1694629 1673340 1645834 1621688 
3770.500 1608717 1611345 1629137 1658040 1692799 1727893 1759963 1787411 
3774.358 1810102 1829068 1845073 1857750 1866003 1866768 1856819 1834025 
3778.215 1798756 1755073 1710196 1673108 1651388 1648361 1662098 1685980 
3782.073 1711826 1732085 1742098 1741666 1734048 1724301 1717614 1716716 
3785.930 1721473 1729790 1739071 1747088 1753875 1760263 1767582 1776664 
3789.787 1787643 1799987 1813529 1828602 1845904 1865837 1887600 1908267 
3793.645 1923110 1927270 1916919 1892159 1857617 1822013 1796094 1787910 
3797.502 1800220 1828635 1863707 1892126 1900679 1880312 1828934 1755372 
3801.360 1676833 1616001 1590992 1608385 1662031 1736543 1813329 1873158 
3805.217 1902143 1893590 1851262 1788875 1726197 1682853 1669349 1686080 
3809.074 1724866 1775167 1827537 1876585 1921812 1965079 2008118 2049862 
3812.932 2085152 2105129 2100867 2066009 2002060 1919881 1840248 1785381 
3816.789 1770044 1796760 1854589 1924874 1985283 2017505 2009017 1958323 
3820.647 1876053 1784849 1711327 1674737 1681722 1725066 1789673 1857684 
3824.504 1914324 1951333 1966777 1965312 1955660 1947406 1946840 1955127 
3828.362 1968541 1980956 1986149 1980823 1964680 1941781 1918450 1900978 
3832.219 1894356 1901012 1919915 1948304 1981256 2013344 2038544 2051461 
3836.076 2047799 2025827 1987447 1938486 1887667 1844108 1813862 1799821 
3839.934 1800320 1810801 1826206 1842078 1855188 1864106 1869364 1872059 
3843.791 1874688 1880079 1890928 1909165 1936156 1971303 2012678 2057952 
3847.649 2104430 2150313 2194802 2237164 2275500 2305611 2319335 2305478 
3851.506 2251519 2149080 1999463 1820150 1644537 1508459 1436281 1431693 
3855.364 1480630 1562226 1656510 1750482 1836554 1912094 1976363 2029755 
3859.221 2071402 2100601 2116549 2119912 2112754 2098137 2078727 2055855 
3863.078 2029622 1999763 1968075 1939518 1921812 1921579 1941881 1978793 
3866.936 2022032 2056288 2067973 2047466 1995269 1923110 1851961 1803847 
3870.793 1791603 1814494 1859647 1909964 1949036 1967442 1965479 1951566 
3874.651 1939018 1940150 1962250 2004023 2058285 2113120 2157172 2181081 
3878.508 2179949 2154675 2112287 2064810 2025062 2004257 2007818 2033450 
3882.365 2072467 2112021 2139657 2145151 2124141 2080990 2028357 1984118 
3886.223 1964247 1977827 2023530 2090513 2163066 2226040 2266740 2277432 
3890.080 2257780 2213851 2157805 2103364 2062813 2043404 2046800 2069504 
3893.938 2105695 2149247 2194369 2236498 2272236 2299249 2315405 2319569 
3897.795 2311707 2292587 2265141 2233767 2203260 2178251 2161168 2151644 
3901.653 2146650 2141655 2132731 2117714 2097737 2076596 2059883 2052559 
3905.510 2057153 2073300 2098037 2127370 2157538 2185544 2210521 2232501 
3909.367 2252151 2270004 2286492 2301947 2316837 2331694 2347451 2365041 
3913.225 2383498 2401456 2415316 2421547 2417249 2401156 2375569 2344686 
3917.082 2314672 2291455 2278731 2277864 2287024 2303513 2323499 2343820 
3920.940 2361809 2375602 2383465 2384930 2379600 2368239 2353314 2338323 
3924.797 2326964 2322567 2327030 2339423 2357112 2376502 2394126 2407320 
3928.655 2414950 2417015 2414550 2408453 2399590 2388729 2376568 2364175 
3932.512 2353048 2345652 2342921 2345885 2354081 2365674 2378234 2389595 
3936.369 2398324 2403821 2407387 2410285 2413917 2418715 2424046 2427911 
3940.227 2427944 2421914 2409186 2390561 2369439 2350616 2338556 2337124 
3944.084 2347118 2367040 2392527 2418615 2440373 2454268 2459166 2455967 
3947.942 2447837 2438007 2429477 2423946 2421414 2420947 2421447 2422380 
3951.799 2423679 2426278 2430976 2438274 2447670 2458100 2468063 2475794 
3955.656 2480793 2482692 2482292 2480459 2478160 2475927 2473828 2471529 
3959.514 2469163 2466297 2463465 2460966 2459399 2459333 2460966 2464531 
3963.371 2469763 2476661 2484825 2493289 2501421 2508619 2514218 2518284 
3967.229 2521450 2524516 2528882 2535381 2544313 2555111 2566277 2575776 
3971.086 2582242 2584042 2581409 2574510 2564943 2554111 2543280 2533414 
3974.944 2524882 2517984 2512851 2509619 2508786 2510585 2515218 2522116 
3978.801 2530881 2540180 2549212 2557111 2563777 2569010 2573210 2576776 
3982.658 2579742 2582342 2584509 2586275 2587675 2588775 2589842 2590909 
3986.516 2591642 2591575 2590209 2587209 2583242 2578743 2575143 2573843 
3990.373 2575743 2581009 2588842 2598142 2607242 2614742 2619842 2622209 
3994.231 2622275 2620742 2618709 2616575 2615009 2614142 2614009 2614508 
3998.088 2615509 2616442 2617309 2617742 2617942 2617809 
##END=
