
##TITLE=Z316_2_c
##JCAMP-DX=5.01  $$ Nicolet v. 1
##DATATYPE=INFRARED SPECTRUM
##ORIGIN=UniL
##OWNER=Nicolet
##LONGDATE=2011/09/09
##TIME=12:56:00
##SPECTROMETER/DATA SYSTEM=Nicolet iS5
##DATA PROCESSING=
Ratio against background
%Transmittance->Absorbance
Truncated
ElementMultiply or ElementDivide
##COMMENTS=
Number of sample scans: 32
Collection length: 51.20 sec
Sample gain: 2.0
Background collected on: Ven Sep 09 12:34:57 2011 (GMT+02:00);
Number of background scans: 32
Background gain: 2.0
Sample spacing:  1.000
Number of scan points: 12415
Resolution points: 8192
Number of FFT points: 65536
Apodization: N-B fort;
Phase correction: Mertz;
Laser frequency: 15798.0 cm-1
Number of rejected sample scans: 0
Number of rejected background scans: 0
Bench serial number: ASB1000141;
##RESOLUTION=4.000
##XUNITS=1/CM
##YUNITS=ABSORBANCE
##FIRSTX=649.893372
##LASTX=4000.122314
##FIRSTY=0.080248
##MAXX=4000.122314
##MINX=649.893372
##MAXY=0.248902
##MINY=0.000779
##XFACTOR=1.000000
##YFACTOR=1.000000E-009
##NPOINTS=6950
##DELTAX=0.482117
##ZPD=6100
##XYDATA=(X++(Y..Y))
649.893 80248048 80138336 80064344 80027048 80013112 80003792 79986736 
653.268 79968456 79971368 80028088 80162440 80380520 80665296 80986904 
656.643 81313152 81624400 81917312 82199328 82476880 82747272 82994576 
660.018 83196296 83335248 83405904 83418112 83390688 83343640 83288008 
663.393 83222464 83133336 82999704 82796376 82493744 82061096 81471280 
666.767 80716280 79831128 78906536 78068960 77416936 76978312 76706704 
670.142 76518912 76322784 76041912 75631696 75079496 74408536 73664576 
673.517 72902632 72166488 71475952 70830392 70214648 69611992 69011296 
676.892 68410184 67811688 67219824 66636020 66060832 65496228 64948680 
680.267 64430020 63953408 63528164 63156068 62830388 62538900 62268788 
683.642 62011032 61763176 61528248 61309088 61106708 60917844 60736184 
687.016 60556584 60378352 60205748 60047176 59910796 59800320 59712904 
690.391 59640416 59573404 59504052 59429084 59349836 59269920 59192564 
693.766 59118224 59044880 58970068 58892040 58811452 58730652 58650812 
697.141 58571292 58488484 58397812 58295296 58181476 58060304 57939164 
700.516 57824340 57718440 57618996 57519732 57413076 57294192 57162836 
703.890 57024072 56885316 56753216 56631420 56519392 56413324 56308260 
707.265 56200236 56087268 55968640 55844576 55715652 55582848 55450048 
710.640 55325228 55222612 55159816 55155188 55221668 55358952 55550312 
714.015 55758220 55933020 56016656 55955184 55713052 55278116 54667028 
717.390 53920572 53102520 52290416 51560940 50992136 50650128 50580396 
720.765 50803664 51301856 52014312 52829044 53599832 54168312 54381376 
724.139 54138960 53411616 52252524 50781576 49160248 47555824 46092128 
727.514 44842336 43821848 43004072 42341112 41785924 41306620 40886408 
730.889 40518840 40200464 39923728 39677156 39448540 39229364 39017220 
734.264 38815036 38627360 38455440 38296180 38142948 37989596 37834192 
737.639 37679428 37531900 37397320 37277728 37170228 37068308 36966084 
741.013 36860608 36753424 36649296 36551316 36459956 36371100 36279024 
744.388 36178752 36069756 35955352 35841556 35732748 35629980 35530004 
747.763 35428900 35323936 35216948 35113476 35020228 34941040 34874936 
751.138 34816020 34756932 34693044 34624860 34557620 34498564 34452148 
754.513 34418108 34391464 34365816 34337668 34308764 34285532 34274740 
757.888 34280044 34298476 34322680 34345268 34363880 34385040 34421912 
761.262 34490420 34600816 34754920 34945528 35162552 35399276 35659728 
764.637 35959240 36324628 36787504 37377568 38121064 39034804 40121704 
768.012 41364852 42722184 44127888 45495516 46747928 47846712 48823800 
771.387 49793356 50937140 52461736 54507052 57081468 59997336 62895648 
774.762 65272756 66603264 66513860 64857416 61788120 57689456 53103496 
778.136 48573012 44510204 41182956 38672672 36922540 35792080 35122172 
781.511 34778072 34658088 34701944 34872672 35142580 35489156 35893988 
784.886 36347036 36848992 37409024 38040624 38755148 39561076 40466536 
788.261 41482260 42628200 43932440 45426568 47142896 49108640 51344512 
791.636 53871804 56715608 59907412 63483104 67469728 71869720 76641480 
795.010 81692216 86869368 91956912 96711088 100861448 104140280 106338776 
798.385 107322968 107078008 105713976 103467536 100663960 97642440 94738256 
801.760 92204344 90173160 88652408 87522904 86582000 85574768 84275928 
805.135 82540544 80333480 77741496 74943152 72167424 69612112 67410056 
808.510 65596804 64112952 62829816 61589676 60261700 58758684 57057060 
811.885 55186456 53210860 51203424 49225524 47325240 45532900 43866384 
815.259 42338408 40957624 39728744 38651696 37720372 36924380 36251144 
818.634 35690732 35237004 34888072 34643628 34503052 34463772 34521632 
822.009 34673700 34921612 35272184 35738472 36336368 37079744 37977080 
825.384 39026756 40214748 41509672 42863180 44210976 45468696 46547348 
828.759 47364072 47854260 47993340 47803468 47357792 46762796 46149016 
832.133 45651404 45379116 45410828 45777224 46455188 47364664 48372924 
835.508 49319944 50021464 50310884 50074672 49265680 47922776 46154692 
838.883 44126056 42012124 39965648 38106848 36500136 35164456 34085072 
842.258 33229820 32561422 32044202 31650286 31355082 31136890 30978654 
845.633 30866758 30793124 30755388 30754000 30789496 30860034 30961076 
849.008 31087200 31235538 31407296 31607982 31844738 32122828 32442976 
852.382 32800306 33186436 33594028 34019024 34462804 34930768 35430156 
855.757 35968776 36553372 37192644 37898796 38688172 39582340 40605420 
859.132 41779288 43125400 44662688 46409024 48383668 50602100 53068188 
862.507 55760216 58618576 61538708 64361388 66900828 68960960 70357648 
865.882 70963528 70716864 69636616 67814208 65405084 62605984 59611564 
869.256 56610204 53756028 51151680 48861176 46907512 45284152 43966208 
872.631 42920380 42113352 41512480 41089996 40822124 40686592 40665488 
876.006 40745620 40918812 41183540 41542560 41999936 42556860 43208220 
879.381 43939992 44732096 45558288 46390924 47206392 47984720 48713624 
882.756 49388436 50011464 50590300 51135056 51655008 52156792 52641760 
886.131 53108924 53557320 53990692 54421636 54870488 55363284 55926880 
889.505 56579896 57329432 58168256 59077560 60029484 60992380 61936476 
892.880 62832116 63650264 64364308 64946256 65370880 65618916 65677076 
896.255 65540500 65212532 64704096 64033112 63224176 62311584 61335228 
899.630 60338980 59368676 58461380 57644160 56931288 56323760 55814280 
903.005 55391440 55045536 54769972 54562460 54422876 54352088 54350660 
906.379 54419120 54559532 54776476 55076232 55466084 55952128 56536868 
909.754 57219796 57998840 58872540 59842188 60912352 62089580 63380992 
913.129 64791864 66327444 67995128 69807168 71784608 73956952 76357120 
916.504 79019520 81971728 85228904 88789584 92630248 96703176 100922848 
919.879 105164536 109268712 113032144 116247616 118735408 120374312 
922.771 121148968 121163640 120652624 119929552 119366328 119345960 
925.664 120177112 122082536 125151424 129326704 134393584 139988480 
928.557 145660688 150858944 155016896 157642544 158325808 156829664 
931.450 153113248 147333920 139828384 131057176 121580696 111946272 
934.342 102642048 94077936 86518544 80111792 74904448 70864752 67919304 
937.717 65978476 64958720 64778476 65348156 66561512 68263136 70244832 
941.092 72269080 74063544 75377048 76025024 75902000 75011272 73451296 
944.467 71401312 69072472 66671216 64380796 62323704 60567664 59131964 
947.841 58000432 57137856 56502524 56057864 55772572 55621000 55582620 
951.216 55638396 55770464 55964492 56208948 56496788 56824772 57190768 
954.591 57592212 58024816 58481848 58956668 59443976 59941532 60450012 
957.966 60971940 61509272 62062020 62627876 63202904 63784100 64369760 
961.341 64960300 65557144 66161028 66771008 67384328 67998080 68610648 
964.716 69222952 69838496 70461496 71094600 71737936 72388960 73044448 
968.090 73702616 74364776 75035616 75721816 76429216 77161360 77919264 
971.465 78703056 79513248 80353216 81228248 82144440 83106456 84114960 
974.840 85167704 86260744 87391312 88558544 89764288 91009920 92293720 
978.215 93608528 94942464 96279016 97601696 98896248 100149784 101350984 
981.590 102487088 103543032 104503480 105355200 106091576 106714504 
984.482 107234616 107667872 108031024 108339584 108607000 108845384 
987.375 109068856 109294192 109538440 109817744 110142472 110515472 
990.268 110933592 111390048 111879256 112398640 112949112 113533152 
993.160 114150832 114798416 115468464 116151792 116841712 117535112 
996.053 118232328 118934184 119639528 120342448 121034768 121707536 
998.946 122355832 122980784 123589536 124191344 124794560 125404360 
1001.839 126023176 126652536 127296760 127963824 128663824 129407080 
1004.731 130199416 131041584 131930960 132864984 133845448 134880496 
1007.624 135981984 137161808 138426960 139776304 141201136 142688480 
1010.517 144226576 145806160 147420736 149064192 150726160 152391856 
1013.409 154045392 155674256 157275680 158859952 160449952 162073344 
1016.302 163757344 165524128 167387264 169354592 171430752 173618192 
1019.195 175916608 178319104 180812048 183374064 185983040 188624944 
1022.087 191299440 194023536 196824656 199735120 202779328 205967648 
1024.980 209295680 212748656 216306864 219946304 223638720 227344784 
1027.873 231004448 234542352 237867936 240884224 243507728 245668240 
1030.766 247311424 248399216 248902032 248801760 248098336 246818032 
1033.659 245017696 242775728 240186048 237335568 234286640 231077488 
1036.552 227720416 224213488 220551728 216736384 212779072 208703168 
1039.446 204542672 200343984 196169888 192091184 188184768 184519568 
1042.339 181134944 178031264 175160576 172439568 169759568 167014960 
1045.232 164132816 161081088 157877424 154576992 151263264 148025952 
1048.125 144943840 142084368 139491376 137185792 135168352 133420824 
1051.018 131910848 130594848 129428728 128371568 127389696 126461504 
1053.911 125572640 124713264 123874496 123044864 122211192 121361120 
1056.804 120483624 119570760 118616832 117615216 116557608 115435320 
1059.697 114240648 112972320 111636896 110249912 108832144 107405064 
1062.590 105989000 104598920 103246096 101940408 100691072 99506808 98393808 
1065.965 97351792 96371632 95435488 94521088 93605608 92672160 91713952 
1069.341 90735152 89748408 88770760 87821480 86918504 86076936 85310024 
1072.716 84627968 84037120 83539544 83131928 82806328 82550800 82352416 
1076.091 82197968 82072984 81962728 81848208 81705896 81511536 81241984 
1079.466 80881592 80428568 79895408 79308760 78702096 78114056 77580872 
1082.842 77132976 76798360 76600520 76560136 76697488 77028912 77567792 
1086.217 78323720 79302128 80504904 81929152 83565128 85389232 87356872 
1089.592 89402816 91435552 93345504 95028600 96391696 97376296 97968480 
1092.967 98199344 98139528 97880976 97533128 97200576 96970984 96917056 
1096.343 97085536 97499160 98159720 99048856 100130128 101347088 102630760 
1099.718 103894960 105037496 105955936 106546816 106721200 106424456 
1102.611 105639472 104395136 102756968 100821696 98698912 96489664 94288136 
1105.986 92166616 90173904 88341680 86682592 85194632 83863568 82666384 
1109.361 81575024 80557704 79585624 78633952 77682208 76716264 75726120 
1112.737 74705040 73650520 72564208 71453376 70329640 69209656 68111552 
1116.112 67051672 66044556 65099852 64223268 63418188 62685980 62027012 
1119.487 61441020 60926304 60479720 60096180 59768760 59488852 59244212 
1122.862 59019368 58792292 58533104 58208832 57783916 57226980 56519508 
1126.238 55658472 54659364 53551700 52376872 51179380 49997856 48864772 
1129.613 47800844 46815164 45907836 45072340 44298072 43572468 42883876 
1132.988 42223108 41583908 40964576 40367404 39797412 39260772 38763376 
1136.363 38310260 37904220 37547760 37243072 36992748 36799980 36667572 
1139.739 36596736 36586676 36634944 36738204 36893576 37099484 37355900 
1143.114 37663052 38020224 38424888 38871704 39354316 39865612 40398712 
1146.489 40947648 41506176 42066880 42621436 43160752 43676108 44162332 
1149.864 44617704 45044848 45448716 45835328 46210188 46577340 46939812 
1153.240 47300408 47662156 48028164 48400336 48778940 49161624 49543716 
1156.615 49919568 50282980 50628200 50949544 51239848 51491060 51692480 
1159.990 51832684 51901236 51889732 51792512 51606536 51330380 50963108 
1163.365 50504200 49954432 49316940 48598212 47808464 46960340 46066812 
1166.740 45141008 44194100 43235668 42275148 41321960 40386168 39478548 
1170.116 38608564 37784056 37010032 36289108 35622068 35009776 34453656 
1173.491 33956644 33522510 33154890 32856700 32629498 32474398 32392602 
1176.866 32385926 32457828 32612034 32852516 33182968 33606988 34128656 
1180.241 34754240 35492572 36353952 37349836 38491392 39787024 41243508 
1183.617 42866068 44658464 46622044 48753692 51042516 53464152 55979040 
1186.992 58534776 61062736 63486404 65728768 67709912 69358936 70618104 
1190.367 71444824 71821008 71753576 71276744 70443992 69324152 67994592 
1193.742 66525980 64981884 63412972 61850620 60312332 58801324 57311928 
1197.118 55834212 54359480 52884912 51416008 49966476 48555560 47206940 
1200.493 45942268 44778524 43727260 42792748 41973476 41263256 40653080 
1203.868 40131880 39686196 39301176 38960096 38644380 38336752 38022032 
1207.243 37688748 37331024 36947540 36541116 36117064 35682820 35247496 
1210.619 34820504 34413232 34037764 33705340 33427022 33211722 33065960 
1213.994 32995134 33003536 33095494 33275534 33547670 33914472 34376396 
1217.369 34931704 35577364 36310612 37130776 38039172 39038680 40132356 
1220.744 41321960 42607656 43989308 45468180 47048580 48738200 50547344 
1224.120 52485588 54559380 56769152 59108768 61565128 64116180 66733024 
1227.495 69376392 71993632 74524840 76900464 79046624 80898080 82397000 
1230.870 83501672 84190976 84466144 84355232 83912008 83222184 82396320 
1234.245 81555424 80834968 80362064 80245464 80581200 81439784 82871408 
1237.621 84910944 87576520 90870736 94775512 99251272 104229528 109608168 
1240.996 115265400 121050752 126792760 132319080 137442624 141978592 
1243.889 145766400 148667584 150590544 151499024 151410224 150389296 
1246.782 148534032 145974080 142851712 139312368 135505136 131553856 
1249.675 127547712 123530000 119490344 115372472 111089888 106559392 
1252.568 101721000 96561744 91123360 85501056 79829784 74251336 68910944 
1255.943 63928836 59383800 55319284 51738688 48615592 45902124 43541076 
1259.319 41475808 39650656 38020584 36550088 35211672 33987096 32863382 
1262.694 31830334 30879424 30001340 29186688 28427716 27718312 27055444 
1266.069 26438940 25869450 25347556 24872394 24441318 24051116 23699546 
1269.444 23385602 23110428 22875628 22682424 22530170 22416732 22339388 
1272.820 22296344 22287556 22315216 22382400 22492028 22644932 22839760 
1276.195 23072096 23334904 23618442 23909552 24191502 24445946 24653156 
1279.570 24796754 24867412 24863940 24793736 24668866 24503506 24308246 
1282.945 24088312 23844124 23573696 23276276 22955020 22618018 22276778 
1286.321 21945216 21635532 21357148 21117066 20919358 20766088 20657800 
1289.696 20592722 20566700 20572918 20604012 20653074 20715764 20791462 
1293.071 20882158 20991128 21120754 21271922 21444028 21636926 21852312 
1296.446 22094126 22368098 22680540 23035304 23434526 23878150 24365718 
1299.822 24897938 25476066 26100598 26767258 27464452 28173406 28867232 
1303.197 29516238 30094264 30579694 30960400 31233616 31405300 31488940 
1306.572 31502764 31470702 31417872 31368580 31344254 31358394 31416200 
1309.947 31514484 31644620 31795182 31955320 32117620 32276518 32427232 
1313.323 32564708 32682046 32771294 32826286 32842830 32820426 32760966 
1316.698 32667506 32542602 32387674 32204610 31996440 31769372 31532906 
1320.073 31297282 31071964 30863698 30675336 30507210 30360114 30236476 
1323.448 30142420 30087198 30079882 30129564 30243154 30425784 30682128 
1326.823 31016694 31431694 31924650 32484322 33090092 33709420 34305968 
1330.199 34844704 35297164 35648072 35895788 36050024 36127760 36148900 
1333.574 36134136 36101260 36065976 36042252 36040668 36069432 36133812 
1336.949 36237024 36382200 36575104 36824720 37143804 37545628 38039644 
1340.324 38629244 39309228 40067600 40886300 41744632 42618624 43478668 
1343.700 44292200 45023896 45638628 46110364 46424328 46579328 46584604 
1347.075 46455188 46205548 45843908 45372792 44790060 44094148 43289040 
1350.450 42386844 41408408 40382676 39341584 38315688 37334308 36421544 
1353.825 35596460 34874720 34266204 33774384 33396214 33122492 32940044 
1357.201 32835186 32797556 32820318 32899476 33032422 33214190 33437938 
1360.576 33697032 33987632 34312820 34682672 35113156 35619512 36210804 
1363.951 36888056 37643792 38466084 39340064 40249860 41175708 42087796 
1367.326 42947740 43705972 44305300 44693756 44828376 44682408 44248504 
1370.702 43536608 42573304 41395868 40057132 38622436 37162500 35756928 
1374.077 34477400 33375424 32477252 31780350 31263382 30897494 30661326 
1377.452 30547520 30566254 30741624 31108662 31711444 32595388 33807264 
1380.827 35385544 37343660 39649928 42204668 44846968 47346560 49439780 
1384.203 50884608 51467224 51052132 49606968 47225116 44129612 40630196 
1387.578 37084764 33792292 30941614 28608558 26770220 25351352 24257438 
1390.953 23403822 22722398 22162080 21690110 21285910 20939630 20650156 
1394.328 20421612 20259490 20165732 20136994 20164446 20237690 20345318 
1397.704 20477980 20627500 20786630 20948808 21108370 21260752 21403266 
1401.079 21533816 21650612 21751834 21836110 21903952 21958320 22006070 
1404.454 22056300 22116684 22191790 22280510 22378390 22479362 22580496 
1407.829 22683472 22794850 22923374 23076254 23257014 23464426 23694404 
1411.205 23942986 24209020 24495268 24806190 25145282 25512328 25903176 
1414.580 26312224 26735190 27172464 27630096 28118788 28651348 29239032 
1417.955 29889022 30601558 31367478 32169786 32984980 33787168 34550840 
1421.330 35254900 35887400 36447956 36953856 37439616 37956180 38555476 
1424.706 39276948 40140532 41144452 42275952 43522032 44877572 46341188 
1428.081 47907680 49559424 51258752 52951984 54584704 56112908 57516516 
1431.456 58800980 59992088 61126656 62242632 63379080 64576672 65884104 
1434.831 67365360 69094736 71142968 73555760 76323504 79385056 82652752 
1438.207 86040344 89474552 92880816 96173240 99223912 101864744 103922952 
1441.582 105228032 105654184 105142968 103697896 101382288 98299224 94592104 
1444.957 90420896 85943088 81322136 76707056 72237848 68057448 64290380 
1448.332 61026660 58302116 56090584 54319604 52898388 51754288 50846428 
1451.708 50171284 49747540 49596236 49721384 50106312 50716408 51512960 
1455.083 52468204 53561484 54778580 56099524 57492080 58914012 60326452 
1458.458 61709624 63059592 64381988 65684788 66973648 68249208 69503496 
1461.833 70721816 71874992 72916072 73788064 74428512 74791000 74865320 
1465.208 74685568 74318056 73832200 73285688 72711936 72123456 71522440 
1468.584 70903920 70255744 69553768 68758360 67817112 66677548 65315844 
1471.959 63763456 62121196 60527292 59111884 57953096 57066052 56425320 
1475.334 55995964 55757352 55710300 55872496 56261180 56883580 57729604 
1478.709 58777992 60003460 61388616 62930384 64638568 66531540 68627920 
1482.085 70942072 73482096 76256360 79281000 82584784 86206152 90179488 
1485.460 94515360 99171456 104023944 108874544 113433160 117345448 120253632 
1488.835 121817224 121795472 120114496 116899824 112462856 107206240 
1491.728 101544424 95794992 90144336 84686840 79438680 74390056 69554824 
1495.104 64980692 60760420 57012816 53841720 51302192 49386356 48043156 
1498.479 47198816 46782280 46739772 47029600 47617712 48472276 49554896 
1501.854 50819868 52218032 53684596 55141456 56494148 57604848 58295864 
1505.229 58356004 57577192 55852828 53263332 50077496 46625108 43162724 
1508.604 39816584 36609964 33527054 30557082 27707858 25015856 22530346 
1511.980 20289244 18314460 16602015 15128538 13861177 12765558 11810533 
1515.355 10967722 10213649 9532510 8917439 8372173 7905093 7521440 7216108 
1519.212 6970886 6756662 6544327 6315554 6075477 5851484 5678866 5578469 
1523.070 5545377 5553667 5568770 5563903 5526182 5461990 5391164 5337457 
1526.927 5314413 5320719 5343126 5366340 5381704 5390392 5400390 5419479 
1530.785 5448635 5479069 5494571 5479203 5427465 5351076 5276714 5231271 
1534.642 5229661 5267289 5326388 5384555 5423908 5435584 5418641 5378953 
1538.500 5322732 5254545 5174499 5083806 4990351 4910487 4860559 4849301 
1542.357 4870946 4908410 4940045 4950534 4936358 4908108 4883646 4879324 
1546.214 4900803 4940916 4983849 5013076 5019445 5004663 4980128 4961225 
1550.072 4958846 4972688 4992462 5002517 4990384 4952244 4894302 4829801 
1553.929 4773450 4734826 4714326 4704579 4694229 4672626 4630628 4561713 
1557.787 4462009 4334718 4195553 4071551 3991722 3972260 4010415 4091151 
1561.644 4193212 4295832 4380469 4436066 4460972 4463482 4458628 4461541 
1565.501 4481158 4515842 4555117 4585253 4596404 4585922 4560675 4533319 
1569.359 4518755 4527092 4560909 4617367 4691884 4780820 4881636 4990552 
1573.216 5101675 5205047 5289995 5349466 5385998 5414548 5459674 5545277 
1577.074 5681652 5864246 6079509 6314411 6562491 6825051 7109697 7425571 
1580.931 7779959 8175051 8608353 9074601 9567398 10078997 10597652 11106627 
1584.789 11581147 11993269 12317966 12538362 12652594 12674427 12633422 
1588.164 12567966 12520594 12535225 12648432 12890020 13280156 13825396 
1591.539 14514917 15314942 16172051 17010388 17742814 18289716 18583498 
1594.914 18585610 18292134 17734428 16971692 16076626 15128469 14196414 
1598.290 13333795 12581063 11961560 11485569 11152927 10955524 10881554 
1601.665 10918826 11059143 11297264 11629642 12051077 12551220 13112756 
1605.040 13714447 14329335 14928050 15480172 15951557 16308123 16519334 
1608.415 16560569 16419049 16096536 15610257 14991394 14281223 13529685 
1611.791 12782483 12076866 11436648 10868779 10367583 9919234 9508024 
1615.166 9120516 8750765 8404130 8095511 7844327 7665417 7563313 7531014 
1619.023 7553468 7610922 7683258 7753750 7810219 7848645 7874219 7899390 
1622.881 7939039 8004071 8098279 8217156 8352380 8496059 8644180 8795360 
1626.738 8949739 9106406 9262114 9412054 9552731 9683052 9805990 9925607 
1630.595 10045562 10165787 10281941 10385297 10465087 10510844 10513322 
1633.971 10468007 10376474 10249846 10107179 9972086 9864558 9793756 9756919 
1637.828 9742280 9735063 9719137 9681731 9616380 9523535 9411648 9292917 
1641.686 9179566 9078459 8988368 8900529 8801176 8676055 8513596 8309654 
1645.543 8070024 7812344 7561222 7343640 7180972 7082619 7046112 7059583 
1649.400 7105891 7163758 7207349 7208595 7136744 6969034 6706555 6394667 
1653.258 6112473 5927524 5861123 5887655 5965448 6056392 6137273 6197263 
1657.115 6233967 6250438 6250908 6238942 6215682 6180290 6130619 6064791 
1660.973 5982345 5885304 5778244 5668862 5566957 5481853 5420553 5385058 
1664.830 5372747 5375598 5383012 5383985 5367715 5327293 5260817 5172788 
1668.688 5073112 4974330 4889007 4825277 4786515 4771105 4774187 4788056 
1672.545 4802328 4805477 4785577 4734290 4651559 4548822 4448217 4370830 
1676.402 4330334 4325883 4345595 4372436 4392150 4397539 4389740 4376553 
1680.260 4366981 4365341 4367181 4359249 4322469 4240788 4109614 3946581 
1684.117 3788187 3675528 3631489 3650501 3708979 3779296 3841703 3884326 
1687.975 3903884 3902915 3887268 3864033 3840299 3823184 3818303 3829268 
1691.832 3855576 3891681 3926887 3945778 3932537 3875834 3776088 3649966 
1695.689 3528357 3442684 3407785 3416701 3445389 3465361 3450365 3386011 
1699.547 3277129 3152688 3054675 3014202 3037591 3106699 3195143 3276862 
1703.404 3334222 3358029 3347711 3311150 3262774 3220045 3195310 3194443 
1707.262 3215438 3251657 3294790 3337627 3376628 3411091 3442684 3474045 
1711.119 3506712 3540584 3574391 3605862 3633928 3659021 3682613 3705670 
1714.977 3727493 3743969 3749584 3739724 3715295 3685119 3664501 3669347 
1718.834 3707742 3778127 3870285 3970622 4065998 4147279 4210642 4257150 
1722.691 4291816 4320194 4348105 4378595 4412367 4448887 4486548 4523610 
1726.549 4557293 4584516 4601594 4605579 4596102 4576111 4551735 4529235 
1730.406 4511858 4496793 4474329 4428902 4343419 4207564 4025966 3823953 
1734.264 3639909 3510353 3449898 3449731 3486103 3533001 3570449 3584814 
1738.121 3571117 3532600 3478989 3423046 3376361 3346308 3334054 3337393 
1741.979 3351985 3373756 3399569 3427521 3456578 3486537 3517601 3549837 
1745.836 3582977 3615952 3647126 3674559 3696213 3710984 3718236 3718069 
1749.693 3711285 3699555 3686221 3675495 3672855 3682512 3706339 3741830 
1753.551 3783006 3820610 3844611 3846784 3823685 3778227 3719739 3661026 
1757.408 3613380 3581440 3562698 3548501 3529026 3495288 3443385 3375159 
1761.266 3298029 3222582 3158862 3113740 3089646 3084107 3092349 3107633 
1765.123 3123018 3131228 3126989 3108101 3076432 3038525 3002991 2976901 
1768.980 2962256 2954783 2945409 2924493 2885966 2831635 2772041 2724092 
1772.838 2703020 2715256 2757335 2818695 2887701 2955183 3017438 3074429 
1776.695 3128057 3179422 3227055 3267281 3296660 3313387 3319363 3319464 
1780.553 3320332 3326542 3339230 3355190 3369783 3378531 3380034 3376094 
1784.410 3371018 3369382 3374357 3386212 3403343 3423380 3444788 3466397 
1788.268 3487406 3505676 3517134 3515998 3496925 3456744 3397165 3325574 
1792.125 3254228 3194509 3154590 3135600 3133564 3141440 3152454 3162066 
1795.982 3167373 3166839 3159463 3144678 3121650 3090614 3053174 3012300 
1799.840 2971964 2936168 2907414 2887267 2875126 2870357 2872124 2879996 
1803.697 2893638 2911817 2932466 2953048 2971097 2985042 2994817 3001357 
1807.555 3005660 3008530 3009664 3008163 3003392 2996452 2989646 2986910 
1811.412 2991714 3006628 3030751 3061282 3093918 3124787 3151686 3174149 
1815.270 3193742 3212768 3233597 3257366 3284441 3314021 3344071 3372888 
1819.127 3398300 3418805 3433499 3442817 3447627 3449564 3449597 3447860 
1822.984 3443285 3434401 3420709 3403710 3387648 3378030 3379767 3394327 
1826.842 3418371 3445289 3466297 3473745 3465428 3445222 3423013 3410957 
1830.699 3419039 3450465 3502102 3566006 3633460 3698218 3757037 3810214 
1834.557 3859521 3907261 3954237 4000818 4047135 4094361 4145373 4204286 
1838.414 4274683 4358848 4456050 4563487 4676176 4789028 4897485 4998160 
1842.271 5089572 5172889 5252365 5335445 5430753 5546217 5685043 5844532 
1846.129 6016310 6188894 6350149 6489636 6601951 6685794 6743537 6779345 
1849.986 6796476 6795837 6776653 6736807 6675969 6595593 6500197 6394936 
1853.844 6284457 6170880 6054510 5934141 5809775 5682659 5556050 5433705 
1857.701 5317834 5208333 5102614 4997255 4890515 4782796 4677247 4577919 
1861.559 4488389 4409321 4339838 4277595 4221549 4172135 4131925 4102556 
1865.416 4083892 4072387 4062119 4046166 4020615 3986004 3948687 3917559 
1869.273 3900674 3901878 3918996 3945644 3974166 3998879 4016636 4026835 
1873.131 4030514 4028374 4020549 4006871 3987475 3963566 3937553 3911473 
1876.988 3886399 3861426 3833780 3800320 3759477 3711585 3659823 3608001 
1880.846 3559558 3515230 3473812 3432097 3387815 3339998 3290450 3241709 
1884.703 3197046 3157694 3122918 3090914 3059513 3027615 2996018 2966993 
1888.561 2942607 2924993 2915520 2914486 2922258 2939204 2965025 2997887 
1892.418 3034989 3071593 3102928 3126255 3141741 3153556 3166906 3186699 
1896.275 3214537 3248219 3282538 3311818 3332953 3346609 3356493 3368013 
1900.133 3385010 3408720 3437440 3467131 3494320 3517434 3537043 3555048 
1903.990 3573188 3592398 3611442 3629217 3644353 3656582 3666740 3675829 
1907.848 3682847 3686923 3686088 3679204 3666439 3650467 3633460 3617823 
1911.705 3604660 3592866 3581607 3571251 3563433 3561028 3566206 3577999 
1915.563 3591129 3598479 3592098 3567676 3527455 3479490 3434869 3401940 
1919.420 3382806 3372554 3362370 3343103 3309915 3264744 3214871 3169643 
1923.277 3135967 3115643 3104663 3097622 3089079 3078334 3068089 3063451 
1927.135 3067222 3079235 3095152 3109302 3117144 3117879 3114141 3110670 
1930.992 3111404 3116644 3124019 3128925 3127790 3120148 3108201 3095419 
1934.850 3085708 3080002 3077266 3075931 3074263 3072961 3073629 3077366 
1938.707 3083206 3087310 3085174 3072661 3049570 3020174 2991915 2972264 
1942.564 2965525 2970563 2982106 2993416 3000155 3001824 3002324 3006261 
1946.422 3017405 3035556 3057812 3079902 3099290 3116110 3133097 3153188 
1950.279 3177453 3203421 3226921 3243445 3251424 3253794 3256398 3263943 
1954.137 3279900 3301735 3323671 3338095 3339931 3327109 3302202 3269918 
1957.994 3233998 3196746 3159129 3120215 3082138 3049170 3026080 3016971 
1961.852 3022810 3038425 3056344 3068990 3071526 3063918 3050271 3036223 
1965.709 3025946 3021375 3021208 3022777 3025579 3029450 3035789 3045633 
1969.566 3058312 3071760 3084607 3097355 3113707 3139204 3178554 3231361 
1973.424 3292654 3352753 3402875 3439411 3466564 3493652 3531831 3586785 
1977.281 3653976 3720742 3769771 3787652 3769938 3722146 3656616 3587888 
1981.139 3527522 3480358 3447393 3426653 3417035 3418838 3433499 3460185 
1984.996 3494687 3530529 3559157 3575360 3579603 3576997 3576262 3585115 
1988.854 3606530 3638004 3672588 3701794 3719138 3722948 3714727 3700023 
1992.711 3683648 3670416 3663699 3667141 3683147 3714627 3761482 3820710 
1996.568 3885095 3945945 3995133 4028240 4046835 4056099 4061049 4066133 
2000.426 4070648 4070179 4059410 4035899 4001387 3961728 3924647 3895459 
2004.283 3874665 3859153 3842672 3820911 3793535 3764022 3737987 3719606 
2008.141 3707742 3697082 3681744 3657150 3624038 3587754 3555549 3533368 
2011.998 3523848 3524917 3531698 3542688 3557687 3579502 3611976 3655479 
2015.855 3704935 3753895 3792532 3816532 3827630 3833647 3842806 3862663 
2019.713 3894690 3934844 3977343 4016803 4052018 4085331 4120719 4158720 
2023.570 4197226 4229077 4247446 4248818 4235368 4213988 4194516 4184212 
2027.428 4184179 4190635 4196089 4194550 4183543 4166749 4150022 4140355 
2031.285 4142128 4155943 4180264 4213385 4254339 4302324 4357241 4414676 
2035.143 4469407 4514972 4547315 4567271 4581201 4598614 4629255 4677516 
2039.000 4743301 4820017 4899094 4972822 5036540 5088567 5129200 5157465 
2042.857 5172855 5173660 5159946 5134833 5105531 5079951 5066206 5068754 
2046.715 5087594 5118338 5155453 5193277 5227347 5253773 5268798 5267356 
2050.572 5245893 5201760 5138421 5063961 4990686 4932605 4900535 4897821 
2054.430 4919938 4956098 4993434 5021221 5035300 5036372 5029936 5022294 
2058.287 5018506 5020484 5028830 5042640 5061178 5083638 5108849 5133324 
2062.145 5153609 5164641 5164305 5153844 5137817 5122629 5114314 5115555 
2066.002 5124707 5136744 5145529 5145730 5135437 5115421 5087896 5056384 
2069.859 5023098 4989915 4959215 4934013 4917323 4912531 4920406 4938570 
2073.717 4962131 4983748 4998026 5001445 4994775 4981000 4964074 4947719 
2077.574 4933543 4922551 4915547 4913805 4919368 4934113 4957539 4986865 
2081.432 5017031 5042339 5058932 5066508 5067413 5066374 5067078 5070900 
2085.289 5075325 5076900 5071134 5056585 5034327 5008249 4981871 4958075 
2089.146 4936995 4917223 4897318 4877313 4858549 4845280 4840757 4847157 
2093.004 4863441 4887767 4916486 4946546 4976676 5005400 5031612 5053870 
2096.861 5069324 5076833 5076397 5071101 5065670 5065569 5072877 5086388 
2100.719 5101876 5113443 5117097 5112068 5102111 5093629 5092657 5102882 
2104.576 5123568 5152134 5184290 5217454 5251627 5288989 5331352 5379926 
2108.434 5432463 5485478 5535713 5581355 5623277 5664263 5707133 5753398 
2112.291 5801783 5849469 5893163 5931252 5964843 5996152 6029076 6065766 
2116.148 6106088 6148464 6189734 6227379 6260085 6288155 6312259 6333843 
2120.006 6353041 6370558 6387001 6403713 6422678 6445411 6472618 6502652 
2123.863 6532419 6559463 6582305 6602018 6621934 6645687 6675464 6709785 
2127.721 6744177 6771369 6786278 6785504 6770797 6747004 6721294 6699421 
2131.578 6685491 6679939 6681991 6689764 6702046 6717693 6735629 6753566 
2135.436 6768441 6777326 6778302 6771807 6761206 6750537 6743336 6740677 
2139.293 6741182 6740442 6735158 6722976 6704738 6682530 6660155 6638521 
2143.150 6617762 6595121 6568681 6536052 6497977 6455332 6410001 6363497 
2147.008 6316159 6269128 6223950 6183013 6149404 6125007 6107634 6091639 
2150.865 6070302 6035426 5982714 5912678 5830428 5742184 5653957 5566655 
2154.723 5478397 5386065 5289492 5192807 5107743 5049110 5029835 5055915 
2158.580 5123534 5220506 5331050 5441388 5542861 5633011 5711665 5779319 
2162.438 5835264 5877411 5904751 5918723 5923291 5922552 5921780 5921746 
2166.295 5921612 5917581 5906665 5887117 5859813 5827338 5791407 5753028 
2170.152 5711631 5665370 5612872 5554741 5492860 5431155 5372981 5321390 
2174.010 5278391 5245926 5224530 5215543 5218527 5231539 5249078 5265076 
2177.867 5271750 5266317 5248441 5223558 5198877 5180903 5172319 5170710 
2181.725 5170274 5164607 5149619 5126920 5101943 5081057 5069860 5070162 
2185.582 5079381 5093394 5107944 5121321 5133995 5147976 5163970 5181775 
2189.439 5199011 5213832 5225369 5235429 5246731 5261521 5279598 5297408 
2193.297 5309818 5310958 5298783 5275573 5247401 5222518 5207562 5206757 
2197.154 5219500 5242136 5270308 5300594 5330312 5359060 5385360 5407938 
2201.012 5425015 5435852 5440147 5440315 5439073 5438738 5439912 5440784 
2204.869 5438402 5430283 5416427 5398545 5382006 5370331 5365534 5366104 
2208.727 5367782 5365433 5356175 5340241 5320283 5301399 5287782 5281678 
2212.584 5282717 5289459 5300225 5315017 5334941 5361072 5393110 5429041 
2216.441 5465211 5497054 5522591 5541250 5555412 5568400 5582597 5598439 
2220.299 5615020 5629050 5638113 5641269 5638852 5631870 5622035 5609582 
2224.156 5595116 5579073 5563131 5549975 5543163 5545243 5556654 5574811 
2228.014 5595049 5611496 5620122 5618679 5607904 5590149 5569206 5547593 
2231.871 5527289 5509202 5493967 5482189 5475176 5473431 5477357 5485746 
2235.729 5497658 5511115 5525846 5541552 5558600 5577664 5598372 5619887 
2239.586 5641034 5661309 5680746 5700418 5721401 5743929 5767601 5789963 
2243.443 5809339 5823476 5833014 5839394 5845506 5853264 5863877 5876740 
2247.301 5890308 5902030 5911603 5918455 5923493 5928061 5933066 5938844 
2251.158 5946032 5955001 5966993 5983689 6005996 6034082 6066136 6099267 
2255.016 6129712 6154446 6171485 6179820 6179517 6170207 6151589 6123226 
2258.873 6086061 6042348 5996757 5955102 5922317 5902198 5895514 5899948 
2262.730 5911401 5926449 5942035 5957654 5973611 5990743 6008986 6027632 
2266.588 6044397 6057937 6067413 6073628 6078030 6082667 6088380 6096007 
2270.445 6105483 6116303 6128703 6142818 6158344 6174240 6188894 6199582 
2274.303 6204254 6202809 6196120 6187482 6179719 6175719 6175921 6179921 
2278.160 6185365 6190642 6194574 6197734 6201397 6206909 6214943 6225631 
2282.018 6237765 6250975 6264556 6278742 6293433 6308460 6322647 6334414 
2285.875 6341710 6343492 6339693 6331758 6321572 6311754 6303888 6299047 
2289.732 6297298 6298979 6303854 6312494 6324866 6340971 6360337 6382092 
2293.590 6404755 6427588 6449547 6469995 6488459 6503863 6515131 6521050 
2297.447 6521319 6516509 6508067 6498045 6488291 6479815 6472517 6465421 
2301.305 6457350 6447530 6435692 6422645 6408756 6394163 6378225 6359799 
2305.162 6337675 6311553 6282036 6250707 6219715 6190944 6165536 6143725 
2309.020 6125142 6109079 6095268 6083406 6073091 6063918 6055048 6045371 
2312.877 6034553 6022558 6010397 5999075 5989265 5980397 5971092 5958730 
2316.734 5941262 5916943 5886144 5850342 5812126 5774249 5739330 5708879 
2320.592 5684036 5665069 5651540 5642007 5634186 5624318 5608408 5582664 
2324.449 5545109 5495913 5437966 5375330 5312938 5254847 5203403 5159142 
2328.307 5121958 5090746 5065536 5047032 5036137 5033657 5039288 5051490 
2332.164 5067849 5085985 5103821 5120081 5134665 5147238 5157968 5166820 
2336.021 5174096 5180668 5188414 5198776 5213463 5232679 5255484 5279430 
2339.879 5302238 5322027 5338564 5352653 5366037 5380463 5396901 5416057 
2343.736 5438939 5468029 5507323 5561923 5636469 5733219 5850645 5983084 
2347.594 6121344 6254539 6372340 6465119 6526600 6553577 6547085 6511498 
2351.451 6455097 6387976 6319554 6257396 6205699 6164461 6131526 6104072 
2355.309 6080382 6061163 6048664 6046379 6056761 6080987 6117782 6164595 
2359.166 6218639 6278137 6342282 6411010 6483952 6560507 6638386 6715405 
2363.023 6789644 6860664 6929340 6997756 7067901 7140819 7216377 7293533 
2366.881 7370499 7445525 7517495 7585229 7647645 7703359 7751557 7791935 
2370.738 7826277 7857822 7890786 7929928 7978827 8039376 8111579 8195040 
2374.596 8289052 8393793 8510386 8640023 8783492 8940404 9108809 9285842 
2378.453 9468976 9656117 9846153 10039153 10234579 10431893 10629603 
2381.828 10825635 11017610 11203414 11381338 11549637 11706564 11849961 
2385.204 11977125 12086404 12176186 12246831 12299934 12337942 12363134 
2388.579 12377009 12380453 12373122 12355123 12326795 12289334 12244753 
2391.954 12194826 12141157 12084292 12024608 11962138 11897499 11831881 
2395.329 11767158 11705134 11647612 11595712 11550760 11513910 11486623 
2398.705 11470566 11467775 11479037 11504452 11543103 11593296 11653636 
2402.080 11722835 11800659 11887044 11982302 12086302 12198575 12319125 
2405.455 12447585 12584815 12731676 12888997 13056959 13234721 13420828 
2408.830 13613303 13811612 14015725 14226781 14445819 14672850 14905795 
2412.206 15141198 15373399 15597103 15807487 16000921 16175043 16328318 
2415.581 16459450 16567282 16651075 16710917 16748037 16765393 16766187 
2418.956 16754271 16732473 16702790 16666189 16623359 16574614 16520884 
2422.331 16463477 16404117 16344316 16285488 16229695 16178448 16134154 
2425.707 16099630 16077178 16069029 16076488 16100042 16139863 16196297 
2429.082 16269596 16360419 16469190 16595922 16739395 16898276 17070866 
2432.457 17256414 17454980 17667714 17896264 18141826 18404676 18683974 
2435.832 18978406 19286060 19605718 19936922 20279834 20634728 21002534 
2439.208 21384124 21780296 22192940 22623324 23072934 23542528 24031858 
2442.583 24539476 25063698 25602714 26155104 26720460 27298938 27889706 
2445.958 28491856 29103278 29721342 30343484 30967766 31593338 32219670 
2449.333 32846440 33472184 34094996 34712136 35320704 35917988 36501580 
2452.708 37069388 37618464 38145192 38644492 39110496 39537700 39920460 
2456.084 40253824 40534008 40757264 40919980 41019164 41051576 41015012 
2459.459 40907780 40729100 40478612 40156488 39763860 39302880 38777428 
2462.834 38194036 37560368 36886468 36182640 35459096 34724912 33988564 
2466.209 33257004 32537210 31836290 31161166 30519190 29917490 29361004 
2469.585 28853422 28396764 27990662 27634228 27325968 27063908 26846310 
2472.960 26669970 26531774 26426334 26348344 26291456 26249602 26217714 
2476.335 26191670 26168020 26144934 26120688 26093912 26063934 26029808 
2479.710 25990478 25944820 25891888 25830378 25760232 25681236 25594384 
2483.086 25501364 25404218 25304988 25205604 25107718 25011958 24919484 
2486.461 24830258 24744346 24661258 24580568 24500806 24421304 24341046 
2489.836 24259820 24177772 24095736 24014312 23933674 23853226 23771602 
2493.211 23687334 23598150 23502198 23398472 23286132 23164492 23033730 
2496.587 22894208 22746594 22592050 22432432 22269106 22103644 21936850 
2499.962 21768938 21599524 21428330 21255010 21080264 20905382 20732168 
2503.337 20562252 20397406 20238314 20085700 19939418 19799604 19665624 
2506.712 19537228 19413618 19293958 19177446 19063806 18952722 18845126 
2510.088 18741398 18642018 18546048 18451864 18357042 18259374 18157064 
2513.463 18050114 17939806 17828628 17719104 17613468 17513310 17418834 
2516.838 17330030 17247072 17170026 17099194 17035128 16978446 16929108 
2520.213 16887496 16853668 16827870 16810648 16801900 16800868 16806274 
2523.589 16815746 16826870 16838238 16848846 16859318 16870684 16884326 
2526.964 16900790 16919808 16940238 16960496 16979686 16996606 17011456 
2530.339 17023860 17033922 17040574 17043536 17042020 17035956 17025962 
2533.714 17013386 16999464 16985648 16972692 16961218 16951262 16943614 
2537.090 16938410 16936724 16938962 16945372 16955982 16970520 16989024 
2540.465 17011558 17038988 17071348 17108500 17149584 17192740 17236006 
2543.840 17277964 17317340 17354686 17390656 17426180 17461844 17497374 
2547.215 17531906 17564542 17594940 17622958 17649218 17674410 17698878 
2550.591 17722520 17744782 17764836 17782164 17797078 17810124 17822208 
2553.966 17833910 17845788 17857732 17869470 17880588 17890946 17900234 
2557.341 17908004 17913218 17914598 17910352 17898680 17878552 17849690 
2560.716 17812094 17766942 17715170 17657916 17595700 17529594 17459912 
2564.092 17387724 17313790 17239212 17165164 17092888 17023482 16958394 
2567.467 16899310 16847880 16805310 16772661 16749725 16735882 16729718 
2570.842 16729752 16734470 16742839 16754271 16768115 16784438 16803070 
2574.217 16824286 16848776 16877264 16910816 16949988 16994952 17044812 
2577.593 17098436 17153512 17208632 17262620 17315236 17366998 17419212 
2580.968 17473158 17529732 17589316 17652152 17717480 17784650 17853002 
2584.343 17921470 17990018 18058680 18127836 18198904 18273024 18351028 
2587.718 18433090 18518868 18606912 18695320 18782152 18865820 18945696 
2591.094 19021640 19093822 19162798 19229014 19293056 19355586 19417014 
2594.469 19478484 19540590 19604228 19669158 19735416 19802274 19869696 
2597.844 19937894 20007800 20080774 20158268 20241336 20330562 20425604 
2601.219 20525812 20630314 20738390 20849376 20963240 21080056 21200070 
2604.594 21323598 21451060 21582808 21719160 21859768 22004432 22152562 
2607.970 22303392 22456226 22610900 22767056 22924806 23083416 23241562 
2611.345 23396898 23546306 23686460 23814338 23927722 24025658 24108310 
2614.720 24176756 24231826 24274888 24307264 24329796 24343640 24350052 
2618.095 24350124 24345076 24336070 24323910 24309122 24292618 24274538 
2621.471 24255582 24235926 24216166 24196478 24177700 24160326 24145404 
2624.846 24133844 24126418 24123582 24125264 24131182 24140886 24154406 
2628.221 24172342 24195288 24224576 24260732 24303866 24353066 24407110 
2631.596 24464490 24524014 24585514 24648808 24714182 24782124 24852396 
2634.972 24924432 24997358 25070752 25144404 25218700 25294170 25371760 
2638.347 25451754 25533938 25617862 25703208 25789380 25875956 25962970 
2641.722 26049790 26136208 26221480 26305184 26387074 26467746 26547906 
2645.097 26629032 26712392 26799152 26889842 26984642 27083268 27185342 
2648.473 27290506 27398414 27508928 27622082 27737914 27856742 27979070 
2651.848 28105176 28235564 28370624 28510220 28654320 28802824 28955768 
2655.223 29113268 29276178 29444572 29618706 29798412 29982986 30171686 
2658.598 30363986 30559822 30759228 30962534 31169816 31380724 31594266 
2661.974 31809122 32024014 32238048 32451082 32663182 32874994 33086802 
2665.349 33298932 33511270 33723996 33937688 34153132 34371520 34594036 
2668.724 34821296 35053560 35290044 35529824 35772324 36017264 36264436 
2672.099 36514664 36767920 37024032 37282136 37540716 37797792 38051580 
2675.475 38300452 38543240 38779748 39009824 39234044 39453548 39670220 
2678.850 39885736 40102444 40322572 40548156 40781176 41023096 41275320 
2682.225 41539536 41816716 42108388 42416108 42740756 43083064 43443436 
2685.600 43821668 44217028 44628720 45055396 45495332 45947280 46409876 
2688.976 46882152 47364072 47855628 48357260 48869184 49391552 49924028 
2692.351 50465904 51017024 51576872 52145916 52724544 53313080 53911792 
2695.726 54520124 55137508 55763416 56397024 57038280 57686956 58342704 
2699.101 59005364 59673484 60346444 61023192 61702752 62384792 63068784 
2702.477 63753664 64437708 65118208 65791728 66454232 67102292 67732368 
2705.852 68340920 68924920 69480704 70004296 70491968 70940160 71345776 
2709.227 71706632 72021200 72288568 72508168 72679744 72803776 72881792 
2712.602 72915648 72907696 72860112 72774032 72649424 72485464 72280464 
2715.978 72033328 71743488 71411816 71039544 70629176 70183376 69705112 
2719.353 69197848 68666136 68114776 67549464 66976352 66401720 65831512 
2722.728 65271712 64727708 64205168 63709504 63245176 62816068 62424348 
2726.103 62071156 61756296 61479304 61239228 61036192 60870268 60741708 
2729.479 60650412 60595704 60575744 60588120 60630712 60701204 60797580 
2732.854 60918720 61063076 61229000 61414684 61617856 61836292 62068328 
2736.229 62312460 62567024 62830316 63100084 63373132 63646772 63917400 
2739.604 64182504 64439936 64688408 64926668 65154472 65371728 65578924 
2742.979 65777532 65969684 66158176 66345708 66535056 66727808 66924980 
2746.355 67126888 67333520 67544512 67759400 67976920 68195320 68412320 
2749.730 68624880 68830224 69026832 69213896 69392528 69564928 69733512 
2753.105 69901224 70070528 70243624 70422336 70608168 70801960 71003840 
2756.480 71213304 71428608 71647344 71866784 72084064 72296000 72499992 
2759.856 72692552 72869640 73027360 73160816 73266120 73340144 73380936 
2763.231 73386984 73357912 73292672 73190704 73051272 72875200 72664584 
2766.606 72423560 72158464 71875616 71581624 71282408 70982104 70684504 
2769.981 70392760 70109656 69838616 69582592 69343936 69124256 68923368 
2773.357 68740896 68575256 68425352 68289496 68166600 68054928 67952128 
2776.732 67854728 67758432 67657792 67546872 67419616 67270072 67092888 
2780.107 66883856 66640468 66362380 66051500 65712192 65350124 64971456 
2783.482 64582168 64187424 63791008 63396096 63005076 62619724 62241712 
2786.858 61871516 61509232 61153544 60802608 60454660 60108168 59762640 
2790.233 59418444 59077068 58739376 58407060 58080872 57761356 57449532 
2793.608 57146736 56854424 56574800 56309312 56058352 55821480 55597044 
2796.983 55382780 55176104 54975132 54778276 54584964 54395084 54208848 
2800.359 54025996 53846560 53669636 53494172 53318960 53142136 52961644 
2803.734 52775912 52583752 52384420 52178648 51967780 51753728 51538888 
2807.109 51325684 51116012 50911392 50713092 50521320 50336404 50157744 
2810.484 49984844 49816696 49652620 49492136 49335164 49181776 49031960 
2813.860 48885872 48743316 48603620 48466752 48333000 48203436 48080720 
2817.235 47968472 47870648 47791412 47734748 47703572 47700612 47727724 
2820.610 47786268 47877084 48000592 48156232 48342148 48555860 48793992 
2823.985 49052324 49326624 49612316 49904588 50198320 50487860 50767128 
2827.361 51030332 51271316 51484792 51666092 51811440 51918076 51984212 
2830.736 52009644 51995080 51942720 51856352 51739544 51596460 51430704 
2834.111 51245364 51043148 50826720 50598676 50362044 50119700 49874112 
2837.486 49626912 49378672 49128784 48876416 48620596 48360812 48097188 
2840.862 47830288 47560516 47288068 47013132 46735308 46454640 46171976 
2844.237 45888720 45607160 45330088 45059952 44798988 44548936 44310692 
2847.612 44085712 43875180 43680872 43504892 43349736 43216968 43108128 
2850.987 43023572 42962884 42924768 42907468 42908640 42926196 42958092 
2854.363 43002572 43058220 43124008 43198592 43280400 43367056 43455632 
2857.738 43542504 43623864 43696116 43755368 43798980 43823864 43827968 
2861.113 43809056 43765520 43696152 43600528 43479364 43333848 43166420 
2864.488 42980368 42779112 42567272 42349660 42131312 41917968 41715196 
2867.864 41528156 41361684 41219936 41105988 41021748 40968000 40943900 
2871.239 40946776 40972920 41017272 41074336 41139460 41209004 41281076 
2874.614 41355412 41432864 41514232 41600172 41690136 41782972 41877720 
2877.989 41973368 42070164 42168772 42270656 42376544 42486404 42599620 
2881.365 42714180 42828692 42941560 43052400 43161336 43269236 43376792 
2884.740 43484528 43592504 43700220 43806972 43912024 44014204 44112524 
2888.115 44206168 44294144 44376088 44452168 44522904 44589248 44652408 
2891.490 44713184 44772100 44829000 44883852 44935956 44985824 45033196 
2894.865 45078772 45122740 45165644 45207852 45250060 45293272 45338512 
2898.241 45387432 45440992 45499344 45562044 45627108 45691964 45753844 
2901.616 45809808 45857604 45895168 45920908 45933320 45931628 45915052 
2904.991 45883416 45837460 45778000 45706396 45623724 45531244 45429292 
2908.366 45318684 45200276 45074692 44943264 44807216 44667316 44524080 
2911.742 44377516 44227080 44072656 43914000 43751448 43585876 43418428 
2915.117 43250164 43082224 42915624 42751248 42590040 42433280 42282052 
2918.492 42137920 42002636 41877612 41764916 41666212 41583396 41517804 
2921.867 41470484 41441284 41429256 41432756 41449268 41475660 41508652 
2925.243 41544892 41580228 41611000 41632880 41642108 41636128 41613480 
2928.618 41574720 41522072 41459948 41393208 41328008 41270832 41227624 
2931.993 41204704 41208568 41244272 41316892 41430424 41587552 41789320 
2935.368 42035380 42323688 42651264 43013768 43406272 43823244 44258848 
2938.744 44708080 45166084 45629024 46094116 46558820 47020668 47476236 
2942.119 47920892 48348552 48751580 49120256 49444572 49713472 49916112 
2945.494 50043544 50089504 50051728 49933212 49742304 49492472 49199548 
2948.869 48881532 48555268 48234276 47929028 47645148 47385100 47148032 
2952.245 46931356 46732096 46547016 46373520 46209788 46055100 45908976 
2955.620 45771664 45642972 45522596 45409868 45303828 45203216 45107516 
2958.995 45016696 44931104 44851632 44779152 44713920 44655452 44603384 
2962.370 44556280 44513728 44475440 44441856 44413812 44392456 44378652 
2965.746 44373188 44376676 44389484 44411572 44442848 44482192 44527824 
2969.121 44577096 44626700 44672896 44712780 44743816 44764792 44775624 
2972.496 44777060 44770776 44759316 44745580 44733456 44726556 44728352 
2975.871 44739664 44759280 44781208 44795792 44790060 44748848 44657692 
2979.247 44505212 44284680 43995284 43642660 43238412 42796696 42334684 
2982.622 41869472 41415152 40983880 40583992 40219328 39891256 39598712 
2985.997 39339408 39111332 38913236 38744500 38604148 38489688 38395456 
2989.372 38309644 38216792 38096432 37926168 37687048 37365688 36958040 
2992.748 36470768 35920328 35330696 34726780 34132668 33566680 33038714 
2996.123 32551530 32101422 31682252 31285960 30906106 30538740 30181846 
2999.498 29834576 29497160 29169360 28850766 28540438 28237368 27940552 
3002.873 27649870 27365454 27087358 26816562 26553472 26298708 26052570 
3006.249 25815470 25587706 25369512 25161398 24963280 24774934 24595960 
3009.624 24425196 24261048 24101656 23945016 23789662 23634744 23480338 
3012.999 23327456 23177704 23032684 22893684 22761470 22635926 22516734 
3016.374 22403612 22296416 22195276 22100610 22012518 21930264 21852660 
3019.750 21777648 21702718 21625886 21545306 21460042 21369922 21275158 
3023.125 21176552 21075152 20972628 20870928 20772484 20680144 20596334 
3026.500 20522858 20460476 20408310 20364346 20325596 20288340 20248728 
3029.875 20203322 20148898 20083062 20004156 19911598 19805498 19687430 
3033.250 19559064 19423076 19282214 19139250 18996578 18856684 18721300 
3036.626 18591936 18469530 18354518 18247002 18146732 18052912 17964910 
3040.001 17882384 17804602 17731044 17661502 17595250 17531872 17470986 
3043.376 17412626 17356686 17303376 17252760 17204220 17157200 17110774 
3046.751 17064040 17016866 16969730 16923564 16879606 16838546 16800110 
3050.127 16763052 16725378 16684713 16639369 16588660 16532758 16472597 
3053.502 16409587 16344454 16277885 16210364 16141960 16073326 16005287 
3056.877 15939010 15875598 15815973 15760517 15709290 15661884 15618020 
3060.252 15576943 15538101 15500637 15463348 15425717 15387370 15348992 
3063.628 15312059 15278973 15251792 15232471 15221353 15217680 15219328 
3067.003 15223652 15227667 15229383 15227255 15220597 15209548 15194759 
3070.378 15176984 15157015 15135914 15114334 15092721 15071384 15049841 
3073.753 15027957 15005353 14981996 14958573 14935766 14913991 14893553 
3077.129 14874043 14854396 14833138 14809483 14782845 14753810 14723509 
3080.504 14693175 14663700 14635940 14609587 14584367 14559731 14535336 
3083.879 14511045 14487235 14463804 14440921 14418485 14396427 14375055 
3087.254 14354609 14335841 14319301 14305398 14294337 14285811 14279544 
3090.630 14275333 14272354 14270744 14269888 14269272 14268450 14266465 
3094.005 14263006 14258281 14252939 14248317 14246023 14247393 14253419 
3097.380 14264137 14279031 14296563 14315260 14333204 14349231 14362897 
3100.755 14373994 14383241 14391666 14400537 14411018 14423725 14439311 
3104.131 14457535 14477917 14499740 14522009 14543730 14563980 14581935 
3107.506 14596771 14608697 14617641 14624494 14630423 14636729 14644474 
3110.881 14654377 14666407 14680631 14696328 14713739 14732488 14753227 
3114.256 14775921 14800329 14825801 14851036 14874694 14895714 14913820 
3117.632 14929526 14943860 14958298 14973765 14990777 15009264 15028506 
3121.007 15047817 15066341 15083631 15099480 15113854 15126891 15138831 
3124.382 15150016 15160344 15170259 15179832 15189028 15197710 15206220 
3127.757 15214592 15223549 15233947 15246576 15261950 15280140 15300320 
3131.133 15321292 15342093 15361831 15380951 15400107 15420637 15443536 
3134.508 15469459 15498096 15528348 15559291 15589788 15619085 15647147 
3137.883 15674112 15700324 15726125 15751652 15777009 15802709 15828826 
3141.258 15855802 15883675 15912339 15941452 15970943 16000783 16031519 
3144.634 16063767 16098255 16134946 16173428 16212704 16251709 16289651 
3148.009 16326874 16364271 16403325 16445512 16491042 16539607 16589485 
3151.384 16638715 16685711 16729718 16771076 16810820 16850568 16891352 
3154.759 16933864 16977964 17023378 17069350 17115736 17162476 17209666 
3158.135 17257898 17307512 17358480 17411350 17466120 17522936 17582002 
3161.510 17643488 17707368 17773742 17842680 17914288 17988290 18064276 
3164.885 18141516 18218874 18295488 18370246 18443012 18513926 18583292 
3168.260 18651736 18719326 18785578 18849314 18909598 18965494 19016344 
3171.635 19063080 19106460 19147528 19187178 19225412 19261884 19296208 
3175.011 19327732 19356626 19383440 19408836 19433784 19459012 19484860 
3178.386 19511374 19538614 19566238 19594176 19622322 19650646 19678866 
3181.761 19706740 19734342 19761840 19790066 19819580 19851764 19887316 
3185.136 19927104 19971338 20019978 20072826 20129394 20189196 20251436 
3188.512 20315352 20380284 20445506 20510526 20575282 20639906 20704468 
3191.887 20769530 20835436 20902114 20969464 21037312 21104890 21171752 
3195.262 21237510 21301882 21365120 21427878 21491130 21556066 21623448 
3198.637 21693730 21766534 21841092 21916672 21992302 22067944 22144402 
3202.013 22222128 22301892 22383728 22466906 22550274 22632574 22713076 
3205.388 22792232 22870492 22949398 23029504 23110708 23191998 23272184 
3208.763 23350182 23425642 23499052 23572088 23645872 23721662 23799566 
3212.138 23878886 23958954 24039072 24119238 24200052 24282386 24366594 
3215.514 24452642 24539862 24627380 24714392 24800858 24887238 24974406 
3218.889 25063100 25153464 25245356 25338074 25430918 25523432 25615544 
3222.264 25707146 25798312 25888898 25978518 26066854 26153732 26239570 
3225.639 26325040 26411194 26498984 26588414 26679870 26772334 26864920 
3229.015 26957000 27047722 27136630 27223580 27308148 27390828 27471828 
3232.390 27551820 27631898 27712766 27794744 27877978 27962036 28046856 
3235.765 28132292 28218804 28307208 28397826 28490762 28585308 28679592 
3239.140 28772268 28862168 28949074 29034050 29118654 29204514 29292374 
3242.516 29381922 29471912 29560714 29647440 29731950 29815482 29899812 
3245.891 29986822 30077966 30174102 30274986 30380156 30489580 30602234 
3249.266 30717974 30835454 30953640 31070968 31186478 31299382 31410288 
3252.641 31520222 31631042 31743776 31859324 31977360 32097212 32217742 
3256.017 32338306 32458256 32577600 32696728 32814994 32932754 33049438 
3259.392 33164940 33279364 33393566 33507976 33623096 33739144 33855184 
3262.767 33970472 34084068 34195652 34305360 34414128 34522636 34631500 
3266.142 34740852 34850376 34959460 35067640 35174840 35281744 35389104 
3269.518 35498072 35609372 35723148 35839144 35956432 36074040 36190708 
3272.893 36305320 36417328 36526160 36632024 36735248 36836372 36936288 
3276.268 37035540 37134856 37234840 37336148 37439432 37545520 37655104 
3279.643 37768768 37886648 38008364 38133040 38259088 38385288 38509820 
3283.019 38631488 38749536 38863916 38975032 39083816 39191972 39301104 
3286.394 39413128 39529132 39649784 39775044 39903716 40034896 40167500 
3289.769 40300724 40434280 40568348 40702896 40837996 40973572 41109268 
3293.144 41245332 41382164 41520648 41662092 41807156 41956396 42109740 
3296.520 42266164 42424952 42585216 42746276 42908092 43070112 43231936 
3299.895 43393308 43553860 43714000 43874776 44038040 44205876 44380376 
3303.270 44562632 44752812 44950140 45153324 45361352 45573452 45789964 
3306.645 46011592 46238936 46472560 46712064 46956828 47205724 47457792 
3310.021 47712560 47969732 48229724 48492944 48760440 49033184 49312072 
3313.396 49598240 49892136 50193708 50502452 50817300 51137408 51461592 
3316.771 51789976 52122380 52459864 52802588 53150712 53503948 53861452 
3320.146 54222328 54586280 54952832 55322108 55694368 56069284 56446828 
3323.521 56826588 57208648 57592632 57978620 58365896 58753296 59138840 
3326.897 59520504 59896076 60264516 60625536 60979604 61327712 61669868 
3330.272 62005184 62331736 62646896 62948272 63234440 63505000 63760572 
3333.647 64001708 64228760 64441240 64638460 64819144 64982884 65129796 
3337.022 65260468 65375620 65475544 65559924 65628208 65679356 65712736 
3340.398 65727772 65724412 65701976 65659388 65595032 65507016 65393528 
3343.773 65253616 65087416 64895892 64680560 64442932 64184272 63905464 
3347.148 63607104 63289904 62954208 62601200 62231656 61846608 61446936 
3350.523 61033292 60605912 60165444 59712032 59246260 58768696 58280552 
3353.899 57783384 57279828 56772852 56265708 55761044 55260988 54765948 
3357.274 54275672 53789328 53306260 52826576 52351680 51883012 51422724 
3360.649 50972272 50531596 50100252 49676616 49259036 48846528 48438560 
3364.024 48035528 47638492 47248280 46866244 46493360 46130556 45778732 
3367.400 45438416 45109616 44791348 44482232 44180452 43884160 43592064 
3370.775 43303900 43019952 42741088 42467988 42200980 41939972 41684228 
3374.150 41432864 41185216 40940912 40699984 40462100 40227436 39995804 
3377.525 39767128 39541944 39320724 39104588 38893740 38688208 38486648 
3380.901 38287064 38086956 37884588 37679100 37471216 37262636 37055604 
3384.276 36852600 36654736 36462008 36274196 36090028 35908636 35729512 
3387.651 35552480 35377420 35204232 35032152 34860500 34687876 34514028 
3391.026 34338564 34162276 33986416 33812776 33642536 33476588 33314742 
3394.402 33155962 32998420 32840260 32679866 32516856 32351904 32186910 
3397.777 32024440 31867024 31716506 31573206 31436324 31303372 31172132 
3401.152 31040220 30906354 30770076 30631638 30491322 30349524 30206352 
3404.527 30061454 29914896 29766724 29617926 29469712 29323214 29179388 
3407.903 29038408 28899882 28763206 28627704 28493166 28359130 28226230 
3411.278 28094502 27963980 27834698 27706268 27578404 27451250 27324910 
3414.653 27199838 27076320 26954354 26833516 26713062 26591302 26466902 
3418.028 26338310 26204550 26065588 25922274 25776864 25632202 25491420 
3421.404 25357604 25232468 25116670 25008696 24906116 24805876 24704816 
3424.779 24600836 24492778 24380788 24265952 24149608 24033152 23917848 
3428.154 23804468 23693214 23584296 23477576 23372666 23269282 23166658 
3431.529 23064618 22962462 22860190 22757558 22654950 22552472 22450400 
3434.905 22348668 22247238 22145588 22043716 21941208 21838234 21734974 
3438.280 21632084 21529882 21429024 21329550 21231524 21134738 21038632 
3441.655 20942586 20846314 20749510 20652448 20555096 20457558 20359588 
3445.030 20260600 20159936 20057384 19953366 19849544 19748038 19651410 
3448.406 19561420 19478900 19402704 19330712 19259562 19186658 19109820 
3451.781 19028426 18942650 18853846 18763436 18672386 18581528 18490828 
3455.156 18400698 18311766 18224508 18139684 18057262 17976652 17896678 
3458.531 17815372 17731010 17642594 17549778 17453360 17355168 17257382 
3461.906 17162132 17071312 16985614 16905304 16829558 16756613 16684644 
3465.282 16611759 16536476 16457971 16376417 16292643 16207786 16122565 
3468.657 16037535 15952554 15867624 15782541 15697679 15613830 15532264 
3472.032 15453906 15379166 15307289 15237207 15166931 15094745 15019931 
3475.407 14942077 14862213 14781268 14700167 14619389 14538419 14456781 
3478.783 14372795 14285948 14195490 14101833 14006211 13910851 13818282 
3482.158 13730998 13651187 13579560 13515568 13457669 13402750 13347770 
3485.533 13289756 13226729 13157836 13083423 13004891 12924085 12842681 
3488.908 12762009 12683262 12607054 12533485 12462520 12393885 12327136 
3492.284 12261692 12197007 12132912 12069507 12006691 11945041 11884762 
3495.659 11826024 11768758 11712896 11658196 11604390 11551168 11498361 
3499.034 11445391 11390964 11333721 11272576 11206406 11135556 11061080 
3502.409 10985189 10910671 10840447 10776822 10721222 10673509 10632557 
3505.785 10595785 10560170 10522318 10479208 10429110 10371451 10307319 
3509.160 10239668 10171621 10107111 10048783 9997549 9952999 9912929 9875166 
3513.017 9837273 9797721 9755801 9711784 9665976 9619022 9571191 9522790 
3516.875 9473886 9424955 9376536 9329545 9284657 9242279 9202071 9162950 
3520.732 9123663 9082587 9038604 8990871 8939694 8885614 8829748 8773282 
3524.590 8716924 8661283 8606326 8552152 8498458 8445954 8394942 8346705 
3528.447 8301886 8260920 8223707 8189839 8158068 8127616 8097536 8067763 
3532.304 8037621 8006670 7974305 7939714 7901685 7859913 7814368 7766298 
3536.162 7716917 7667946 7620634 7575215 7531284 7488368 7445862 7404101 
3540.019 7363490 7325174 7289692 7257177 7226282 7195086 7161131 7122193 
3543.877 7076590 7024122 6965836 6903955 6841410 6782274 6729471 6685895 
3547.734 6652281 6627250 6607771 6588864 6565552 6534000 6492327 6441275 
3551.592 6384277 6326345 6271952 6224388 6184458 6151186 6122016 6094865 
3555.449 6068219 6041507 6014865 5988157 5960879 5931588 5899343 5863305 
3559.306 5824047 5783617 5744500 5709483 5680712 5657952 5640430 5624888 
3563.164 5607501 5583738 5549472 5500678 5435114 5352921 5257664 5156090 
3567.021 5057625 4972487 4908208 4867696 4848631 4845313 4849334 4852718 
3570.879 4849837 4837407 4814624 4782763 4744473 4702167 4658124 4614453 
3574.736 4572629 4533755 4499169 4468537 4441489 4416116 4390309 4361626 
3578.594 4328025 4289641 4247179 4203282 4160727 4122458 4091017 4067437 
3582.451 4051417 4041617 4034996 4027672 4015265 3993127 3957782 3906960 
3586.308 3841502 3765559 3685921 3610907 3548534 3503639 3477485 3467299 
3590.166 3468134 3473444 3476918 3473210 3459015 3432932 3396063 3351518 
3594.023 3303738 3257299 3216673 3183895 3159530 3141874 3128191 3114742 
3597.881 3098223 3075931 3046934 3012133 2973832 2935568 2901644 2875093 
3601.738 2857649 2848977 2846943 2848110 2848977 2846442 2838338 2823764 
3605.595 2801853 2772374 2735328 2691217 2642010 2591275 2544046 2505420 
3609.453 2478793 2464398 2458766 2456500 2451169 2437874 2415916 2387429 
3613.310 2358678 2335758 2323233 2321467 2326930 2332927 2331528 2316737 
3617.168 2284893 2236398 2175487 2109790 2047699 1997200 1963415 1947838 
3621.025 1948171 1960120 1978260 1997666 2014642 2028291 2038910 2047898 
3624.883 2055921 2061348 2059251 2041573 1999530 1926638 1823378 1701348 
3628.740 1582445 1490804 1444558 1447118 1487745 1548227 1610812 1662098 
3632.597 1695028 1709897 1711494 1707568 1704475 1705772 1710928 1717614 
3636.455 1721806 1721140 1714853 1703776 1689739 1674172 1657708 1639847 
3640.312 1620956 1601534 1583709 1570241 1564355 1567913 1580982 1601234 
3644.170 1624481 1645701 1658905 1659670 1644038 1610280 1558402 1490538 
3648.027 1410950 1325128 1240785 1166325 1110647 1081482 1083408 1116095 
3651.885 1174099 1247563 1325128 1393265 1440935 1460283 1448082 1408257 
3655.742 1351318 1292093 1244839 1218256 1214468 1228822 1253511 1280462 
3659.599 1304256 1321638 1331974 1335630 1333802 1327587 1317949 1306284 
3663.457 1294918 1286377 1283253 1287008 1297277 1311169 1323665 1328285 
3667.314 1318314 1287939 1234405 1160112 1073443 989348 925790 897334 910151 
3671.654 959394 1031560 1106893 1164963 1188552 1166192 1098389 998979 
3675.511 895242 815962 779016 786419 826486 882460 938707 986193 1021729 
3679.851 1047403 1067730 1086962 1107026 1127954 1148385 1167754 1186592 
3683.708 1206992 1230550 1257433 1284117 1304356 1310105 1293854 1251418 
3687.566 1184565 1101445 1015020 938773 882493 849890 839665 847334 868217 
3691.905 898397 935120 975367 1016681 1055806 1089553 1115929 1134100 
3695.763 1145295 1152073 1157388 1163767 1171774 1179914 1185296 1183734 
3699.620 1171940 1148219 1113736 1072912 1032257 999245 980282 978223 993234 
3703.960 1022260 1060124 1101977 1143103 1180346 1211976 1237262 1255804 
3707.817 1266804 1268997 1260889 1240220 1206328 1160378 1106362 1050824 
3711.675 1002998 971117 961486 976231 1012662 1064973 1125031 1185263 
3715.532 1239223 1282555 1313462 1332539 1342045 1344537 1342178 1336228 
3719.389 1326324 1311867 1292326 1268698 1243111 1218821 1198221 1182439 
3723.247 1170511 1159548 1145893 1126659 1101346 1072414 1045044 1025914 
3727.104 1021065 1034018 1063944 1106395 1154166 1198918 1232278 1249590 
3730.962 1248527 1231148 1203071 1170677 1138651 1107690 1074772 1036077 
3734.819 989680 938607 891291 859551 853111 876151 925923 994629 1073277 
3739.159 1154365 1233208 1307281 1374717 1431560 1470689 1480830 1449811 
3743.016 1369732 1244207 1095067 958132 871404 855103 904008 994595 1097160 
3747.356 1186093 1242346 1257233 1232178 1177887 1109816 1043517 990511 
3751.213 956007 941861 948834 977260 1026445 1092809 1169382 1246733 1315157 
3755.553 1366707 1397254 1406429 1398085 1378041 1351783 1323865 1297643 
3759.410 1275444 1260722 1257665 1269263 1296380 1334932 1377908 1415770 
3763.268 1439638 1444592 1430729 1404567 1375183 1352548 1342377 1344404 
3767.125 1353246 1361854 1363283 1354874 1338023 1317882 1301531 1294951 
3770.982 1300634 1317484 1342178 1370396 1398152 1423150 1444891 1464206 
3774.840 1482292 1500446 1518234 1534261 1544769 1545600 1533164 1506597 
3778.697 1468562 1425676 1386983 1360591 1351085 1358032 1376147 1398783 
3782.555 1418828 1432158 1438342 1439804 1440303 1443428 1450709 1461314 
3786.412 1472983 1483722 1492333 1499581 1506464 1514178 1522623 1530936 
3790.270 1537985 1543073 1546764 1550787 1556706 1564754 1572801 1576659 
3794.127 1571537 1553913 1523687 1485684 1448681 1423349 1417166 1432158 
3797.984 1463342 1500413 1530105 1539216 1519066 1468229 1395825 1318680 
3801.842 1258961 1233773 1249225 1299703 1371294 1446886 1509889 1547961 
3805.699 1555044 1534028 1495558 1455629 1429665 1425975 1444924 1479965 
3809.557 1522723 1566084 1605957 1642042 1675735 1708367 1738439 1761627 
3813.414 1770543 1758067 1719477 1657076 1580649 1508160 1458388 1443362 
3817.271 1464339 1511584 1568777 1617032 1640811 1630202 1585272 1516206 
3821.129 1443628 1390606 1373155 1395260 1448847 1518800 1588364 1644137 
3824.986 1678829 1691801 1688708 1678463 1670979 1672076 1682587 1698155 
3828.844 1712192 1718413 1713257 1697190 1674006 1650523 1632763 1626044 
3832.701 1632197 1650490 1677764 1709032 1739071 1761992 1772106 1765952 
3836.559 1741865 1702313 1653317 1604095 1563623 1537753 1528575 1533862 
3840.416 1548559 1567081 1585105 1599638 1609815 1616499 1620956 1625413 
3844.273 1631898 1642341 1657841 1679095 1705473 1735611 1768014 1800852 
3848.131 1833260 1864705 1895088 1922610 1943678 1951167 1935490 1885570 
3851.988 1794564 1664260 1510421 1362818 1252947 1201510 1210680 1267634 
3855.846 1352714 1447983 1541277 1625246 1697090 1755838 1801917 1834757 
3859.703 1854024 1859381 1852293 1834857 1810834 1783252 1754507 1725299 
3863.561 1696159 1668950 1647364 1637120 1643007 1665990 1702279 1742298 
3867.418 1773238 1783684 1766018 1721340 1660036 1600337 1560763 1551851 
3871.275 1572469 1610979 1652386 1682554 1693564 1686413 1668717 1653051 
3875.133 1650823 1668750 1706204 1756603 1809203 1853591 1880845 1885737 
3878.990 1868466 1834225 1793599 1757934 1737641 1738040 1758067 1790072 
3882.848 1822945 1845172 1847502 1826006 1784616 1735279 1694795 1678396 
3886.705 1694396 1740967 1807739 1879480 1941115 1980657 1990576 1970604 
3890.563 1926737 1870895 1816424 1775067 1753975 1754540 1773969 1806542 
3894.420 1846570 1888299 1927004 1959221 1982154 1993871 1993305 1981322 
3898.277 1959387 1931197 1900912 1873091 1851328 1836987 1829201 1825008 
3902.135 1820683 1813695 1802848 1790405 1780158 1777097 1785281 1805843 
3905.992 1836987 1874455 1913059 1947838 1975297 1994337 2005788 2011813 
3909.850 2015008 2018004 2022598 2029789 2039875 2052559 2067141 2082256 
3913.707 2096372 2106560 2110722 2106827 2094341 2074965 2051560 2028524 
3917.564 2010015 1998564 1995169 1998698 2007519 2019336 2032252 2045035 
3921.422 2056454 2065310 2071136 2072701 2069871 2063645 2055921 2049496 
3925.279 2046933 2050029 2058651 2071336 2085219 2097871 2107293 2112554 
3929.137 2113619 2111455 2106794 2100101 2091678 2081490 2070204 2058718 
3932.994 2048997 2042173 2039909 2042472 2049030 2058086 2068073 2077628 
3936.852 2085751 2092410 2097771 2102166 2105462 2107160 2105961 2100834 
3940.709 2090912 2076662 2059351 2042239 2029223 2023331 2027292 2040841 
3944.566 2061748 2085385 2107126 2122509 2128802 2125739 2115251 2101167 
3948.424 2087449 2077129 2071968 2071769 2075531 2082023 2090912 2102099 
3952.281 2116083 2132831 2151378 2169659 2185077 2195301 2198964 2196667 
3956.139 2190006 2181714 2173955 2168327 2165164 2163333 2162000 2160236 
3959.996 2157572 2154641 2152077 2150479 2150479 2152211 2155840 2161434 
3963.854 2169460 2179982 2192471 2206557 2220611 2233267 2243325 2250286 
3967.711 2254416 2256781 2259046 2261977 2266307 2271369 2276332 2280396 
3971.568 2282261 2281928 2279363 2275233 2270270 2265008 2260178 2256381 
3975.426 2254216 2254383 2257047 2262510 2270237 2279663 2289356 2298449 
3979.283 2305844 2310908 2313406 2313672 2312273 2309875 2307443 2305445 
3983.141 2304012 2303280 2302880 2302413 2301514 2300015 2298416 2296951 
3986.998 2296151 2296251 2297117 2298483 2299849 2300948 2302114 2303546 
3990.855 2305944 2309042 2312806 2316004 2317204 2315405 2310142 2301947 
3994.713 2292454 2283793 2277631 2275200 2276632 2281195 2287591 2294686 
3998.570 2301281 2307310 2312673 2317770 2322567 
##END=
