
##TITLE=Z316_3_e
##JCAMP-DX=5.01  $$ Nicolet v. 1
##DATATYPE=INFRARED SPECTRUM
##ORIGIN=UniL
##OWNER=Nicolet
##LONGDATE=2011/09/09
##TIME=13:21:41
##SPECTROMETER/DATA SYSTEM=Nicolet iS5
##DATA PROCESSING=
Ratio against background
%Transmittance->Absorbance
Truncated
ElementMultiply or ElementDivide
##COMMENTS=
Number of sample scans: 32
Collection length: 51.20 sec
Sample gain: 2.0
Background collected on: Ven Sep 09 13:04:26 2011 (GMT+02:00);
Number of background scans: 32
Background gain: 2.0
Sample spacing:  1.000
Number of scan points: 12415
Resolution points: 8192
Number of FFT points: 65536
Apodization: N-B fort;
Phase correction: Mertz;
Laser frequency: 15798.0 cm-1
Number of rejected sample scans: 0
Number of rejected background scans: 0
Bench serial number: ASB1000141;
##RESOLUTION=4.000
##XUNITS=1/CM
##YUNITS=ABSORBANCE
##FIRSTX=649.893372
##LASTX=4000.122314
##FIRSTY=0.091217
##MAXX=4000.122314
##MINX=649.893372
##MAXY=0.275304
##MINY=0.003434
##XFACTOR=1.000000
##YFACTOR=1.000000E-009
##NPOINTS=6950
##DELTAX=0.482117
##ZPD=6100
##XYDATA=(X++(Y..Y))
649.893 91217120 91217288 91302688 91462336 91666528 91877240 92061464 
653.268 92206848 92318672 92416872 92520472 92639104 92771184 92908848 
656.643 93047328 93190288 93349848 93537960 93756280 93992232 94217784 
660.018 94400328 94516472 94556880 94529448 94453256 94350720 94241496 
663.393 94139464 94053376 93986768 93937032 93888944 93809240 93642192 
666.767 93312720 92758632 91972352 91029568 90059160 89179880 88448256 
670.142 87853200 87344680 86859048 86344288 85768136 85125616 84431576 
673.517 83712200 82988552 82269120 81551232 80828704 80100048 79374600 
676.892 78668816 78000472 77380072 76808320 76276544 75772544 75288528 
680.267 74822136 74377000 73958088 73566472 73198352 72846912 72505272 
683.642 72172352 71853176 71557680 71295208 71069856 70878720 70712424 
687.016 70560336 70413328 70267040 70121344 69978224 69837480 69697600 
690.391 69554704 69406528 69254696 69105728 68967408 68847536 68748192 
693.766 68666024 68592600 68519032 68438888 68350536 68256264 68158960 
697.141 68059776 67956272 67843024 67714872 67570488 67412760 67248912 
700.516 67087056 66932752 66787512 66648884 66511968 66372768 66229680 
703.890 66083364 65935200 65785364 65631636 65470068 65298244 65115860 
707.265 64927668 64741016 64564020 64402200 64257144 64126932 64009272 
710.640 63907108 63830116 63795952 63825852 63938664 64139336 64413884 
714.015 64721444 65003552 65188468 65205024 65003356 64561404 63893944 
717.390 63049516 62107780 61167544 60327064 59683748 59316676 59274896 
720.765 59574240 60185156 61030512 61979044 62865464 63515200 63762492 
724.139 63500480 62699720 61421896 59801576 58020160 56266656 54683412 
727.514 53356164 52304808 51498968 50879432 50382320 49960048 49580708 
730.889 49228568 48897328 48582388 48279560 47986236 47704424 47440052 
734.264 47201404 46995040 46820776 46672144 46537724 46406368 46271740 
737.639 46133948 45996860 45865300 45740668 45620376 45499124 45373380 
741.013 45243444 45115128 44995780 44890468 44798952 44715020 44629456 
744.388 44534284 44427836 44313816 44200116 44093968 43998108 43910004 
747.763 43824452 43736936 43647168 43559136 43478996 43410624 43352592 
751.138 43298188 43238340 43167408 43085880 43001660 42925940 42868664 
754.513 42833520 42817248 42811396 42807412 42801744 42796004 42795528 
757.888 42805840 42828840 42861788 42900516 42942472 42990136 43051308 
761.262 43136708 43254116 43407000 43593680 43810820 44058464 44344488 
764.637 44684172 45101120 45622984 46276348 47087388 48076132 49249756 
768.012 50595736 52072212 53609500 55113244 56498336 57722112 58820368 
771.387 59919736 61221068 62951444 65262900 68160864 71433224 74679464 
774.762 77338528 78826512 78730144 76889592 73480840 68933464 63851796 
778.136 58836912 54343936 50667108 47894880 45962384 44711972 43963716 
781.511 43564448 43397520 43394296 43515624 43736568 44041412 44420308 
784.886 44872132 45403576 46027508 46756380 47597156 48551632 49621344 
788.261 50813164 52145768 53650068 55361588 57317632 59548812 62076624 
791.636 64921088 68104496 71655128 75605984 79982000 84783208 89964256 
795.010 95426736 101009256 106482840 111587672 116032880 119528208 121843856 
798.385 122828552 122458040 120844352 118236672 114982400 111446656 
801.278 107993256 104902512 102328576 100298480 98707600 97363312 96017344 
804.653 94447528 92508296 90160152 87482456 84644120 81862136 79323440 
808.028 77150080 75368568 73913424 72651496 71423104 70097000 68587096 
811.402 66870676 64977540 62970260 60918720 58879712 56896876 54997852 
814.777 53201044 51524040 49983616 48594840 47367804 46304660 45398944 
818.152 44638340 44009840 43502616 43110252 42829756 42660000 42599400 
821.527 42646148 42799332 43061400 43439300 43944980 44593028 45395964 
824.902 46361392 47486404 48755324 50134724 51572392 52999788 54327340 
828.277 55460852 56313388 56817336 56947304 56726784 56232256 55574452 
831.651 54888312 54313520 53962328 53915956 54206748 54812632 55653804 
835.026 56598048 57484896 58129540 58364116 58073520 57208912 55807572 
838.401 53977184 51882452 49698796 47580668 45649708 43972808 42570964 
841.776 41431988 40525860 39816948 39270492 38858084 38553452 38331868 
845.151 38172904 38059572 37981784 37936436 37925044 37951008 38015376 
848.525 38116544 38250660 38415112 38610016 38838948 39106980 39417736 
851.900 39770104 40158704 40574532 41009840 41461264 41930852 42424912 
855.275 42952204 43521332 44139112 44813132 45553984 46376140 47300260 
858.650 48351704 49555712 50939708 52530200 54351860 56428640 58778028 
862.025 61401288 64270556 67317464 70427792 73432032 76135480 78334240 
865.400 79836904 80509888 80286760 79182384 77287464 74759632 71802352 
868.774 68619344 65411212 62343940 59530116 57041756 54906696 53120344 
872.149 51658180 50486040 49570160 48877156 48378556 48049520 47866468 
875.524 47808984 47861436 48013696 48262788 48611776 49065680 49627472 
878.899 50293140 51049556 51875992 52744856 53626784 54496080 55331516 
882.274 56119732 56855328 57539780 58179924 58784024 59360132 59912468 
885.648 60441332 60944452 61421516 61877784 62329136 62800220 63321376 
889.023 63923156 64626648 65438560 66348560 67333400 68359496 69389728 
892.398 70391240 71333592 72189328 72934816 73544888 73995696 74266712 
895.773 74340312 74206016 73861144 73311936 72574776 71676464 70657096 
899.148 69564464 68451032 67369856 66362888 65458708 64670452 63996636 
902.523 63426732 62947124 62547624 62222404 61971404 61796980 61701792 
905.897 61686936 61752748 61899560 62130144 62449364 62864132 63380568 
909.272 64002356 64730136 65562964 66499800 67542304 68694632 69963040 
912.647 71354256 72873600 74526224 76320104 78268048 80392368 82724584 
916.022 85299624 88154152 91317408 94805144 98615080 102721040 107071856 
919.397 111576792 116105000 120490664 124522944 127986968 130696056 
922.289 132523624 133452624 133589920 133178112 132542968 132071864 
925.182 132165328 133147496 135254576 138584720 143082880 148528896 
928.075 154543184 160650688 166263056 170769568 173632432 174397200 
930.967 172794576 168771072 162492640 154326336 144778512 134465376 
933.860 123987016 113876144 104576536 96372456 89420448 83768968 79382512 
937.235 76182504 74073768 72966872 72773368 73394600 74712280 76554400 
940.610 78692288 80866584 82781832 84167328 84825016 84643112 83626984 
943.985 81884336 79609744 77032000 74374560 71836752 69552648 67597280 
947.359 65993176 64723252 63748984 63023464 62504956 62157632 61952792 
950.734 61868688 61885692 61986572 62157208 62385672 62663972 62987528 
954.109 63352964 63756928 64194644 64659724 65145924 65648020 66163384 
957.484 66691616 67233944 67790656 68360776 68941504 69529464 70121808 
960.859 70718072 71319688 71928600 72546152 73171800 73803456 74438784 
964.233 75076968 75719408 76370040 77032512 77708920 78397976 79095680 
967.608 79797568 80500632 81205840 81917744 82643416 83389128 84158560 
970.983 84953128 85772656 86617624 87491688 88400488 89351408 90350352 
974.358 91399928 92499360 93645768 94836432 96070376 97347808 98668968 
977.733 100030416 101424176 102837624 104254504 105659168 107038320 
980.625 108379904 109672784 110903992 112056776 113113784 114059776 
983.518 114885784 115592888 116191160 116697560 117129688 117504544 
986.411 117836728 118138456 118423688 118708152 119007872 119338112 
989.304 119708800 120123280 120578872 121070584 121593984 122147944 
992.196 122734208 123355208 124010784 124696656 125404896 126126600 
995.089 126855416 127589584 128330736 129081008 129840088 130601880 
997.982 131357568 132096976 132813784 133508224 134185984 134856128 
1000.874 135526336 136202000 136885520 137579104 138288080 139022000 
1003.767 139792768 140612640 141488784 142423120 143412832 144454944 
1006.660 145550000 146704368 147928432 149233248 150625360 152104016 
1009.552 153661824 155287536 156971424 158705408 160483696 162299248 
1012.445 164140064 165989056 167828544 169645312 171437792 173218640 
1015.338 175013904 176854352 178768704 180779488 182899392 185135264 
1018.231 187491168 189969984 192572208 195291872 198114864 201017872 
1021.123 203975232 206969184 209996912 213074896 216233152 219508576 
1024.016 222931152 226515904 230261824 234154816 238173776 242290992 
1026.909 246472992 250673408 254823264 258836752 262612224 266040944 
1029.802 269029888 271501088 273395520 274672896 275303936 275273312 
1032.695 274585952 273275744 271409824 269076928 266381200 263416288 
1035.588 260246960 256908512 253406352 249728768 245860144 241791872 
1038.481 237527856 233085952 228498064 223811952 219096128 214431184 
1041.374 209906704 205607424 201587088 197859392 194386416 191091232 
1044.267 187867632 184610096 181244416 177735216 174096880 170381248 
1047.160 166668576 163046320 159592608 156375280 153440096 150810448 
1050.053 148489856 146461584 144693536 143141248 141758016 140500512 
1052.947 139332384 138229824 137177344 136163776 135179424 134211856 
1055.840 133246776 132271408 131274672 130249720 129192040 128096816 
1058.733 126957088 125763848 124508608 123187320 121803848 120371080 
1061.626 118908128 117436368 115977184 114547392 113160088 111826624 
1064.519 110556128 109356752 108232824 107182488 106194888 105250824 
1067.412 104327512 103401328 102455160 101481896 100484808 99476360 98473272 
1070.787 97495472 96562288 95690616 94896536 94192560 93587200 93083984 
1074.162 92680656 92369696 92139168 91976192 91866920 91795856 91746168 
1077.538 91695904 91617304 91481688 91261232 90937480 90506592 89981496 
1080.913 89390768 88771168 88164872 87612160 87147128 86801296 86601768 
1084.288 86572536 86736840 87114576 87721712 88570936 89670024 91023360 
1087.663 92629224 94477352 96541304 98769328 101085992 103384800 105538696 
1091.039 107426832 108941176 110013368 110626776 110816912 110665680 
1093.932 110280032 109787920 109312352 108956552 108806776 108918008 
1096.825 109317240 110005472 110959768 112135824 113466080 114869640 
1099.718 116247400 117484088 118466208 119080920 119233232 118866128 
1102.611 117964352 116562896 114735160 112588136 110241208 107804056 
1105.504 105377800 103039624 100840880 98814048 96971440 95309688 93813192 
1108.879 92458192 91216304 90057160 88953920 87884104 86829256 85776208 
1112.254 84714424 83635416 82534088 81409328 80266072 79114360 77969856 
1115.630 76850160 75770736 74744752 73780680 72882968 72054096 71295992 
1119.005 70610664 69999744 69463872 69001352 68607848 68276704 67998616 
1122.380 67760840 67546720 67333168 67088208 66775956 66356628 65794616 
1125.755 65067828 64171024 63119860 61946180 60695488 59416812 58152988 
1129.131 56940280 55801432 54746968 53777740 52887348 52065488 51299132 
1132.506 50575708 49884368 49216952 48569680 47943500 47342788 46774312 
1135.881 46245164 45761284 45326852 44944556 44616272 44344232 44130788 
1139.256 43978232 43887972 43859820 43892008 43982192 44128184 44328896 
1142.632 44584180 44894396 45258336 45673044 46132764 46630752 47159516 
1146.007 47712112 48282152 48862992 49446352 50022948 50582072 51113996 
1149.382 51612096 52074040 52502004 52901008 53277528 53637656 53986224 
1152.757 54327524 54665904 55005556 55350936 55705068 56068452 56438300 
1156.133 56808916 57173568 57524612 57855648 58160528 58432304 58663328 
1159.508 58843740 58962780 59010868 58980236 58866124 58666324 58379808 
1162.883 58005808 57543560 56992828 56355748 55637644 54847896 53998908 
1166.258 53103792 52176404 51228400 50269776 49310480 48359444 47426600 
1169.634 46522308 45655340 44833260 44061104 43341720 42676744 42068012 
1173.009 41518020 41030672 40610364 40260296 39982940 39779144 39649060 
1176.384 39593628 39615228 39718036 39907636 40189920 40569948 41053252 
1179.759 41645100 42352692 43185708 44154704 45270988 46544916 47984420 
1183.135 49595416 51383040 53350956 55501816 57833084 60334336 62980868 
1186.510 65731428 68531456 71308992 73983904 76475920 78700592 80581440 
1189.885 82054616 83069504 83599952 83646552 83238680 82428760 81287768 
1193.260 79898000 78336416 76673528 74966032 73250112 71546536 69860712 
1196.635 68188424 66521040 64851412 63179024 61511792 59866452 58265248 
1200.011 56734560 55298360 53974892 52776248 51706884 50764896 49943912 
1203.386 49234988 48627264 48107704 47661492 47271112 46916556 46578556 
1206.761 46239380 45885444 45509348 45108952 44686632 44247148 43797000 
1210.136 43344060 42896388 42464628 42060932 41698160 41390072 41148460 
1213.512 40982640 40900100 40906104 41005108 41201572 41499176 41900856 
1216.887 42407708 43018708 43731548 44543832 45454716 46465404 47578816 
1220.262 48798068 50125240 51561012 53105668 54760948 56532116 58427680 
1223.637 60459456 62638476 64972572 67463312 70105064 72884256 75777632 
1227.013 78753936 81770168 84767824 87679624 90426400 92922304 95090056 
1230.388 96859608 98178120 99016968 99372832 99274752 98781680 97990040 
1233.763 97024544 96022184 95135664 94508400 94262896 94507704 95323552 
1237.138 96768800 98885808 101698920 105215696 109421840 114279352 119717968 
1240.514 125629056 131880000 138303568 144704576 150884032 156622992 
1243.407 161703024 165933760 169151344 171248512 172184848 171984912 
1246.300 170730736 168542912 165578736 162008144 158002080 153732960 
1249.193 149341504 144926848 140535152 136150320 131704792 127095368 
1252.086 122222392 117010728 111437928 105543304 99426736 93233744 87120280 
1255.461 81247224 75749712 70717216 66201240 62208100 58710888 55658624 
1258.836 52989792 50643240 48559524 46690328 44998168 43453872 42037968 
1262.212 40736592 39538716 38434732 37414984 36469396 35589768 34769604 
1265.587 34005588 33296678 32643214 32044880 31499774 31004632 30555556 
1268.962 30149878 29786702 29467122 29192500 28963596 28778714 28634570 
1272.337 28527134 28453932 28414840 28412860 28452268 28537146 28669540 
1275.713 28848286 29068980 29323780 29602744 29892074 30174598 30431896 
1279.088 30643868 30793692 30871452 30875366 30812368 30694076 30534156 
1282.463 30342278 30122746 29874930 29595828 29284472 28944294 28584564 
1285.838 28218414 27861300 27526190 27223228 26959220 26738150 26562594 
1289.214 26433976 26352114 26313880 26313386 26342784 26393448 26459118 
1292.589 26536812 26627446 26733606 26858682 27004950 27173276 27364254 
1295.964 27579782 27823642 28101254 28418448 28779916 29188282 29644744 
1299.339 30149596 30703926 31308464 31962558 32660042 33387232 34123204 
1302.715 34839392 35505196 36094168 36585272 36967168 37238416 37405952 
1306.090 37483716 37490432 37450088 37387712 37327952 37292892 37296972 
1309.465 37346332 37438532 37565320 37715092 37877104 38043044 38207020 
1312.840 38363968 38508264 38632468 38728448 38789528 38811380 38793480 
1316.216 38738088 38648656 38528500 38379640 38204236 38005720 37789836 
1319.591 37565608 37342580 37129296 36931164 36749888 36585272 36437616 
1322.966 36310144 36210552 36149940 36140184 36192688 36316668 36518700 
1326.341 36804668 37179504 37645676 38200040 38829964 39511824 40209480 
1329.717 40881496 41488344 41996832 42388820 42661424 42825072 42899240 
1333.092 42907396 42874916 42824048 42775016 42746024 42750408 42798416 
1336.467 42895800 43044756 43246832 43505108 43826284 44221576 44703524 
1339.842 45282168 45962232 46740440 47606324 48543072 49529716 50540828 
1343.218 51543144 52499312 53367028 54103828 54676948 55065960 55266072 
1346.593 55285300 55139272 54844624 54412584 53849148 53156404 52336576 
1349.968 51397620 50356164 49236660 48072172 46898284 45748616 44654464 
1353.343 43641448 42729276 41933296 41262820 40720436 40301884 39997000 
1356.719 39791820 39672072 39627280 39650692 39738368 39887008 40090816 
1360.094 40340896 40628852 40948740 41302464 41699948 42158552 42696008 
1363.469 43324436 44047940 44861952 45756384 46717892 47731200 48775532 
1366.844 49818256 50815324 51709312 52432908 52924212 53131688 53022436 
1370.219 52587004 51836156 50800500 49522696 48062288 46491624 44888628 
1373.595 43340036 41924352 40698856 39694256 38910336 38326548 37913512 
1376.970 37648892 37524964 37552172 37756224 38175508 38858988 39857768 
1380.345 41224636 43002940 45207444 47802544 50676640 53650440 56468640 
1383.720 58839452 60495184 61199396 60801732 59264640 56689180 53318284 
1387.096 49491724 45602892 41981760 38837900 36257084 34216048 32633570 
1390.471 31406582 30443090 29669010 29029234 28488850 28025472 27627376 
1393.846 27291988 27022016 26822308 26695340 26639072 26646436 26707530 
1397.221 26810536 26943602 27095858 27256106 27415672 27568696 27712836 
1400.597 27848228 27976136 28096058 28205864 28301728 28380458 28442080 
1403.972 28491222 28536616 28587678 28651276 28729008 28817588 28912030 
1407.347 29009538 29111958 29226308 29361608 29525638 29721908 29948514 
1410.722 30200598 30473550 30766378 31082108 31426032 31802100 32210142 
1414.098 32645502 33102144 33576092 34068620 34587112 35143188 35748652 
1417.473 36411816 37134132 37909208 38723776 39560816 40401800 41228024 
1420.848 42020560 42762108 43440724 44053664 44614764 45157224 45732272 
1424.223 46394684 47189212 48141016 49252764 50514512 51914828 53448636 
1427.599 55113544 56900652 58786944 60726544 62656432 64513968 66250100 
1430.974 67843768 69302896 70659592 71957104 73239096 74549512 75932544 
1434.349 77440064 79139608 81109936 83425736 86135440 89228584 92639800 
1437.724 96275296 100042424 103861032 107647408 111304064 114686048 
1440.617 117603616 119862824 121273192 121696440 121070672 119405152 
1443.510 116775632 113302384 109148472 104492568 99507528 94369696 89237864 
1446.886 84261816 79596568 75380784 71718984 68657872 66175228 64196220 
1450.261 62623164 61375792 60408164 59714124 59312308 59223932 59451728 
1453.636 59976336 60757944 61752020 62924944 64247660 65696120 67238656 
1457.011 68833176 70432544 71999376 73520672 74999544 76447512 77876648 
1460.387 79295560 80706352 82101560 83465896 84767344 85953184 86959704 
1463.762 87716240 88170064 88309032 88170232 87826104 87352256 86811016 
1467.137 86236904 85642440 85028928 84390888 83715088 82975072 82125264 
1470.512 81103984 79846504 78319040 76551672 74655616 72790216 71109440 
1473.888 69709944 68614056 67796200 67216576 66850268 66697560 66777928 
1477.263 67112376 67711152 68565008 69651360 70943560 72424304 74093296 
1480.638 75966328 78069112 80426856 83058312 85972120 89174184 92676760 
1484.013 96505760 100697840 105284896 110274776 115616368 121167544 
1486.906 126703056 131893112 136334720 139621056 141367152 141305536 
1489.800 139362848 135695936 130671624 124754424 118415200 112007712 
1492.693 105733928 99688848 93879568 88284832 82909976 77801544 73059184 
1496.068 68816752 65194436 62261408 60016396 58408764 57360476 56795544 
1499.443 56656712 56900464 57492232 58399668 59582792 60992264 62574104 
1502.818 64255340 65947936 67544128 68885272 69765768 69938120 69154176 
1506.194 67280712 64400852 60819948 56920672 53004316 49222076 45604328 
1509.569 42132520 38792028 35588188 32559316 29758988 27230494 25000622 
1512.944 23068428 21410822 19993056 18777032 17726904 16807306 15987823 
1516.319 15246987 14574705 13975860 13463411 13048047 12727991 12484549 
1519.695 12282449 12082146 11852788 11589791 11319336 11084600 10919914 
1523.070 10831682 10800600 10793059 10778793 10739461 10675580 10602745 
1526.445 10541838 10505956 10494415 10495874 10497504 10494008 10490681 
1529.820 10499506 10530975 10586108 10652896 10708895 10728830 10698604 
1533.196 10624170 10532842 10458571 10426769 10442618 10494279 10561732 
1536.571 10626954 10679485 10716061 10738476 10747714 10739291 10704310 
1539.946 10635918 10540005 10436442 10350073 10298430 10281601 10284621 
1543.321 10284281 10262059 10211376 10141672 10072792 10026132 10012569 
1546.697 10029150 10061601 10092461 10109146 10108400 10097005 10086662 
1550.072 10087307 10100159 10118066 10128851 10122950 10097344 10058109 
1553.447 10016909 9986801 9976629 9987445 10014298 10048851 10082524 
1556.822 10105687 10104534 10061872 9960526 9798162 9598933 9409007 9271253 
1560.680 9205286 9207283 9258019 9332660 9406738 9462610 9492817 9500844 
1564.537 9499083 9502673 9522079 9558117 9602965 9644158 9671601 9680646 
1568.395 9673870 9659098 9646530 9644260 9656456 9685627 9734215 9804940 
1572.252 9900250 10018944 10154831 10295240 10423986 10527444 10599791 
1575.627 10649807 10699420 10775634 10895756 11063119 11270331 11508024 
1579.002 11770971 12060377 12382430 12744539 13151893 13604585 14098889 
1582.378 14628709 15187621 15767559 16356325 16935586 17477712 17951512 
1585.753 18329254 18592040 18737522 18780320 18751984 18693624 18651148 
1589.128 18672836 18799694 19066644 19499208 20107322 20881496 21785312 
1592.503 22758432 23714208 24551608 25177654 25512960 25511906 25169648 
1595.879 24522158 23638524 22602976 21507494 20431544 19435760 18565310 
1599.254 17845614 17287308 16889252 16641917 16532104 16546044 16675038 
1602.629 16913848 17259104 17706402 18245620 18859072 19524128 20211236 
1606.004 20886712 21515224 22056126 22467916 22714298 22765310 22606256 
1609.380 22239356 21685198 20980662 20174202 19323298 18481042 17690216 
1612.755 16978584 16354294 15811369 15333787 14902297 14498746 14111657 
1616.130 13741087 13398820 13104662 12876777 12725568 12649523 12637856 
1619.505 12672892 12735122 12807155 12874729 12930981 12977169 13021893 
1622.881 13076081 13149093 13244218 13358772 13487061 13623458 13765746 
1626.256 13913040 14064732 14218770 14370534 14514848 14648791 14773280 
1629.631 14893519 15016089 15146036 15284019 15425717 15561729 15680227 
1633.006 15769346 15817555 15816180 15760481 15653331 15507264 15342951 
1636.382 15184740 15050047 14945986 14869140 14809037 14751959 14685257 
1639.757 14601192 14498848 14384782 14269443 14164063 14074725 14000121 
1643.132 13932097 13858064 13764787 13640963 13481149 13286783 13067783 
1646.507 12840873 12626907 12446937 12315887 12241583 12223179 12252660 
1649.883 12315239 12388431 12444550 12447688 12362111 12169405 11890551 
1653.258 11590573 11342394 11187366 11121142 11115023 11136745 11163534 
1656.633 11183286 11191480 11189304 11179547 11164520 11144632 11118830 
1660.008 11084703 11039871 10982403 10910842 10825499 10729034 10627973 
1663.384 10531212 10449407 10391032 10359439 10352652 10362934 10379664 
1666.759 10390014 10382446 10349598 10289099 10205271 10106942 10006296 
1670.134 9914657 9840899 9790401 9764442 9759529 9767662 9776507 9770067 
1673.991 9733301 9658082 9548903 9425056 9311028 9227997 9183593 9171885 
1677.849 9179025 9190870 9198789 9202681 9209449 9228809 9266920 9320574 
1681.706 9376266 9410598 9398205 9319660 9174896 8989180 8806417 8666117 
1685.564 8583817 8553402 8556173 8574084 8592537 8602845 8601256 8586520 
1689.421 8560364 8526470 8492072 8465684 8455819 8467847 8501026 8547860 
1693.279 8593618 8620926 8613964 8566177 8486902 8401664 8341740 8326845 
1697.136 8357311 8415211 8474198 8504168 8480753 8394131 8258387 8110060 
1700.993 7989661 7922370 7908974 7934315 7977781 8020811 8050244 8058109 
1704.851 8043594 8012880 7976430 7944911 7925272 7919433 7924630 7935968 
1708.708 7949028 7961751 7975587 7994554 8023411 8065467 8121505 8188860 
1712.566 8262946 8338598 8411832 8480483 8543197 8598282 8641509 8666725 
1716.423 8667774 8642558 8596863 8544920 8505013 8490551 8506669 8549111 
1720.281 8608285 8673012 8734334 8787584 8831845 8869652 8904350 8939085 
1724.138 8975311 9013130 9052102 9091992 9132630 9173407 9212293 9246104 
1727.995 9271151 9285707 9290988 9292004 9295185 9305104 9320913 9334691 
1731.853 9330595 9288652 9192088 9035931 8836951 8630187 8457103 8343936 
1735.710 8293307 8290301 8312491 8339071 8353697 8347043 8317557 8271558 
1739.568 8219824 8174577 8145171 8135380 8143651 8164990 8193520 8223910 
1743.425 8252410 8278210 8302426 8327858 8357311 8392172 8431866 8473590 
1747.282 8513494 8547219 8571617 8584155 8583445 8568306 8538567 8495924 
1751.140 8444940 8393759 8350995 8324142 8316071 8323737 8339004 8350218 
1754.997 8346131 8319077 8268011 8200138 8128088 8064995 8018415 7988344 
1758.855 7967589 7945789 7912483 7860859 7789742 7703966 7612609 7525721 
1762.712 7452435 7397899 7363759 7348358 7348156 7357322 7368949 7376431 
1766.570 7374611 7362512 7343943 7326252 7317558 7321467 7335789 7351930 
1770.427 7358232 7344078 7304854 7245486 7179826 7125224 7093800 7089961 
1774.284 7109764 7145535 7190000 7239388 7292387 7349403 7409561 7469491 
1778.142 7523496 7565774 7592074 7602661 7601717 7596322 7593355 7596390 
1781.999 7604819 7614699 7621915 7623028 7617734 7608461 7599087 7593355 
1785.857 7593692 7600975 7615576 7637596 7667036 7702819 7742146 7779150 
1789.714 7806609 7816291 7802055 7762621 7702751 7632301 7563178 7504482 
1793.572 7460626 7430694 7410471 7395709 7383407 7371477 7359479 7346471 
1797.429 7331037 7311459 7286052 7254448 7217624 7177704 7137788 7100469 
1801.286 7067598 7039613 7017185 7000214 6989035 6983748 6984119 6989102 
1805.144 6997520 7007790 7019172 7031564 7045540 7061368 7078408 7095215 
1809.001 7109529 7119970 7126167 7129401 7132197 7137080 7145366 7157325 
1812.859 7171775 7187305 7203508 7221364 7242521 7269172 7302192 7341079 
1816.716 7383677 7427188 7468918 7507078 7540825 7570528 7596693 7620196 
1820.573 7641879 7662922 7684337 7706394 7728081 7747240 7760327 7764206 
1824.431 7758303 7744845 7729667 7719244 7718637 7728553 7745924 7763768 
1828.288 7774596 7773820 7761137 7741910 7724776 7718401 7727508 7752266 
1832.146 7788798 7832451 7879887 7929692 7982674 8040051 8102499 8168973 
1836.003 8237011 8304284 8370012 8435920 8505926 8584899 8677035 8784845 
1839.861 8907732 9042697 9185116 9329545 9470433 9602592 9723441 9833205 
1843.718 9936523 10040747 10155103 10284926 10430502 10585735 10741193 
1847.093 10885767 11009726 11107987 11179580 11227215 11255029 11266489 
1850.469 11262374 11241496 11201510 11141131 11061488 10965683 10858553 
1853.844 10743367 10622473 10495705 10362696 10224029 10082084 9940862 
1857.219 9804940 9677022 9557439 9443917 9333134 9222886 9112971 9005079 
1861.076 8901949 8805877 8717059 8634851 8558302 8488355 8428014 8381565 
1864.934 8351907 8338869 8337890 8340896 8338261 8323704 8295131 8257272 
1868.791 8218135 8186260 8166880 8160060 8161849 8166914 8171269 8172552 
1872.649 8170493 8165462 8157494 8145981 8130215 8110095 8087240 8063915 
1876.506 8042650 8024153 8007379 7988782 7964653 7932358 7891731 7844630 
1880.364 7794161 7742719 7691015 7638338 7583273 7525519 7466996 7411482 
1884.221 7363085 7324533 7295925 7274765 7256604 7237097 7214289 7188012 
1888.078 7160221 7133645 7110707 7093328 7082821 7080497 7087603 7104275 
1891.936 7129771 7161232 7194177 7223823 7246901 7263141 7275405 7288209 
1895.793 7305596 7329487 7358401 7389103 7418627 7445828 7472626 7502224 
1899.651 7537622 7579632 7624916 7669295 7707709 7737289 7759147 7776248 
1903.508 7793048 7811906 7833024 7854212 7872768 7887041 7897197 7905295 
1907.365 7913326 7922100 7930873 7937352 7939849 7937959 7933775 7929152 
1911.223 7926081 7924293 7921492 7915520 7905903 7893958 7883970 7880293 
1915.080 7883600 7891056 7895577 7887985 7861668 7815920 7756110 7692465 
1918.938 7634359 7587387 7550602 7518945 7485975 7447615 7404573 7361266 
1922.795 7323590 7296093 7279313 7270890 7267487 7266847 7269475 7277562 
1926.653 7292454 7312705 7333901 7349066 7352739 7343943 7326353 7307348 
1930.510 7294948 7294510 7305899 7324904 7345224 7362141 7373667 7380913 
1934.367 7385295 7387283 7384890 7375656 7357659 7333396 7308325 7290534 
1938.225 7286659 7298587 7322646 7351425 7376397 7392204 7398944 7399989 
1942.082 7400629 7403764 7408516 7411178 7408449 7400090 7390080 7385598 
1945.940 7393181 7414616 7446232 7479873 7506673 7521237 7524271 7521642 
1949.797 7521979 7532464 7555221 7587657 7624883 7660831 7692633 7719952 
1953.655 7742990 7761542 7773753 7776080 7765522 7742146 7708384 7669397 
1957.512 7631155 7596188 7565133 7537420 7511865 7490930 7479165 7481525 
1961.369 7500504 7534250 7575080 7613451 7641777 7656818 7661404 7661202 
1965.227 7661573 7664675 7669127 7670307 7665485 7656716 7649298 7650107 
1969.084 7663731 7687845 7714927 7735636 7741708 7732466 7713443 7695433 
1972.942 7688418 7698198 7724236 7762250 7808262 7861905 7926688 8007683 
1976.799 8106280 8216312 8324277 8413116 8468658 8484605 8463995 8416731 
1980.656 8355386 8291078 8230291 8176503 8130654 8092607 8063003 8041131 
1984.514 8024997 8010281 7992360 7968398 7939950 7913697 7899222 7904519 
1988.371 7932762 7978928 8031613 8079679 8114280 8134401 8146386 8160397 
1992.229 8185653 8224990 8275543 8329277 8378457 8418149 8448352 8472509 
1996.086 8495011 8517381 8539649 8560431 8577700 8592773 8607576 8623461 
1999.944 8639380 8650062 8647391 8624339 8578849 8514035 8440210 8369978 
2003.801 8312220 8271862 8247615 8233770 8224753 8219182 8217865 8224045 
2007.658 8239072 8258691 8275475 8280372 8267505 8236978 8194263 8148649 
2011.516 8108575 8079645 8062261 8054261 8054903 8063982 8084033 8117319 
2015.373 8163166 8217325 8274057 8327385 8375518 8422575 8474706 8536878 
2019.231 8609401 8684303 8749750 8794109 8810914 8802325 8777711 8750866 
2023.088 8731630 8725038 8729230 8738188 8746438 8751475 8755025 8759927 
2026.946 8767534 8776055 8780991 8778050 8765134 8746606 8729533 8721488 
2030.803 8726491 8744476 8770678 8800229 8832522 8871072 8923527 8996622 
2034.660 9091214 9200549 9312619 9413036 9491565 9544874 9576949 9595411 
2038.518 9608758 9623425 9641990 9665130 9692878 9725135 9762205 9802059 
2042.375 9839272 9866286 9875879 9862795 9828934 9782233 9733877 9696063 
2046.233 9676919 9677970 9695182 9720831 9746957 9766306 9774406 9766645 
2050.090 9740315 9694064 9628507 9549615 9467960 9395565 9345050 9324129 
2053.948 9331712 9359371 9394549 9423702 9438500 9438229 9427529 9413781 
2057.805 9403454 9398375 9396682 9395463 9391434 9384967 9378602 9375351 
2061.662 9376842 9382157 9387744 9389199 9384899 9375318 9363095 9351923 
2065.520 9343155 9335233 9325787 9312043 9293052 9271287 9251587 9237541 
2069.377 9231584 9232092 9234867 9235172 9229824 9218317 9202715 9185759 
2073.235 9168737 9151851 9133713 9113004 9090436 9068782 9051358 9040871 
2077.092 9037420 9037758 9036777 9030147 9015837 8995370 8972977 8952885 
2080.949 8937732 8927586 8920111 8912095 8902389 8891532 8882130 8877126 
2084.807 8878106 8884328 8893088 8900867 8905094 8904823 8900529 8892310 
2088.664 8880541 8863801 8840231 8809798 8774060 8736396 8702219 8675920 
2092.522 8659762 8653983 8657058 8667097 8683153 8705599 8734368 8767974 
2096.379 8802935 8833028 8852676 8858763 8851222 8835091 8817406 8803881 
2100.237 8798234 8800669 8808277 8818117 8829140 8842226 8860284 8886020 
2104.094 8919908 8960056 9003320 9046555 9088643 9131412 9177502 9229621 
2107.951 9287975 9349553 9409278 9462813 9507008 9542265 9571191 9597342 
2111.809 9623222 9649443 9674786 9697316 9715782 9730455 9742483 9753903 
2115.666 9765865 9778709 9792366 9807278 9824766 9847000 9876150 9912556 
2119.524 9955372 10001346 10047257 10090935 10132786 10174504 10218839 
2122.899 10267046 10317091 10364733 10404505 10431893 10445572 10447472 
2126.274 10441396 10431418 10420321 10408069 10392729 10372436 10346306 
2129.649 10314682 10280516 10246318 10214361 10185630 10161174 10142180 
2133.025 10131666 10132718 10147268 10174979 10211851 10250219 10283603 
2136.400 10307150 10320892 10329477 10339621 10356249 10381632 10413363 
2139.775 10446624 10477103 10503037 10524559 10544146 10563293 10578944 
2143.150 10586108 10577892 10548424 10497096 10428669 10350310 10271661 
2146.526 10200047 10137703 10083983 10035796 9990226 9945337 9901064 9856490 
2150.383 9810294 9761359 9706905 9646496 9581861 9514526 9446627 9378297 
2154.240 9306999 9229960 9148433 9069933 9009578 8988165 9025241 9131209 
2158.098 9302768 9519268 9749972 9964255 10138009 10259719 10329646 10355333 
2161.955 10346442 10313834 10268336 10219756 10179117 10155985 10154967 
2165.331 10176336 10212292 10250932 10279905 10290389 10279464 10250694 
2168.706 10210935 10166804 10122000 10077811 10032744 9986123 9939743 
2172.081 9896250 9859710 9832663 9814531 9802194 9791926 9781149 9769220 
2175.938 9757902 9748685 9740789 9731268 9715850 9691658 9660115 9627558 
2179.796 9602558 9592091 9599746 9620613 9646022 9664689 9668415 9656626 
2183.653 9634706 9611027 9595105 9592328 9602965 9624544 9652933 9684814 
2187.511 9719781 9758207 9799280 9841611 9882285 9917743 9946965 9971408 
2191.368 9993413 10015757 10039322 10061126 10077030 10083033 10077743 
2194.743 10063399 10045291 10028743 10017520 10012399 10011043 10009925 
2198.119 10007924 10005482 10005753 10012670 10026980 10046986 10069265 
2201.494 10088832 10103245 10113555 10122882 10134142 10149133 10165448 
2204.869 10178303 10181933 10173589 10153068 10125527 10097548 10074792 
2208.244 10060889 10056142 10058685 10066416 10077166 10089952 10104433 
2211.620 10119185 10131293 10138280 10138755 10133429 10126409 10123017 
2214.995 10127732 10142519 10165787 10192719 10218127 10238481 10252764 
2218.370 10262975 10272034 10281703 10292017 10301280 10306810 10307251 
2221.745 10302569 10294868 10285231 10274307 10260262 10240143 10212190 
2225.121 10176539 10136143 10095648 10060482 10033050 10013552 9999142 
2228.496 9985580 9970323 9952389 9932523 9912793 9894522 9877946 9862422 
2232.353 9848423 9837273 9832527 9838222 9856592 9886997 9924794 9962932 
2236.211 9994091 10013688 10020469 10017418 10009822 10001685 9996261 
2239.586 9993785 9993141 9992938 9992904 9993582 9996464 10002397 10011145 
2243.443 10021893 10033999 10047393 10063975 10085916 10114505 10149167 
2246.819 10187224 10224064 10255070 10277937 10291950 10299142 10302977 
2250.194 10306437 10311187 10317939 10327033 10338400 10353331 10372843 
2253.569 10396530 10422831 10447438 10465291 10471774 10464715 10444383 
2256.944 10414653 10379800 10343660 10308643 10275257 10242586 10210291 
2260.320 10178541 10148760 10123085 10103619 10091444 10087035 10090664 
2263.695 10102194 10121864 10149507 10184002 10222842 10262127 10297582 
2267.070 10325709 10345017 10356452 10362662 10366667 10370705 10374947 
2270.445 10378578 10379460 10375761 10367176 10354823 10339927 10324590 
2273.821 10310136 10296665 10284316 10272950 10262365 10253137 10245809 
2277.196 10240788 10238786 10240313 10245843 10256224 10272136 10293340 
2280.571 10318889 10346917 10374573 10399822 10421101 10438003 10451511 
2283.946 10462644 10471435 10477749 10480362 10478054 10470247 10457824 
2287.322 10442585 10426667 10412142 10399720 10389267 10380207 10371994 
2290.697 10364970 10360253 10359066 10362391 10370060 10380716 10392593 
2294.072 10404370 10415467 10426429 10438750 10453853 10472114 10493634 
2297.447 10516887 10540174 10562173 10581492 10597449 10609807 10618296 
2300.823 10622846 10623932 10622201 10618635 10614526 10610724 10606820 
2304.198 10602337 10595785 10586346 10574293 10560985 10548560 10539529 
2307.573 10535184 10535523 10539326 10544893 10550562 10556063 10562411 
2310.948 10571306 10584614 10603051 10626445 10652862 10680097 10706076 
2314.323 10729000 10748223 10763542 10775294 10784431 10791700 10798256 
2317.699 10805729 10815308 10827707 10843402 10862121 10882913 10904759 
2321.074 10926471 10946247 10962048 10970883 10968946 10952975 10921136 
2324.449 10873469 10813610 10747884 10683493 10627973 10586753 10561969 
2327.824 10552599 10555044 10564414 10575822 10585803 10592151 10594393 
2331.200 10592966 10588858 10583698 10580201 10580438 10587059 10601726 
2334.575 10624645 10654255 10688315 10723906 10758685 10791972 10823699 
2337.950 10854511 10884952 10914443 10941523 10964936 10983184 10996710 
2341.325 11006701 11015061 11023082 11031102 11038138 11042556 11043338 
2344.701 11040823 11037662 11038580 11049116 11074403 11117878 11180736 
2348.076 11261694 11357971 11464748 11576962 11688932 11795109 11891573 
2351.451 11976239 12049544 12113968 12173392 12231598 12290766 12351236 
2354.826 12411887 12470840 12526460 12579119 12629328 12679134 12729902 
2358.202 12782859 12838552 12897462 12960270 13027595 13100052 13176791 
2361.577 13255970 13334752 13409823 13478517 13539906 13594227 13642673 
2364.952 13686338 13725561 13759145 13786232 13805489 13816810 13821120 
2368.327 13819615 13813219 13801966 13785446 13762667 13734248 13702000 
2371.703 13668898 13639118 13616380 13602705 13599389 13606569 13623800 
2375.078 13651802 13691775 13745191 13813595 13897371 13995569 14106625 
2378.453 14228699 14360191 14500356 14649238 14806569 14971296 15142091 
2381.828 15315938 15489718 15660578 15825871 15983354 16130956 16266501 
2385.204 16387874 16493315 16581224 16651247 16704133 16741289 16764533 
2388.579 16775485 16775588 16765498 16745867 16717251 16679790 16633792 
2391.954 16578985 16515514 16443070 16362380 16275167 16184466 16094128 
2395.329 16007556 15927978 15857486 15796525 15745742 15705615 15676998 
2398.705 15662022 15662536 15679471 15713139 15761822 15823774 15896529 
2402.080 15978817 16070163 16170882 16281670 16402705 16533963 16675383 
2405.455 16826630 16988610 17161994 17347892 17546224 17756206 17975892 
2408.830 18203292 18436998 18676952 18923856 19178868 19442204 19711872 
2412.206 19984312 20253486 20512890 20756636 20979966 21179510 21353530 
2415.581 21500774 21620662 21713656 21780748 21824264 21847260 21853530 
2418.956 21845934 21826772 21796844 21756014 21704250 21642080 21570758 
2422.331 21493290 21412874 21332648 21255532 21183684 21118596 21062388 
2425.707 21017348 20986294 20972732 20979688 21009316 21063048 21140894 
2429.082 21241858 21363866 21505058 21662664 21834856 22020326 22218990 
2432.457 22431456 22659558 22905002 23169106 23452292 23754104 24073006 
2435.832 24408056 24758446 25124498 25507268 25908030 26327678 26766482 
2439.208 27224180 27699910 28193772 28705964 29237614 29790038 30364520 
2442.583 30961540 31581544 32223988 32888218 33573300 34277748 34999612 
2445.958 35735988 36483812 37239932 38000948 38764496 39527900 40288908 
2449.333 41044620 41792200 42528244 43250492 43957336 44647960 45321704 
2452.708 45976968 46610720 47218284 47793148 48328188 48817276 49254512 
2456.084 49634676 49953692 50206916 50389652 50497540 50526532 50473160 
2459.459 50335664 50112596 49803244 49407480 48926328 48362552 47721436 
2462.834 47011248 46242108 45425688 44574600 43699520 42810484 41917020 
2466.209 41027140 40149652 39294032 38468944 37682896 36943356 36255248 
2469.585 35622212 35045836 34526764 34064968 33659868 33310092 33013080 
2472.960 32764826 32560102 32392386 32255464 32143130 32049660 31970154 
2476.335 31899936 31834114 31769194 31701534 31629332 31552538 31471808 
2479.710 31388596 31303622 31216598 31125640 31028618 30922898 30807174 
2483.086 30682128 30549760 30413558 30277258 30144622 30018420 29900770 
2486.461 29792630 29694094 29604164 29520778 29440918 29361820 29280856 
2489.836 29196256 29107990 29017508 28926090 28835326 28745858 28656692 
2493.211 28566340 28473212 28375790 28273862 28167680 28057564 27943236 
2496.587 27823958 27697934 27563576 27419802 27266268 27104076 26935106 
2499.962 26760986 26583448 26403448 26221690 26038322 25854222 25670376 
2503.337 25488364 25310080 25137206 24971422 24813910 24665572 24526610 
2506.712 24396910 24275938 24161726 24052660 23946628 23841254 23735276 
2510.088 23627782 23518078 23406130 23291866 23175502 23056828 22936684 
2513.463 22815524 22694608 22574598 22456090 22339110 22223592 22109222 
2516.838 21996520 21886774 21782246 21685198 21597886 21521630 21457048 
2520.213 21403962 21361534 21328958 21305432 21290018 21281386 21278254 
2523.589 21278916 21281596 21285424 21290330 21296872 21305608 21317266 
2526.964 21331498 21347716 21364598 21380782 21395680 21409254 21421402 
2530.339 21432192 21440930 21446570 21448658 21446676 21441070 21433446 
2533.714 21425650 21419174 21415066 21413258 21413014 21413988 21416460 
2537.090 21421228 21429930 21444412 21465472 21493358 21527410 21565988 
2540.465 21608054 21652562 21698746 21746398 21795310 21844646 21893812 
2543.840 21942288 21989652 22036188 22082098 22127770 22172856 22216442 
2547.215 22258016 22296484 22331750 22364228 22394786 22424652 22454796 
2550.591 22485572 22516840 22548004 22578020 22605836 22630898 22652332 
2553.966 22670170 22684554 22696668 22707490 22718662 22730812 22744150 
2557.341 22757314 22768174 22773656 22771140 22758500 22735108 22701380 
2560.716 22658266 22606850 22548248 22482712 22410800 22333458 22251808 
2564.092 22167658 22083388 22000354 21920298 21844194 21772666 21706306 
2567.467 21646156 21592942 21547568 21510454 21481278 21459520 21444448 
2570.842 21435152 21431600 21433586 21441140 21454088 21472122 21494576 
2574.217 21521282 21552374 21588276 21629612 21676316 21727588 21781200 
2577.593 21835204 21887018 21936014 21982228 22027892 22075406 22127178 
2580.968 22185094 22249714 22320762 22397718 22479816 22566502 22657290 
2584.343 22751134 22846744 22942550 23037120 23129754 23220520 23310394 
2587.718 23400498 23491600 23583702 23675472 23765442 23851790 23933604 
2591.094 24010880 24084740 24156614 24228288 24300992 24375354 24451518 
2594.469 24529344 24608166 24687210 24765428 24841800 24916150 24988620 
2597.844 25060572 25133942 25211398 25295154 25386936 25487098 25594946 
2601.219 25709396 25829396 25953966 26083110 26217184 26356266 26500676 
2604.594 26650206 26804474 26963240 27126576 27294494 27467204 27644362 
2607.970 27825372 28008472 28191898 28373772 28552468 28726954 28896200 
2611.345 29059416 29215570 29363132 29500174 29624914 29735890 29832056 
2614.720 29913442 29980430 30034076 30075976 30107404 30129564 30143060 
2618.095 30148280 30145050 30133364 30113372 30085672 30051404 30012668 
2621.471 29971554 29929842 29889092 29850122 29813600 29779712 29748946 
2624.846 29722334 29700906 29686216 29679370 29681178 29691644 29710590 
2628.221 29737274 29770910 29810868 29856438 29907302 29962680 30022216 
2631.596 30085246 30151726 30221272 30293850 30369352 30447250 30526868 
2634.972 30607710 30688920 30770718 30853026 30936704 31022318 31110228 
2638.347 31200968 31294040 31389094 31485594 31583074 31681150 31779424 
2641.722 31877328 31974398 32070064 32164574 32258034 32351442 32446190 
2645.097 32543208 32643500 32747496 32854802 32965318 33078794 33195090 
2648.473 33314638 33437758 33564780 33695996 33831044 33969896 34112596 
2651.848 34259176 34409680 34564792 34724628 34889368 35059200 35234452 
2655.223 35415488 35603184 35798228 36001068 36211704 36429720 36653980 
2658.598 36883364 37117096 37354492 37595268 37839612 38087316 38338308 
2661.974 38592088 38848048 39105604 39364512 39624120 39884316 40144568 
2665.349 40404312 40663268 40921216 41178440 41435636 41693820 41954020 
2668.724 42217120 42483920 42754908 43030780 43312104 43599356 43892704 
2672.099 44191936 44495924 44802880 45110792 45417740 45721968 46022792 
2675.475 46319548 46611496 46898028 47178504 47451844 47718292 47978800 
2678.850 48235388 48491388 48750876 49017492 49294704 49584980 49890168 
2682.225 50211192 50549052 50904204 51277244 51668856 52079272 52509072 
2685.600 52958648 53428216 53917720 54426672 54953624 55496956 56054468 
2688.976 56624020 57203768 57793152 58392164 59001496 59622052 60254924 
2692.351 60900228 61558140 62228212 62909664 63602084 64304904 65017676 
2695.726 65740368 66473156 67216152 67970376 68736000 69512944 70300544 
2699.101 71097024 71900328 72708256 73518912 74331624 75145944 75961872 
2702.477 76778664 77594768 78407024 79211608 80003912 80779728 81534520 
2705.852 82264432 82964808 83630728 84256712 84837432 85367856 85844520 
2709.227 86265024 86628632 86934976 87184512 87377168 87513784 87594728 
2712.602 87621928 87597160 87522288 87398848 87227280 87007112 86737008 
2715.978 86415888 86042808 85618312 85143840 84621888 84056128 83450912 
2719.353 82810816 82141912 81450736 80744136 80029648 79314608 78606112 
2722.728 77911496 77237072 76589376 75974224 75395768 74857872 74362568 
2726.103 73910952 73503408 73140352 72822264 72549912 72324384 72145600 
2729.479 72012952 71924216 71876904 71867920 71894384 71954560 72047368 
2732.854 72171648 72326536 72510328 72720248 72953112 73205400 73474168 
2736.229 73756608 74050152 74352624 74661248 74973160 75285256 75594664 
2739.604 75898768 76195416 76483032 76759800 77024360 77275544 77512976 
2742.979 77737616 77951664 78158632 78362256 78566448 78773760 78985776 
2746.355 79203304 79426192 79653928 79886048 80121480 80359000 80596200 
2749.730 80830656 81059616 81281104 81493992 81699016 81897704 82092840 
2753.105 82287576 82485456 82689392 82902448 83126512 83363592 83613608 
2756.480 83875712 84147696 84426264 84708224 84990040 85268456 85539992 
2759.856 85800872 86045912 86270208 86467592 86632680 86761568 86850912 
2763.231 86899320 86905712 86869128 86788760 86663784 86494528 86282976 
2766.606 86032952 85750368 85441872 85114296 84773944 84426064 84074952 
2769.981 83724848 83379608 83043544 82720768 82414864 82128624 81863608 
2773.357 81620200 81397984 81196168 81013256 80847504 80696136 80556144 
2776.732 80423064 80291856 80156944 80011992 79850528 79666344 79453280 
2780.107 79206240 78921872 78599008 78238968 77845216 77423704 76980688 
2783.482 76523024 76056840 75587728 75119864 74657072 74201696 73755664 
2786.858 73319392 72892528 72473520 72060752 71652584 71247768 70845920 
2790.233 70447192 70052264 69661584 69276032 68896848 68525008 68162760 
2793.608 67812312 67475536 67153800 66847332 66554948 66274836 66004784 
2796.983 65742916 65487832 65239140 64996204 64758672 64525388 64295068 
2800.359 64065904 63836364 63605264 63371404 63133964 62891932 62644028 
2803.734 62389076 62126320 61855816 61578644 61296380 61011560 60726316 
2807.109 60442700 60162204 59886152 59615704 59352268 59097072 58851252 
2810.484 58615236 58388712 58171060 57960936 57757156 57559036 57366448 
2813.860 57179352 56998004 56823112 56655312 56495620 56345864 56208496 
2817.235 56087268 55985336 55906904 55855236 55833532 55844048 55888700 
2820.610 55969128 56085496 56237840 56424984 56644856 56894460 57170732 
2823.985 57469880 57788608 58122572 58466800 58815172 59160592 59494360 
2827.361 59808456 60095192 60348348 60563248 60737328 60868360 60955664 
2830.736 60998976 60998708 60956272 60874152 60755656 60605076 60426672 
2834.111 60224928 60003728 59767012 59517956 59260200 58996332 58728712 
2837.486 58458840 58187424 57914780 57640416 57364256 57086156 56806080 
2840.862 56524040 56239836 55953336 55664124 55372128 55078072 54783276 
2844.237 54489508 54198976 53914080 53636304 53366988 53107724 52859768 
2847.612 52625192 52406368 52205588 52025108 51866172 51729096 51613400 
2850.987 51518144 51441672 51382552 51339592 51311252 51296036 51292756 
2854.363 51299804 51316136 51340672 51373004 51411944 51456704 51505572 
2857.738 51556012 51605080 51649372 51684900 51708004 51714500 51700616 
2861.113 51662812 51597880 51504116 51380540 51228028 51048476 50845200 
2864.488 50622244 50384332 50136844 49885484 49636052 49394820 49167452 
2867.864 48958928 48773976 48615776 48486832 48388632 48321744 48285676 
2871.239 48278636 48297556 48338000 48394888 48463048 48538592 48618628 
2874.614 48702056 48789432 48881384 48979104 49082708 49192128 49306656 
2877.989 49425968 49549696 49678176 49811528 49949712 50092072 50237524 
2881.365 50384852 50532976 50681516 50830632 50980248 51130696 51281424 
2884.740 51431712 51580600 51727376 51871624 52013420 52152684 52289108 
2888.115 52421580 52548972 52669512 52782308 52886976 52984364 53075412 
2891.490 53161536 53244116 53323720 53400860 53476180 53549828 53622812 
2894.865 53695580 53768740 53842548 53917308 53993540 54071368 54151872 
2898.241 54235992 54323884 54415252 54508588 54601720 54692096 54777752 
2901.616 54856956 54928960 54992884 55047716 55091576 55122084 55136792 
2904.991 55133856 55112828 55074160 55020000 54952384 54873648 54785532 
2908.366 54689164 54585568 54475648 54360872 54242600 54122592 54002096 
2911.742 53881672 53761500 53641404 53520968 53400296 53279516 53158392 
2915.117 53037112 52915416 52792864 52669252 52544972 52420608 52297632 
2918.492 52177676 52062688 51954372 51854524 51764928 51687220 51623252 
2921.867 51574336 51541424 51524152 51521020 51529188 51544744 51563288 
2925.243 51579856 51589408 51587800 51571124 51536352 51481584 51406612 
2928.618 51312480 51202044 51079896 50951816 50824372 50705572 50603144 
2931.993 50524744 50478144 50469700 50504832 50587732 50720656 50905060 
2935.368 51140760 51426116 51758468 52133852 52547248 52992416 53462688 
2938.744 53952084 54454800 54966408 55483708 56003428 56522680 57037032 
2942.119 57540688 58025764 58482760 58899900 59265172 59565652 59788760 
2945.494 59924604 59966332 59912620 59768116 59543876 59256896 58926500 
2948.869 58573524 58216936 57871092 57545796 57245880 56972048 56722064 
2952.245 56492412 56279704 56080408 55892280 55713580 55543424 55381352 
2955.620 55227164 55080740 54941368 54808384 54680708 54557276 54437596 
2958.995 54321368 54208812 54100452 53996804 53897912 53803616 53713616 
2962.370 53627908 53547012 53471796 53403480 53343272 53291764 53249024 
2965.746 53214904 53189212 53172208 53164456 53166740 53178912 53200032 
2969.121 53227564 53257604 53285584 53307572 53320460 53322444 53313644 
2972.496 53295172 53269216 53238576 53206628 53177264 53153968 53139744 
2975.871 53135096 53137344 53138992 53128248 53090280 53007764 52865156 
2979.247 52650400 52356872 51984624 51540756 51038452 50494192 49927560 
2982.622 49358552 48804484 48280192 47795964 47356980 46964508 46616584 
2985.997 46309816 46040916 45808372 45611540 45450152 45321924 45219872 
2989.372 45130088 45032900 44903176 44713328 44440164 44068072 43592616 
2992.748 43021856 42375960 41683612 40974772 40278580 39617916 39005548 
2996.123 38446028 37936112 37467608 37030240 36614180 36212496 35820540 
2999.498 35436340 35059664 34691000 34330960 33979860 33637812 33304832 
3002.873 32981190 32667008 32362652 32068316 31783774 31508430 31241806 
3006.249 30983138 30732056 30488550 30253066 30025910 29807462 29597494 
3009.624 29395570 29200650 29011416 28827006 28646464 28469746 28296846 
3012.999 28128650 27965676 27809088 27659582 27517930 27384794 27260482 
3016.374 27145200 27038518 26939688 26846908 26758308 26671168 26583412 
3019.750 26492962 26398624 26299834 26196598 26089374 25978342 25863752 
3023.125 25745888 25625312 25503296 25381982 25264284 25153568 25052920 
3026.500 24964544 24889764 24828188 24777846 24735578 24697522 24658558 
3029.875 24613636 24558058 24487694 24399748 24293178 24168662 24028706 
3033.250 23876714 23716868 23553268 23389274 23227826 23070942 22920020 
3036.626 22776170 22640114 22511988 22391926 22279604 22174632 22076590 
3040.001 21984912 21899354 21819212 21743892 21672310 21603562 21536914 
3043.376 21472158 21409496 21349632 21292940 21239840 21189494 21140548 
3046.751 21091500 21041172 20989006 20935492 20881844 20829352 20778948 
3050.127 20730290 20682438 20633756 20582472 20527410 20467874 20403726 
3053.502 20335144 20262268 20185378 20104752 20021020 19935534 19849926 
3056.877 19766278 19686216 19610920 19540832 19475746 19415246 19359050 
3060.252 19306878 19258974 19215056 19174676 19136896 19100714 19065122 
3063.628 19029672 18994916 18961652 18931124 18904476 18882188 18863710 
3067.003 18848276 18834504 18821182 18807238 18792048 18775060 18756378 
3070.378 18735550 18712754 18687952 18661282 18633024 18603696 18573816 
3073.753 18543732 18514236 18485814 18458952 18433990 18410896 18389498 
3077.129 18369346 18349508 18329322 18308136 18285500 18261102 18235150 
3080.504 18207160 18177136 18144970 18110736 18074706 18037508 18000032 
3083.879 17963252 17928100 17895056 17864776 17837604 17813440 17792244 
3087.254 17773778 17757312 17741848 17726420 17710266 17692978 17674996 
3090.630 17657328 17641246 17627824 17617576 17610122 17604738 17600116 
3094.005 17595562 17590834 17586314 17582864 17581552 17582898 17587178 
3097.380 17594044 17602702 17612606 17623234 17634450 17646596 17660158 
3100.755 17675722 17693424 17713478 17735118 17757380 17778644 17797352 
3104.131 17812438 17823486 17830840 17836120 17841438 17848582 17858768 
3107.506 17872130 17887978 17904828 17921264 17936490 17950408 17963632 
3110.881 17977170 17992160 18009116 18028146 18049388 18072496 18096918 
3114.256 18122376 18148252 18173578 18197384 18218806 18237016 18252220 
3117.632 18264628 18275132 18284740 18293966 18303264 18312662 18322204 
3121.007 18332052 18342802 18354864 18368312 18383140 18398590 18413870 
3124.382 18428010 18440766 18452140 18462858 18473300 18483982 18494976 
3127.757 18506214 18517624 18529588 18542590 18557426 18574750 18594496 
3131.133 18616148 18638870 18661456 18683558 18705214 18726868 18749564 
3134.508 18773850 18800110 18827860 18856510 18885408 18914374 18943272 
3137.883 18972314 19001770 19031852 19062144 19092300 19122042 19150852 
3141.258 19178658 19205638 19231750 19257276 19282838 19308750 19335838 
3144.634 19364800 19396294 19430456 19467014 19505620 19545372 19586168 
3148.009 19627764 19670580 19714958 19761008 19808342 19856030 19903170 
3151.384 19948856 19992880 20035350 20077060 20118668 20160768 20203808 
3154.759 20247964 20293582 20341464 20392232 20446686 20504970 20566632 
3158.135 20630106 20693906 20756460 20817150 20876144 20934484 20993632 
3161.510 21055014 21119674 21188034 21260126 21335850 21414720 21496214 
3164.885 21579326 21662942 21745494 21826040 21903640 21978500 22051280 
3168.260 22123030 22194718 22266280 22337018 22405638 22470708 22531288 
3171.635 22586988 22637914 22684728 22727846 22767510 22803544 22836022 
3175.011 22865080 22891380 22915690 22938918 22961624 22984086 23006062 
3178.386 23027546 23048650 23070140 23093132 23118676 23147438 23179066 
3181.761 23213040 23248170 23283720 23319590 23356126 23394416 23435364 
3185.136 23479640 23527278 23578070 23631000 23685480 23741086 23797222 
3188.512 23853960 23911022 23968370 24025868 24083442 24141482 24200366 
3191.887 24260732 24323174 24388148 24456006 24526610 24600136 24676338 
3195.262 24755010 24835484 24917168 24998656 25079318 25157852 25233872 
3198.637 25307482 25378926 25448976 25518476 25588164 25658776 25730664 
3202.013 25803972 25878594 25954492 26031428 26109148 26187728 26267132 
3205.388 26347818 26430280 26514270 26599864 26686282 26772438 26857166 
3208.763 26940042 27021028 27100866 27180930 27262528 27346434 27433320 
3212.138 27522800 27614312 27707362 27801422 27896384 27992180 28088458 
3215.514 28184332 28279306 28372394 28463094 28551690 28638252 28723768 
3218.889 28809056 28894286 28980066 29066642 29154264 29243638 29335658 
3222.264 29430884 29529538 29631122 29734646 29838444 29941202 30041924 
3225.639 30140184 30236476 30331332 30425856 30520718 30616028 30711786 
3229.015 30807174 30901480 30993884 31083816 31171278 31256724 31341300 
3232.390 31426244 31513062 31602212 31693124 31785164 31876546 31965982 
3235.765 32052908 32137598 32221310 32305572 32391708 32480218 32570708 
3239.140 32662254 32753854 32845046 32936294 33028488 33122528 33219054 
3242.516 33318036 33418794 33520072 33621056 33721884 33822772 33924576 
3245.891 34028520 34134924 34243904 34354848 34466928 34579968 34693656 
3249.266 34808408 34924448 35042392 35162228 35283756 35406468 35529932 
3252.641 35653540 35777180 35900824 36024468 36148396 36272576 36396828 
3256.017 36520428 36642552 36761968 36878356 36991520 37102516 37212964 
3259.392 37325172 37441024 37561708 37687192 37815900 37945836 38074872 
3262.767 38201740 38326220 38448744 38570432 38692044 38813696 38934728 
3266.142 39054812 39173372 39290692 39408048 39526232 39646012 39767312 
3269.518 39889080 40009828 40128176 40243612 40356568 40467956 40579080 
3272.893 40690704 40802976 40915100 41026080 41135672 41243760 41351260 
3276.268 41459436 41569284 41681532 41796140 41912788 42030596 42149092 
3279.643 42267736 42386408 42505444 42624400 42743608 42862996 42982784 
3283.019 43103264 43224908 43347908 43472184 43597376 43723048 43848640 
3286.394 43973908 44098952 44223960 44349700 44476360 44604632 44735076 
3289.769 44868164 45004344 45143952 45286876 45432860 45580996 45730724 
3293.144 45881356 46032736 46185164 46339788 46497048 46657532 46821400 
3296.520 46987620 47155712 47324832 47494644 47665040 47836464 48009104 
3299.895 48183296 48359000 48535924 48713920 48893252 49074472 49258296 
3303.270 49446388 49639584 49839100 50046260 50261484 50484848 50716220 
3306.645 50954280 51197384 51443760 51691956 51941524 52192996 52447268 
3310.021 52705876 52970440 53241160 53518232 53801028 54089080 54382052 
3313.396 54680524 54984912 55296252 55615008 55941352 56275140 56616168 
3316.771 56964340 57319524 57681620 58050040 58423624 58801132 59181172 
3320.146 59562916 59946172 60331060 60718008 61107204 61497896 61889360 
3323.521 62280948 62672196 63063764 63456608 63851528 64248620 64646952 
3326.897 65043928 65436944 65823532 66202128 66572444 66934960 67290152 
3330.272 67637856 67977272 68306640 68624736 68929848 69221320 69498664 
3333.647 69760904 70006904 70235136 70444424 70634640 70807104 70964160 
3337.022 71108616 71242664 71366472 71478024 71573696 71648680 71699016 
3340.398 71721912 71716752 71684160 71626056 71544704 71442008 71319344 
3343.773 71177272 71015464 70833160 70628904 70400936 70148328 69870872 
3347.148 69569328 69245992 68903408 68544024 68169432 67780168 67375656 
3350.523 66954868 66517332 66063492 65594988 65114284 64624032 64126624 
3353.899 63623680 63116796 62607288 62095968 61584064 61072652 60562448 
3357.274 60053908 59547372 59043016 58541980 58046024 57557144 57077540 
3360.649 56609108 56152232 55706272 55269832 54841016 54417992 53999504 
3364.024 53584800 53173556 52766144 52363304 51966736 51578772 51201708 
3367.400 50838044 50489092 50154656 49833192 49522100 49218140 48919320 
3370.775 48624484 48334036 48049112 47770696 47498932 47232912 46970860 
3374.150 46710884 46451764 46193420 45936744 45682980 45433596 45188804 
3377.525 44948672 44712412 44479516 44249752 44023260 43801032 43583384 
3380.901 43370532 43161556 42955420 42750480 42545456 42339800 42133724 
3384.276 41927892 41723256 41520756 41321084 41124708 40931444 40741104 
3387.651 40552960 40366492 40181056 39996348 39812192 39628552 39445892 
3391.026 39264256 39083780 38904828 38727544 38552072 38378700 38207312 
3394.402 38037584 37868500 37699012 37527784 37354204 37178996 37003788 
3397.777 36831428 36664832 36505832 36355176 36211308 36071772 35933468 
3401.152 35793480 35650480 35504184 35354848 35203476 35050688 34896588 
3404.527 34741320 34585316 34429372 34274916 34123600 33976024 33832192 
3407.903 33690624 33549388 33406838 33262194 33115662 32968930 32824214 
3411.278 32682508 32544922 32411058 32279018 32147270 32014028 31878364 
3414.653 31740102 31599860 31458520 31317438 31177614 31039970 30905038 
3418.028 30772994 30643050 30514462 30385806 30256298 30125374 29993530 
3421.404 29861798 29731560 29603738 29478508 29355722 29234388 29113268 
3424.779 28991508 28868720 28744690 28619848 28494228 28368114 28241752 
3428.154 28115394 27989990 27866352 27745118 27626990 27511538 27397568 
3431.529 27284122 27170104 27055374 26940394 26826820 26715774 26608600 
3434.905 26505290 26405172 26306874 26209232 26110976 26012288 25913480 
3438.280 25815014 25717198 25619586 25521288 25420870 25317528 25210870 
3441.655 25101328 24990584 24880184 24771918 24666658 24564194 24463228 
3445.030 24361686 24257684 24150448 24040646 23930278 23822528 23720996 
3448.406 23627642 23542740 23464670 23389694 23313856 23233696 23147192 
3451.781 23054240 22956560 22856662 22756824 22658756 22562766 22468720 
3455.156 22375878 22283336 22190674 22097960 22004538 21910678 21815970 
3458.531 21720170 21623100 21525146 21426554 21327844 21229262 21130980 
3461.906 21033102 20935874 20839988 20746450 20656166 20569480 20486352 
3465.282 20405462 20325144 20243764 20160350 20075048 19988718 19902684 
3468.657 19818020 19735208 19653662 19572580 19490302 19406238 19319834 
3472.032 19230884 19139842 19046738 18951858 18855126 18757348 18659450 
3475.407 18562820 18469460 18380478 18296490 18216906 18140480 18065448 
3478.783 17989706 17912112 17831564 17748302 17662676 17576032 17489992 
3482.158 17406174 17325858 17249968 17178434 17110016 17042676 16974278 
3485.533 16902480 16825872 16744215 16658409 16569864 16480375 16391557 
3488.908 16304305 16219307 16136596 16056031 15978266 15902886 15830545 
3492.284 15761375 15695307 15632069 15571414 15512037 15453287 15394065 
3495.659 15332893 15268917 15201964 15132346 15061470 14991497 14924175 
3499.034 14860465 14800157 14741709 14682447 14619662 14551166 14476341 
3502.409 14396427 14313856 14232739 14156292 14087320 14027257 13975278 
3505.785 13929326 13885842 13841576 13792663 13737291 13674643 13606124 
3509.160 13534573 13463650 13396052 13334068 13277355 13224474 13173000 
3512.535 13121430 13068330 13014211 12960065 12907052 12856334 12807906 
3515.910 12760713 12713763 12665625 12615752 12564248 12511898 12459656 
3519.286 12408409 12358702 12311251 12266293 12223793 12183547 12144769 
3522.661 12105722 12064635 12019192 11968167 11910916 11848055 11781015 
3526.036 11711636 11641622 11571993 11503635 11437261 11373617 11313927 
3529.411 11259211 11210588 11168498 11132326 11100508 11071378 11042726 
3532.787 11012615 10979719 10942984 10901906 10856448 10806816 10753828 
3536.162 10698503 10642098 10585939 10530669 10477138 10425649 10376372 
3539.537 10330223 10287912 10250287 10218229 10191091 10168026 10146691 
3542.912 10124476 10099108 10068655 10031897 9988428 9938387 9882352 9821648 
3546.770 9757936 9693589 9631488 9574409 9523738 9479745 9441208 9404876 
3550.627 9367801 9327277 9281814 9232058 9179634 9126709 9075380 9026831 
3554.485 8981197 8938645 8899142 8862652 8829478 8799012 8770678 8742549 
3558.342 8713002 8680482 8644687 8606359 8567359 8529815 8495958 8467238 
3562.199 8443994 8426325 8412812 8402002 8391226 8376126 8352075 8313774 
3566.057 8257272 8181534 8089941 7989761 7889908 7798783 7721875 7660291 
3569.914 7612204 7573360 7539982 7508629 7477682 7446300 7414380 7381486 
3573.772 7347280 7310987 7272339 7232178 7191718 7152878 7116938 7083932 
3577.629 7053285 7023381 6992436 6959809 6925670 6891398 6858947 6830572 
3581.487 6807381 6790048 6778302 6770965 6766254 6762182 6756023 6744446 
3585.344 6723851 6691245 6644913 6586005 6517922 6447160 6381654 6327757 
3589.201 6289936 6269666 6264926 6271817 6284927 6298274 6306309 6303888 
3593.059 6287751 6256757 6212052 6156697 6095940 6034956 5978314 5929102 
3596.916 5888831 5856522 5830159 5807055 5783953 5758535 5729593 5696725 
3600.774 5661745 5626969 5595116 5569172 5550680 5540713 5539035 5544807 
3604.631 5555580 5568635 5580281 5586121 5581590 5563802 5531115 5485108 
3608.489 5430484 5374457 5323403 5282449 5252499 5231271 5214202 5196160 
3612.346 5174231 5148077 5120584 5096378 5079381 5071771 5072207 5076733 
3616.203 5079113 5073950 5055915 5022227 4973023 4911158 4842030 4772679 
3620.061 4710306 4660770 4627782 4611774 4611037 4621687 4639570 4660904 
3623.918 4683980 4708766 4736266 4767018 4798844 4826484 4840120 4828394 
3627.776 4781825 4698751 4589137 4472822 4374043 4308949 4282078 4286997 
3631.633 4310991 4340876 4365809 4379900 4382645 4377356 4369123 4362362 
3635.490 4358948 4357543 4356003 4351116 4341512 4327255 4309753 4290913 
3639.348 4272441 4255008 4238211 4221783 4205891 4191706 4181603 4178190 
3643.205 4183610 4199200 4224560 4257618 4294459 4330300 4359450 4376352 
3647.063 4376553 4356672 4316245 4256781 4182840 4101352 4020849 3950860 
3650.920 3899671 3873227 3872759 3895660 3935312 3981456 4023291 4050112 
3654.778 4053590 4030548 3984667 3925616 3865972 3816565 3783708 3766896 
3658.635 3761582 3761515 3761281 3757772 3750787 3741830 3733642 3728395 
3662.492 3727660 3732038 3741830 3757204 3778661 3806437 3840600 3879746 
3666.350 3921236 3961259 3994230 4013827 4014161 3991120 3945443 3884126 
3670.207 3820610 3770506 3747311 3756970 3796443 3854807 3915553 3960925 
3674.065 3973464 3942601 3869349 3769403 3666840 3583411 3531063 3507981 
3677.922 3504942 3510085 3514428 3514261 3510286 3505710 3504641 3508883 
3681.780 3517935 3529927 3543223 3557921 3576228 3600984 3634062 3674325 
3685.637 3717333 3755700 3781034 3786950 3770941 3735948 3689897 3642114 
3689.494 3600249 3568210 3544960 3528324 3516265 3508115 3504841 3507614 
3693.352 3516332 3529627 3544926 3558623 3568344 3573355 3574859 3575660 
3697.209 3578801 3586318 3598111 3612077 3623938 3628749 3622601 3603390 
3701.067 3571986 3532867 3492917 3459450 3438509 3433767 3445589 3472008 
3704.924 3508649 3551240 3595472 3637937 3676898 3711518 3741529 3766763 
3708.781 3786248 3798215 3800120 3789591 3765727 3729866 3686756 3643584 
3712.639 3608268 3587287 3583946 3597510 3623637 3656248 3688962 3715796 
3716.496 3733341 3740727 3739724 3734143 3728094 3724819 3725688 3730100 
3720.354 3736082 3741930 3746676 3750486 3754597 3760446 3768200 3776556 
3724.211 3782505 3782705 3774951 3759142 3737753 3716865 3703732 3704568 
3728.069 3722848 3758407 3807607 3863799 3919799 3969218 4007740 4034461 
3731.926 4051183 4061316 4068039 4070246 4064092 4043724 4004028 3945076 
3735.783 3873327 3800086 3739156 3699923 3685420 3693239 3717701 3752826 
3739.641 3795340 3844277 3900140 3961961 4025565 4081050 4114732 4111822 
3743.498 4062654 3971492 3859387 3759109 3698486 3688594 3722881 3783909 
3747.356 3851665 3907127 3938054 3938389 3910638 3862529 3805167 3747913 
3751.213 3696447 3654277 3624305 3609337 3612411 3633794 3670917 3717500 
3755.071 3765426 3807039 3836054 3849625 3848556 3835518 3814426 3788689 
3758.928 3760312 3730968 3703431 3681176 3668311 3668344 3681543 3705136 
3762.785 3733241 3759310 3777926 3786716 3787285 3783942 3782405 3786349 
3766.643 3796142 3809044 3819941 3824187 3819039 3804833 3784477 3763086 
3770.500 3745172 3733575 3728863 3729765 3733943 3739324 3744036 3747512 
3774.358 3750052 3752826 3757872 3766529 3779664 3796510 3814225 3829100 
3778.215 3837090 3835820 3825758 3810147 3794638 3783942 3780934 3785146 
3782.073 3793034 3800019 3801925 3796844 3785981 3772612 3761281 3755633 
3785.930 3756736 3763420 3772879 3782271 3789190 3792700 3792900 3790727 
3789.787 3787051 3783006 3779664 3778461 3781001 3788622 3801992 3819540 
3793.645 3838326 3854272 3863231 3862830 3854306 3841803 3833011 3834917 
3797.502 3851631 3882521 3922306 3961393 3987542 3990886 3964603 3910404 
3801.360 3839463 3770473 3721979 3705704 3723215 3766729 3823518 3877606 
3805.217 3915486 3927589 3911139 3871823 3822081 3776556 3746242 3735313 
3809.074 3741630 3759844 3784276 3811652 3841369 3874999 3914182 3958384 
3812.932 4004262 4044895 4072186 4078708 4061350 4023993 3979082 3942969 
3816.789 3929495 3945945 3989616 4050112 4111688 4158118 4175313 4154438 
3820.647 4097205 4016301 3932871 3866808 3831574 3828800 3851163 3886131 
3824.504 3920434 3944340 3952265 3944975 3928023 3909869 3898234 3897365 
3828.362 3907361 3924647 3944273 3961460 3973531 3980453 3984767 3990017 
3832.219 4000082 4017405 4042788 4075063 4111053 4146945 4177555 4198163 
3836.076 4205021 4195788 4171834 4136943 4097472 4060881 4032086 4013626 
3839.934 4004530 4002022 4002155 4001520 3997641 3989314 3976507 3960557 
3843.791 3943471 3928057 3917893 3915720 3923978 3943371 3973297 4011787 
3847.649 4057035 4107339 4161932 4220980 4283919 4349075 4410425 4457959 
3851.506 4478614 4457490 4385255 4265046 4116337 3969819 3854874 3788455 
3855.364 3770773 3791229 3835686 3891848 3950994 4008074 4060781 4108410 
3859.221 4149855 4183944 4209605 4225798 4232992 4232724 4226334 4214690 
3863.078 4197226 4172470 4140589 4104162 4069276 4044025 4035999 4047738 
3866.936 4076367 4112725 4145071 4161330 4153769 4122860 4078742 4037571 
3870.793 4013191 4012756 4033256 4064493 4093492 4109480 4107507 4089980 
3874.651 4065698 4045697 4040213 4053858 4084862 4126439 4169994 4206025 
3878.508 4227003 4229312 4213018 4183844 4150056 4121422 4106002 4107741 
3882.365 4125369 4153000 4182205 4203014 4207464 4192208 4160627 4123094 
3886.223 4092890 4082454 4097372 4135772 4188896 4245171 4291816 4318219 
3890.080 4318319 4291849 4244569 4187089 4130654 4085164 4056600 4047069 
3893.938 4056032 4081384 4120151 4168923 4223891 4280539 4333547 4378829 
3897.795 4412635 4433187 4441221 4439413 4431681 4421672 4411697 4401790 
3901.653 4390209 4373474 4349176 4315944 4274850 4229345 4184981 4146978 
3905.510 4119247 4103627 4099613 4105032 4117307 4133464 4151528 4169626 
3909.367 4186888 4202546 4216163 4228140 4238747 4249287 4261031 4275219 
3913.225 4292351 4311660 4330668 4346431 4355434 4355266 4345862 4328828 
3917.082 4308080 4287934 4271638 4260998 4256079 4255711 4258756 4264544 
3920.940 4272508 4283049 4295430 4307945 4318286 4323808 4322637 4314638 
3924.797 4301989 4288035 4277193 4272274 4274683 4283450 4296434 4310690 
3928.655 4323105 4331539 4334249 4330133 4318754 4300115 4276122 4248885 
3932.512 4222519 4201241 4188561 4186320 4193579 4207631 4224426 4240319 
3936.369 4252666 4260864 4265916 4270233 4275587 4283049 4291950 4300516 
3940.227 4306574 4308180 4304231 4295832 4284421 4272709 4263072 4257585 
3944.084 4256815 4261065 4269062 4279134 4289239 4297438 4302089 4302558 
3947.942 4298877 4291816 4282781 4273244 4263909 4255610 4248450 4242327 
3951.799 4237375 4233962 4232356 4233092 4235434 4238646 4241390 4242093 
3955.656 4239951 4235033 4228140 4220512 4213955 4209805 4208534 4210307 
3959.514 4214289 4219910 4226635 4233661 4241022 4248885 4256916 4265314 
3963.371 4273846 4282246 4290277 4297672 4304197 4310087 4314772 4318654 
3967.229 4321833 4324477 4326786 4328928 4330903 4332877 4335186 4338199 
3971.086 4342080 4346933 4352589 4358346 4363366 4367014 4368654 4368788 
3974.944 4368185 4368085 4370394 4375616 4384218 4395731 4408651 4421271 
3978.801 4432317 4440418 4445071 4445807 4443029 4437171 4428802 4418860 
3982.658 4407982 4397405 4387665 4379431 4373005 4368922 4367148 4368185 
3986.516 4371967 4378360 4386761 4396066 4404769 4411162 4414107 4412668 
3990.373 4407748 4400484 4392585 4385824 4381038 4378762 4378728 4379565 
3994.231 4380670 4380737 4379666 4377155 4373775 4369591 4365039 4360354 
3998.088 4355534 4350280 4344724 4338433 4331572 4324444 
##END=
