
##TITLE=Z316_1_d
##JCAMP-DX=5.01  $$ Nicolet v. 1
##DATATYPE=INFRARED SPECTRUM
##ORIGIN=UniL
##OWNER=Nicolet
##LONGDATE=2011/09/09
##TIME=12:20:04
##SPECTROMETER/DATA SYSTEM=Nicolet iS5
##DATA PROCESSING=
Ratio against background
%Transmittance->Absorbance
Truncated
ElementMultiply or ElementDivide
##COMMENTS=
Number of sample scans: 32
Collection length: 51.20 sec
Sample gain: 2.0
Background collected on: Ven Sep 09 12:03:29 2011 (GMT+02:00);
Number of background scans: 32
Background gain: 2.0
Sample spacing:  1.000
Number of scan points: 12415
Resolution points: 8192
Number of FFT points: 65536
Apodization: N-B fort;
Phase correction: Mertz;
Laser frequency: 15798.0 cm-1
Number of rejected sample scans: 0
Number of rejected background scans: 0
Bench serial number: ASB1000141;
##RESOLUTION=4.000
##XUNITS=1/CM
##YUNITS=ABSORBANCE
##FIRSTX=649.893372
##LASTX=4000.122314
##FIRSTY=0.069844
##MAXX=4000.122314
##MINX=649.893372
##MAXY=0.250200
##MINY=-0.000738
##XFACTOR=1.000000
##YFACTOR=1.000000E-009
##NPOINTS=6950
##DELTAX=0.482117
##ZPD=6100
##XYDATA=(X++(Y..Y))
649.893 69843944 69713360 69639448 69641008 69712352 69826744 69949144 
653.268 70054208 70135128 70204720 70285072 70395208 70543928 70726496 
656.643 70930296 71143504 71360184 71577912 71793760 71999968 72180848 
660.018 72320616 72408496 72445880 72445528 72424976 72398480 72369080 
663.393 72326224 72248736 72111792 71893136 71572952 71136328 70576048 
666.767 69903832 69161208 68423144 67777336 67280168 66932752 66689408 
670.142 66487096 66263756 65973424 65593636 65123288 64582048 63998900 
673.517 63403540 62813236 62229896 61644932 61049808 60442932 59835040 
676.892 59244248 58687788 58174468 57702244 57258696 56829232 56404872 
680.267 55985676 55579536 55198868 54852860 54545140 54273008 54030012 
683.642 53809956 53610288 53430276 53268912 53122628 52983168 52839896 
687.016 52685524 52518084 52343944 52175624 52027352 51907320 51816928 
690.391 51748652 51690836 51633068 51569560 51500388 51429700 51361148 
693.766 51294396 51225608 51148140 51057236 50953200 50842108 50733016 
697.141 50635424 50555048 50491656 50441116 50396612 50352928 50306568 
700.516 50255416 50197096 50127064 50039012 49926108 49784884 49617368 
703.890 49431760 49240704 49056408 48887576 48737460 48602992 48478532 
707.265 48359112 48243016 48132392 48032012 47946420 47879636 47833988 
710.640 47813492 47826292 47885852 48009032 48211988 48499876 48859320 
714.015 49252432 49621344 49892956 49993652 49869132 49493024 48876896 
717.390 48067136 47143228 46206468 45358996 44704772 44330324 44291688 
720.765 44610508 45259112 46158416 47170892 48123952 48835108 49132904 
724.139 48908676 48134392 46875212 45269296 43501008 41760244 40189308 
727.514 38873880 37834808 37043916 36446008 35980912 35603328 35281312 
730.889 34996452 34738088 34495552 34258924 34022248 33784768 33552610 
734.264 33336244 33145558 32984730 32851480 32737956 32635212 32537710 
737.639 32443904 32354652 32271024 32189764 32104206 32006748 31892200 
741.013 31761706 31623092 31487978 31365480 31260106 31169852 31088586 
744.388 31010432 30933430 30860140 30796112 30744574 30704070 30668084 
747.763 30626908 30573046 30504296 30424576 30341566 30262764 30191400 
751.138 30126012 30062944 29999744 29938682 29885400 29846678 29825384 
754.513 29817684 29814490 29804872 29782230 29749018 29715344 29695334 
757.888 29699984 29733404 29790678 29862686 29941308 30025022 30119338 
761.262 30234842 30379656 30556266 30760686 30986874 31231764 31503334 
764.637 31819460 32209214 32706014 33341364 34143276 35131728 36314324 
768.012 37679860 39192048 40789912 42390280 43919576 45345056 46711768 
771.387 48154680 49883812 52134148 55060772 58659192 62683836 66677356 
774.762 69994880 71956600 72071184 70136104 66339688 61172808 55336260 
778.136 49534916 44308824 40014224 36767272 34503552 33045794 32186020 
781.511 31743168 31576556 31600322 31763882 32032826 32384892 32805450 
784.886 33291240 33850496 34500612 35260108 36142308 37153984 38299872 
788.261 39588800 41041596 42691988 44578856 46744088 49222112 52039264 
791.636 55220540 58794608 62796504 67267328 72236488 77704240 83615344 
795.010 89851896 96221040 102450632 108232144 113219728 117067824 119499336 
798.385 120328024 119514080 117176952 113596680 109170232 104321360 99481608 
801.760 94998624 91087800 87836160 85189512 82992200 81021560 79062008 
805.135 76955448 74631256 72126544 69563216 67114704 64938172 63140668 
808.510 61747208 60698608 59868008 59095860 58241000 57196852 55915080 
811.885 54400944 52697456 50864752 48959928 47035064 45132040 43284572 
815.259 41525972 39886464 38390392 37055640 35888516 34885780 34036872 
818.634 33330344 32755892 32307502 31982318 31778462 31693160 31723816 
822.009 31869520 32134354 32528460 33067998 33771696 34654608 35723580 
825.384 36972000 38378628 39901608 41480656 43039120 44477972 45692776 
828.759 46585008 47074356 47124836 46753500 46035868 45087852 44054836 
832.133 43089980 42318832 41835764 41686636 41863124 42303088 42895472 
835.508 43502548 43962248 44123232 43876060 43164516 42005960 40480760 
838.883 38721784 36875868 35075184 33425592 31985704 30774414 29782302 
842.258 28985096 28355204 27867376 27500772 27235434 27049944 26924318 
845.633 26840034 26785090 26755278 26753302 26784350 26852512 26958338 
849.008 27099316 27271984 27475570 27712414 27987090 28303602 28661930 
852.382 29057290 29481200 29925690 30386588 30865192 31367868 31903468 
855.757 32481216 33108976 33795404 34552380 35396332 36350096 37441416 
859.132 38697044 40144164 41806684 43705128 45858044 48277784 50962960 
862.507 53885232 56978736 60133664 63184848 65941452 68199976 69766856 
865.882 70503664 70335912 69269584 67387112 64839372 61825824 58550208 
869.256 55215760 51994744 49006888 46332048 44005036 42026728 40377112 
872.631 39025416 37940596 37092520 36455920 36009020 35729944 35598152 
876.006 35595596 35706740 35921700 36235548 36646012 37150192 37741948 
879.381 38409392 39136820 39906040 40699000 41501468 42302724 43095980 
882.756 43877416 44644840 45396624 46130664 46842844 47526764 48174300 
886.131 48777344 49332304 49844120 50331124 50821952 51353204 51962736 
889.505 52677260 53507924 54446124 55467440 56535056 57607988 58650092 
892.880 59627720 60511028 61274252 61888596 62325468 62559336 62568136 
896.255 62338928 61869224 61168004 60256296 59166136 57943368 56640892 
899.630 55316272 54028776 52826088 51743052 50798156 49992912 49317604 
903.005 48756216 48294932 47923852 47639304 47441052 47329928 47305580 
906.379 47365956 47509060 47735528 48049628 48458976 48971984 49594788 
909.754 50329488 51174272 52125032 53178200 54333156 55592412 56961056 
913.129 58445268 60052424 61793160 63682840 65745460 68014088 70525416 
916.504 73318800 76427008 79870392 83652376 87754432 92134040 96711584 
919.879 101368680 105950440 110254232 114065936 117191224 119484808 
922.771 120903608 121525336 121562200 121317440 121164256 121500264 
925.664 122659320 124899200 128352192 133002952 138674944 145027472 
928.557 151606064 157817248 163009904 166576384 167965408 166809696 
931.450 162980592 156604176 148055392 137888752 126797648 115465312 
934.342 104499776 94406264 85506176 77975128 71865768 67135312 63692084 
937.717 61424648 60228888 60002816 60636696 62003736 63922308 66152656 
941.092 68421904 70417504 71850952 72509112 72270056 71137768 69226216 
944.467 66743576 63935520 61041644 58274684 55776868 53626148 51844668 
947.841 50412388 49286760 48417076 47758936 47274436 46934164 46716308 
951.216 46602420 46576308 46625216 46738336 46907916 47128604 47395740 
954.591 47704460 48048556 48420412 48813012 49220700 49640100 50070656 
957.966 50512760 50966872 51432048 51906016 52386068 52870732 53360356 
961.341 53857440 54365416 54886392 55420496 55965320 56517132 57071984 
964.716 57628572 58187196 58749768 59317664 59891208 60469168 61049920 
968.090 61632940 62220488 62817260 63429268 64062028 64718984 65401196 
971.465 66108404 66840956 67601192 68393272 69222368 70092168 71003720 
974.840 71954960 72942184 73962296 75014424 76099944 77220808 78376904 
978.215 79564056 80773432 81991944 83205248 84400064 85563224 86683000 
981.590 87746936 88740848 89651248 90467128 91183360 91802728 92335512 
984.964 92796784 93201832 93564760 93897256 94208608 94509472 94812608 
988.339 95130512 95475736 95856384 96274432 96726784 97207528 97711768 
991.714 98237320 98785512 99359088 99959832 100586256 101233504 101895208 
995.089 102565928 103243488 103928288 104621136 105321672 106025504 
997.982 106726064 107415968 108090896 108751096 109401424 110048976 
1000.874 110700392 111360032 112030616 112714528 113417328 114147552 
1003.767 114916008 115732824 116604456 117531992 118512912 119544752 
1006.660 120628168 121769240 122977616 124263544 125633032 127086000 
1009.552 128615840 130212648 131867840 133574336 135327328 137121312 
1012.445 138946480 140788560 142633168 144469264 146296640 148128080 
1015.338 149988448 151906816 153909968 156018304 158242240 160584784 
1018.231 163045216 165620656 168306176 171091280 173959120 176886576 
1021.123 179849632 182833456 185838560 188884496 192003376 195234304 
1024.016 198608960 202143280 205836976 209675488 213636208 217689648 
1026.909 221800592 225922768 229988912 233916448 237608560 240961728 
1029.802 243886880 246311232 248180976 249462656 250136672 250199584 
1032.695 249667440 248584560 247024432 245076176 242838112 240391872 
1035.588 237784368 235026816 232096000 228950224 225540752 221830368 
1038.481 217799568 213449968 208806192 203917184 198860240 193730624 
1041.374 188637840 183691792 178973792 174529344 170355792 166408512 
1044.267 162612800 158887136 155169424 151425984 147660784 143908064 
1047.160 140224480 136673920 133313120 130192040 127343136 124782152 
1050.053 122508608 120506624 118747432 117191840 115799184 114531312 
1052.947 113356584 112254448 111211944 110220232 109271688 108355704 
1055.840 107458992 106568800 105673528 104765016 103838352 102889096 
1058.733 101911376 100898056 99841688 98737840 97588336 96402568 95195528 
1062.108 93985120 92788984 91621192 90491688 89408312 88377144 87403344 
1065.483 86490200 85636960 84836544 84075320 83336008 82600168 81853648 
1068.858 81090288 80312112 79528760 78753736 78003088 77292528 76636064 
1072.234 76047800 75539816 75122264 74802216 74581848 74458056 74422656 
1075.609 74463560 74566184 74711888 74879648 75042784 75168560 75224112 
1078.984 75177304 75005328 74701344 74276272 73759008 73188384 72611784 
1082.359 72075256 71619016 71280184 71090240 71075592 71261832 71670640 
1085.735 72320072 73225256 74396816 75840920 77557496 79535888 81747416 
1089.110 84134584 86613592 89065072 91345576 93316912 94853368 95873000 
1092.485 96352480 96329192 95895592 95176344 94322344 93480384 92775168 
1095.860 92310680 92153792 92336704 92859360 93691936 94778440 96036072 
1099.236 97368416 98663024 99796072 100652392 101124584 101129016 100621976 
1102.611 99601496 98111912 96230760 94063536 91724024 89314168 86926032 
1105.986 84628656 82467424 80470440 78648568 76999832 75512456 74167848 
1109.361 72943520 71814280 70757152 69751184 68778896 67826528 66883356 
1112.737 65940604 64992972 64038180 63078368 62119704 61172312 60248184 
1116.112 59358576 58513392 57719840 56982588 56305352 55691316 55143376 
1119.487 54664700 54257276 53921472 53655316 53454408 53311392 53214080 
1122.862 53145356 53080280 52984476 52819916 52545008 52123204 51532544 
1126.238 50768432 49847316 48801592 47676724 46521020 45376468 44277560 
1129.613 43246064 42291840 41415952 40612952 39873680 39186424 38539620 
1132.988 37922440 37326436 36746788 36183144 35639008 35119944 34632576 
1136.363 34182492 33773416 33407878 33088092 32816422 32596066 32430336 
1139.739 32320886 32267704 32268382 32319636 32417770 32561530 32751068 
1143.114 32988160 33273854 33607524 33985164 34400968 34847648 35317756 
1146.489 35804636 36301932 36802072 37296576 37775124 38227320 38645468 
1149.864 39024872 39365748 39671820 39949520 40205916 40447332 40679572 
1153.240 40907888 41137020 41371412 41614244 41866372 42126200 42389840 
1156.615 42652032 42907068 43150392 43377420 43583128 43761488 43904436 
1159.990 44002544 44047100 44030264 43946888 43794068 43570784 43276152 
1163.365 42909808 42472080 41964900 41392844 40764032 40088928 39378732 
1166.740 38644888 37897024 37143300 36391352 35648324 34921936 34220420 
1170.116 33551034 32919352 32329022 31781598 31277768 30818806 30407518 
1173.491 30048172 29746284 29506238 29331120 29222694 29181090 29207420 
1176.866 29304284 29476448 29730460 30073278 30511512 31051500 31698972 
1180.241 32460794 33345942 34364136 35526188 36842536 38321512 39970264 
1183.617 41795668 43803668 45999876 48386188 50957556 53696332 56569704 
1186.992 59531144 62515980 65448612 68249096 70827856 73097768 74979896 
1190.367 76404168 77324752 77724336 77617672 77048856 76085856 74813432 
1193.742 73314600 71668144 69940112 68174432 66397860 64619848 62837512 
1197.118 61042104 59226172 57388984 55540600 53701656 51899744 50167860 
1200.493 48536848 47030448 45665240 44447912 43377200 42446216 41644988 
1203.868 40961520 40381876 39890932 39470964 39101400 38762540 38435240 
1207.243 38103628 37757852 37393060 37008624 36607008 36192904 35772144 
1210.619 35352188 34942620 34554712 34200740 33893372 33644004 33462058 
1213.994 33356030 33333276 33401438 33568972 33843292 34230748 34734856 
1217.369 35355676 36091140 36938412 37896300 38966004 40151180 41456340 
1220.744 42885340 44441012 46124952 47940312 49892768 51991236 54247480 
1224.120 56673436 59277252 62062100 65023452 68148880 71415096 74788984 
1227.495 78222696 81649392 84990200 88150704 91027408 93525096 95555744 
1230.870 97050232 97968280 98299512 98072624 97353616 96254128 94920528 
1234.245 93514120 92215040 91191904 90588784 90532544 91118000 92413928 
1237.621 94471784 97322896 100980912 105436088 110652296 116556696 123031320 
1240.996 129927664 137052752 144176384 151059312 157435472 163038704 
1243.889 167637824 171037568 173116336 173838272 173250592 171472512 
1246.782 168667952 165043312 160813984 156190656 151379088 146542704 
1249.675 141792048 137173072 132657752 128155784 123532552 118655800 
1252.568 113419176 107775552 101751728 95445640 89011632 82619976 76449368 
1255.943 70652264 65331408 60547972 56313728 52602900 49363112 46529428 
1259.319 44036244 41819272 39825952 38015452 36356328 34828332 33417434 
1262.694 32112874 30905394 29784998 28741540 27765922 26851208 25994312 
1266.069 25194474 24452710 23769258 23142474 22568490 22042984 21562508 
1269.444 21125866 20734496 20390806 20096668 19852112 19654736 19500976 
1272.820 19387874 19313910 19279686 19286544 19335284 19424844 19552096 
1276.195 19712012 19898452 20104302 20320666 20536128 20737450 20909068 
1279.570 21037450 21113832 21136058 21108822 21040826 20941020 20814716 
1282.945 20661206 20475272 20250604 19983758 19677446 19341104 18989376 
1286.321 18639146 18305164 17999514 17730458 17503548 17322272 17188432 
1289.696 17101570 17057424 17048706 17065936 17099986 17144722 17198498 
1293.071 17263896 17345548 17447806 17572478 17719516 17887942 18077884 
1296.446 18291824 18534534 18811944 19127964 19484446 19881074 20316812 
1299.822 20791740 21307000 21863114 22457310 23079538 23712948 24332880 
1303.197 24911730 25425016 25852710 26183504 26414468 26550020 26600462 
1306.572 26580314 26509164 26408658 26301136 26208282 26145426 26120830 
1309.947 26135082 26182484 26254424 26342502 26440772 26545476 26653482 
1313.323 26760174 26859350 26942966 27003928 27037424 27041902 27018524 
1316.698 26969304 26895870 26798906 26679094 26539064 26384786 26225984 
1320.073 26072978 25934726 25815892 25717166 25635824 25570064 25521288 
1323.448 25496200 25505862 25562754 25679304 25865756 26129734 26477926 
1326.823 26915716 27445390 28062336 28751522 29485704 30223830 30919944 
1330.199 31531126 32022838 32378356 32597852 32697656 32702264 32641034 
1333.574 32543674 32436122 32341804 32281480 32271344 32324348 32448762 
1336.949 32648754 32926928 33286840 33734488 34279328 34931020 35695516 
1340.324 36572368 37553432 38623740 39762588 40945900 42145008 43321912 
1343.700 44433048 45428628 46257292 46879016 47268156 47418024 47338428 
1347.075 47049612 46575420 45935936 45147220 44222052 43172900 42017640 
1350.450 40781176 39494116 38193168 36914244 35688756 34544308 33501428 
1353.825 32574992 31776000 31109730 30575214 30164192 29862224 29651662 
1357.201 29514998 29440244 29420816 29454962 29542554 29682244 29869678 
1360.576 30100516 30372942 30692262 31070576 31525746 32074526 32726594 
1363.951 33483640 34340252 35288536 36320592 37428560 38599400 39805584 
1367.326 41003248 42127772 43097552 43832664 44261896 44334912 44031036 
1370.702 43355960 42341296 41036424 39511644 37853280 36153112 34511516 
1374.077 33017728 31734366 30693116 29891576 29305278 28902148 28659240 
1377.452 28570692 28650816 28929736 29449924 30263724 31425282 32988876 
1380.827 34997780 37463776 40342024 43505000 46752356 49803948 52345248 
1384.203 54093772 54807972 54343860 52679500 49939008 46391292 42397404 
1387.578 38365816 34631536 31401310 28752868 26654502 25017750 23735066 
1390.953 22712796 21877400 21176170 20577226 20061618 19620276 19251770 
1394.328 18958086 18740880 18599546 18529208 18522638 18572570 18671382 
1397.704 18811528 18984254 19176962 19374674 19563604 19732262 19875074 
1401.079 19991008 20081744 20149420 20196276 20225782 20243382 20258032 
1404.454 20281154 20321950 20385286 20469228 20566214 20667946 20769148 
1407.829 20871344 20982468 21113310 21273104 21465682 21688332 21934342 
1411.205 22196706 22472976 22765276 23079364 23419488 23785460 24171746 
1414.580 24570786 24976932 25391186 25822538 26286104 26799962 27378440 
1417.955 28029290 28749506 29525246 30335098 31154794 31961024 32734204 
1421.330 33459480 34130088 34749428 35336876 35927640 36571288 37317156 
1424.706 38202104 39244088 40442496 41788880 43277944 44912916 46699628 
1428.081 48634344 50693768 52825376 54953512 57000840 58902592 60624580 
1431.456 62167112 63559040 64847296 66084600 67330576 68650272 70120288 
1434.831 71837968 73909584 76429176 79447040 82933120 86786568 90877072 
1438.207 95087696 99329104 103517032 107554992 111292512 114524488 117036592 
1441.582 118615520 119105632 118438744 116628208 113762888 109979560 
1444.475 105459528 100398296 94982952 89403752 83832544 78432152 73372072 
1447.850 68803704 64841412 61537408 58870756 56764240 55116856 53844012 
1451.225 52893300 52249012 51917328 51905940 52206708 52797240 53646204 
1454.601 54729564 56043460 57594596 59385204 61384380 63514664 65667904 
1457.976 67746784 69699400 71515912 73210936 74805128 76316672 77757704 
1461.351 79133000 80442848 81674904 82798872 83771024 84535856 85046096 
1464.726 85283696 85270672 85061368 84716160 84285584 83797544 83259944 
1468.102 82669872 82018992 81292968 80466056 79496216 78326536 76898688 
1471.477 75185576 73222824 71126456 69058760 67175184 65572180 64271936 
1474.852 63249396 62467268 61904416 61566500 61479384 61669372 62152276 
1478.227 62923992 63968152 65266208 66810616 68610880 70691168 73081104 
1481.603 75803760 78870336 82279448 86026808 90116192 94568664 99418120 
1484.978 104693280 110397240 116468520 122747096 128984096 134819168 
1487.871 139816080 143536768 145569328 145630016 143642656 139778096 
1490.764 134430208 128098472 121289088 114384728 107606912 101064200 
1493.657 94770776 88709384 82889328 77360704 72227368 67627280 63684024 
1497.032 60467532 57975512 56154308 54922788 54201304 53929464 54060560 
1500.407 54556564 55381612 56491696 57834068 59351696 60970760 62604300 
1503.783 64149052 65455012 66328100 66531928 65822916 64057460 61291576 
1507.158 57795384 53925484 49974212 46098612 42342392 38702368 35177824 
1510.533 31784274 28568110 25588726 22891728 20504658 18425762 16630348 
1513.908 15082669 13744746 12581780 11560968 10654900 9843916 9117911 
1517.284 8478996 7934686 7490223 7139371 6861708 6623348 6389623 6135962 
1521.141 5863003 5597768 5378785 5231941 5156191 5127624 5112437 5083538 
1524.999 5028260 4953350 4878686 4826584 4808023 4817739 4838880 4853556 
1528.856 4853154 4840288 4826082 4821425 4829466 4842231 4843404 4816433 
1532.713 4755527 4672525 4594294 4547516 4545507 4581402 4635250 4682908 
1536.571 4705785 4695267 4651928 4582942 4496525 4398208 4289172 4171566 
1540.428 4055664 3960457 3905522 3900942 3940094 4002958 4063858 4102891 
1544.286 4112892 4102188 4088107 4088207 4110417 4149621 4191940 4222252 
1548.143 4232457 4224058 4208401 4198865 4204821 4224326 4246543 4256213 
1552.000 4242126 4201843 4142529 4077303 4018976 3974568 3942334 3913079 
1555.858 3875768 3821011 3742231 3636167 3502871 3350249 3197513 3072194 
1559.715 3000622 2994317 3046734 3139805 3250656 3357662 3442149 3493618 
1563.573 3511288 3505209 3492082 3488207 3502971 3534270 3571284 3600016 
1567.430 3611008 3602822 3583244 3565438 3562999 3583578 3627413 3689998 
1571.288 3766395 3854372 3952967 4060346 4171834 4278565 4370863 4442660 
1575.145 4497730 4552304 4630628 4755092 4934080 5161053 5422600 5707468 
1579.002 6012648 6343425 6710526 7125258 7594838 8119952 8695357 9312788 
1582.860 9963509 10636903 11317736 11984175 12604700 13143936 13570774 
1586.235 13864495 14022809 14062781 14020926 13944997 13889400 13911090 
1589.610 14059050 14374472 14885530 15602152 16510008 17563818 18691964 
1592.986 19793048 20750762 21458754 21825656 21798552 21371036 20584104 
1596.361 19517508 18269360 16947886 15646702 14436776 13369979 12474387 
1599.736 11760485 11225481 10857943 10642948 10566213 10618466 10794689 
1603.111 11091671 11504588 12022904 12629055 13300347 14007922 14718230 
1606.487 15395300 15995763 16473353 16785162 16893798 16777758 16434398 
1609.862 15881784 15155986 14306699 13394549 12476228 11598809 10794927 
1613.237 10076861 9442834 8880980 8376058 7913495 7484694 7090600 6740542 
1617.094 6448774 6227211 6080147 6002031 5980061 5996757 6033242 6073696 
1620.952 6106424 6127359 6140835 6157974 6191146 6249127 6332733 6435961 
1624.809 6550281 6668364 6787557 6908365 7032945 7161838 7293263 7423750 
1628.667 7550029 7671218 7789000 7906172 8023816 8139499 8247006 8336673 
1632.524 8398556 8423690 8406596 8345827 8245724 8117690 7977949 7845406 
1636.382 7735502 7655469 7603808 7572315 7549692 7523698 7483750 7423986 
1640.239 7343775 7249125 7148667 7051366 6961290 6876317 6788264 6686063 
1644.096 6559127 6401123 6212556 6001930 5785431 5582530 5411025 5283455 
1647.954 5204141 5169871 5172420 5200184 5238279 5267423 5266015 5209272 
1651.811 5078509 4874532 4632838 4415982 4277093 4231821 4259124 4325414 
1655.669 4401288 4468805 4520262 4553777 4570888 4573298 4562115 4536835 
1659.526 4496960 4442560 4374913 4296802 4212047 4124767 4039878 3962496 
1663.384 3898100 3850929 3822983 3812755 3814760 3820242 3819875 3803830 
1667.241 3765894 3704802 3625441 3537677 3453137 3381971 3329680 3296727 
1671.098 3280267 3275460 3276428 3275761 3264710 3234265 3177820 3095353 
1674.956 2997620 2903678 2832468 2795450 2790982 2807656 2829333 2842641 
1678.813 2841306 2827299 2809290 2797084 2796151 2803121 2805955 2786413 
1682.671 2727993 2624442 2488424 2350449 2246623 2198531 2203793 2243458 
1686.528 2295152 2342154 2374503 2388962 2386397 2370172 2344320 2313939 
1690.385 2285126 2264175 2256181 2263076 2281395 2302147 2311174 2293853 
1694.243 2239628 2149314 2038211 1934525 1866136 1844640 1862110 1895288 
1698.100 1918284 1907801 1851927 1756603 1648328 1564687 1532233 1555808 
1701.958 1618628 1697822 1771208 1824376 1849798 1846703 1821315 1784649 
1705.815 1750415 1728925 1725398 1738838 1764355 1795429 1826505 1855155 
1709.673 1881577 1908400 1938852 1975065 2016906 2062447 2108591 2152943 
1713.530 2194935 2235365 2275700 2315838 2352648 2380666 2394293 2391694 
1717.387 2378267 2366141 2369838 2398391 2452602 2525482 2606409 2684616 
1721.245 2752367 2806756 2848977 2882831 2913085 2943307 2974867 3007429 
1725.102 3040060 3071927 3102294 3130527 3154624 3171979 3179556 3176352 
1728.960 3163769 3146480 3129593 3116210 3104296 3085808 3047234 2973699 
1732.817 2855881 2697252 2519717 2356479 2239462 2181881 2176253 2202361 
1736.675 2238030 2266007 2274967 2261044 2227006 2181248 2134396 2095873 
1740.532 2071602 2061814 2064111 2074099 2087449 2101366 2114585 2127570 
1744.389 2142154 2161035 2186276 2218680 2257281 2299416 2341122 2378434 
1748.247 2408719 2429910 2442039 2445138 2440473 2430443 2418948 2411418 
1752.104 2412717 2425712 2449403 2478593 2504153 2515317 2503454 2463965 
1755.962 2399623 2319968 2238762 2168294 2114019 2073500 2038211 1997899 
1759.819 1943944 1872625 1786712 1694229 1606057 1531368 1476175 1441334 
1763.677 1424047 1419293 1421188 1423615 1420523 1407326 1382628 1348692 
1767.534 1312166 1281758 1264511 1261852 1269097 1276175 1272087 1249125 
1771.391 1206992 1155063 1109484 1085933 1091679 1124566 1175030 1231746 
1775.249 1286144 1334799 1378972 1421421 1464572 1508392 1550056 1586170 
1779.106 1613939 1633794 1648561 1662730 1679261 1698520 1717781 1732750 
1782.964 1740302 1740002 1734181 1727993 1726463 1733216 1748985 1772905 
1786.821 1802749 1836221 1871128 1904706 1932961 1950002 1949635 1926271 
1790.678 1877883 1807374 1723602 1638982 1564654 1507894 1469625 1446154 
1794.536 1431560 1421088 1411747 1402008 1391071 1377908 1360624 1337558 
1798.393 1307979 1272818 1234936 1197656 1164797 1138485 1119151 1105764 
1802.251 1097625 1094038 1095333 1101844 1113371 1128220 1144398 1159614 
1806.108 1172372 1182439 1190313 1197091 1202806 1206760 1207590 1204999 
1809.966 1199782 1194300 1192140 1196426 1208421 1227493 1250554 1274580 
1813.823 1297643 1318979 1339818 1362054 1387515 1416435 1448515 1482592 
1817.680 1517603 1553281 1589063 1624581 1658406 1688641 1713157 1730388 
1821.538 1739770 1741366 1736144 1724833 1708300 1687776 1665624 1645102 
1825.395 1629936 1622785 1623484 1628639 1632896 1630035 1616400 1592588 
1829.253 1565286 1544669 1540912 1560265 1601833 1659105 1722338 1783085 
1833.110 1836488 1881976 1921878 1960053 1999896 2043071 2090113 2141355 
1836.968 2198032 2262976 2340089 2432176 2540113 2661612 2792483 2926962 
1840.825 3059614 3185898 3302669 3408252 3503271 3591697 3680841 3779898 
1844.682 3898200 4040547 4205423 4384585 4566635 4738678 4890046 5015154 
1848.540 5113107 5187207 5241801 5279967 5301164 5302204 5278592 5227280 
1852.397 5148613 5046563 4927377 4797068 4660635 4520295 4377055 4232189 
1856.255 4087739 3947182 3813590 3688393 3570449 3456177 3341367 3223984 
1860.112 3104396 2985742 2872224 2767139 2670880 2582009 2498321 2418915 
1863.969 2345419 2281329 2229870 2192071 2165364 2144152 2121910 2094541 
1867.827 2062280 2030488 2006620 1997300 2004589 2026027 2055256 2086084 
1871.684 2114185 2137626 2156140 2170026 2178084 2178584 2169893 2151711 
1875.542 2125706 2095573 2064844 2035281 2006187 1974166 1935357 1887234 
1879.399 1829933 1766184 1699285 1632430 1566117 1499116 1429266 1355805 
1883.257 1280628 1207956 1142206 1086730 1041391 1003363 967829 931003 
1887.114 891590 851484 814767 785390 766469 759134 762685 776129 798701 
1891.454 830137 868881 912508 956306 995060 1025150 1046207 1061386 1076898 
1895.793 1098157 1128087 1165461 1205098 1241217 1270027 1290797 1306682 
1899.651 1321605 1338920 1359029 1379903 1398218 1411980 1421787 1431394 
1903.508 1444957 1465669 1494262 1527345 1560464 1588564 1608318 1619060 
1907.365 1621555 1617497 1607919 1593885 1576326 1556939 1538617 1523455 
1911.223 1513513 1508625 1507129 1506530 1505766 1504469 1503339 1502807 
1915.080 1501111 1493098 1472318 1432424 1371294 1292658 1206394 1125097 
1918.938 1058629 1010769 978323 953583 927848 895973 857360 816162 778054 
1923.277 747185 724715 708254 695111 683629 674635 670719 674270 684790 
1927.617 698364 709116 711904 704537 689436 671151 654625 641916 631131 
1931.957 617759 597287 568222 533222 497825 467142 443792 426876 411786 
1936.296 394507 373415 350964 331632 320027 316611 317142 314489 301326 
1940.636 274138 235149 191391 152078 124767 112040 112968 124303 143527 
1944.975 170673 206905 252156 303348 354214 396298 423261 433476 430591 
1949.315 421271 413179 409199 407640 403760 392119 370828 343139 315716 
1953.655 294595 282891 277917 272845 259782 233525 192750 141505 86554 33135 
1958.476 -15009 -55794 -89088 -113403 -125592 -123406 -106777 -79315 -48671 
1962.816 -22994 -7090 -927 331 3545 13055 28231 43175 49803 41817 19251 
1968.120 -13054 -47478 -79050 -106910 -135629 -170540 -214423 -264362 
1971.977 -311712 -345583 -358792 -350251 -325486 -292574 -255322 -210714 
1975.835 -150071 -63016 54243 195137 341945 473113 571573 630136 652899 
1980.174 650941 636971 620281 602795 583351 559696 530833 499849 471886 
1984.514 449695 434073 422863 413477 405915 404589 415633 444621 491821 
1988.854 550539 608601 655189 683396 695709 701417 713033 739451 782137 
1993.193 833590 882659 919979 942492 953782 962848 977991 1002566 1034582 
1997.533 1067265 1093307 1109318 1115331 1113470 1106262 1092642 1067896 
2001.390 1027143 967862 892785 810352 731652 664680 613213 574957 542942 
2005.730 511426 478885 448734 427241 419779 425516 438352 449861 452415 
2010.069 443327 426047 405949 388968 376300 366285 354745 340751 326559 
2014.409 318700 324238 347052 385188 431685 477823 517895 553027 589888 
2018.749 636241 697766 772278 850687 921208 974305 1005023 1016714 1016415 
2023.088 1011765 1007182 1003396 998514 991075 981943 973508 969456 970818 
2027.428 973142 970087 955310 925391 882891 836013 793854 764411 752031 
2031.767 756080 775133 809290 860182 930339 1020799 1126891 1238758 1345435 
2036.107 1436979 1510587 1569542 1622286 1677498 1739271 1806176 1871194 
2039.964 1927037 1968541 1995236 2011014 2020967 2027591 2031619 2030454 
2043.822 2022232 2008351 1994503 1987946 1996900 2025161 2072867 2135362 
2047.679 2205792 2278064 2346352 2405254 2449170 2471995 2469563 2441039 
2051.537 2391527 2332760 2278731 2243592 2235165 2252185 2284626 2318536 
2055.394 2341022 2345752 2334725 2315738 2299083 2291455 2295085 2306910 
2059.251 2322866 2339689 2356979 2376335 2399390 2424279 2446904 2460266 
2063.109 2459266 2443771 2419548 2395459 2380466 2379900 2392727 2413251 
2066.966 2434308 2450636 2461799 2471162 2483359 2501387 2524749 2549145 
2070.824 2569043 2579443 2578743 2568310 2550678 2527949 2500754 2468496 
2074.681 2430743 2389062 2347651 2311607 2285559 2270803 2265041 2262710 
2078.539 2259312 2251452 2240261 2229437 2223109 2224042 2231802 2242859 
2082.396 2253284 2260178 2263209 2264342 2266540 2271669 2279164 2286958 
2086.253 2292154 2292987 2289922 2284426 2277998 2271270 2262476 2249020 
2090.111 2229071 2202062 2170225 2137526 2107659 2083321 2064477 2050129 
2093.968 2038943 2030987 2027825 2031353 2042539 2059850 2078993 2094441 
2097.826 2102365 2101799 2095340 2088182 2084653 2087583 2096572 2108558 
2101.683 2120445 2130933 2141056 2154242 2173456 2200530 2235032 2274700 
2105.541 2317237 2360843 2406054 2454068 2505420 2559844 2615075 2668280 
2109.398 2718090 2765238 2812258 2862218 2916387 2973232 3028549 3077332 
2113.255 3115643 3143243 3163535 3181492 3202387 3228891 3260203 3293455 
2117.113 3324906 3352352 3375826 3397799 3420341 3445122 3471574 3497693 
2120.970 3521643 3542955 3562531 3582643 3605027 3629551 3654243 3675729 
2124.828 3691334 3699488 3701192 3698686 3693774 3687525 3678536 3665337 
2128.685 3645990 3620262 3589191 3554982 3519171 3482262 3443986 3404579 
2132.542 3365575 3331283 3307578 3298329 3304873 3322468 3342702 3356626 
2136.400 3357227 3343470 3320098 3295692 3277563 3270252 3273223 3281870 
2140.257 3290784 3296560 3298062 3296727 3294323 3289348 3278198 3255596 
2144.115 3216239 3158796 3085275 3000489 2910483 2819995 2731927 2648177 
2147.972 2570376 2500887 2442372 2395159 2356546 2318536 2272369 2209055 
2151.830 2124773 2022598 1910763 1798656 1692600 1592555 1492001 1384789 
2155.687 1269529 1155362 1061486 1012861 1030796 1122506 1278368 1472052 
2159.544 1673174 1853724 1997998 2103397 2175487 2222343 2252584 2271436 
2163.402 2282927 2291221 2302114 2318669 2343454 2373836 2403122 2423546 
2167.259 2428811 2415983 2386863 2345919 2297550 2244757 2188641 2128702 
2171.117 2065643 2002459 1943678 1894755 1859780 1838850 1829633 1828535 
2174.974 1831563 1837253 1845605 1855521 1864073 1865803 1854789 1827104 
2178.832 1785647 1738239 1697290 1674538 1676600 1701614 1741366 1782786 
2182.689 1815159 1834158 1841778 1843974 1848001 1857750 1872193 1887600 
2186.546 1900047 1907634 1911927 1916720 1925007 1938453 1955993 1975297 
2190.404 1994670 2015142 2038910 2068539 2104496 2143420 2179017 2205092 
2194.261 2216681 2214151 2201362 2185411 2171957 2164298 2161268 2159503 
2198.119 2155274 2147083 2136094 2126072 2120911 2122975 2133164 2150046 
2201.976 2171624 2196467 2223276 2250719 2276765 2299149 2314705 2322300 
2205.833 2322333 2317536 2311607 2307677 2305511 2303479 2297983 2286625 
2209.691 2270337 2254150 2244091 2246856 2265641 2298683 2340222 2383565 
2213.548 2422780 2455467 2482725 2506653 2529748 2552678 2573476 2590175 
2217.406 2601708 2608742 2613775 2620275 2629842 2642543 2656312 2668446 
2221.263 2677348 2683449 2688550 2694985 2703820 2714022 2722591 2727593 
2225.121 2727093 2721424 2712422 2702020 2691084 2679081 2664779 2647344 
2228.978 2628309 2610809 2599375 2597542 2605609 2620675 2637543 2650111 
2232.835 2654611 2650944 2642477 2634209 2630809 2635743 2649811 2672114 
2236.693 2701353 2735995 2774542 2815226 2855381 2891136 2919022 2936102 
2240.550 2942473 2940105 2933300 2926394 2922959 2924727 2931398 2942974 
2244.408 2959087 2979971 3006361 3037291 3069991 3100358 3123819 3137169 
2248.265 3139705 3133831 3123485 3113473 3107366 3106699 3112072 3123485 
2252.123 3141774 3168108 3203722 3247885 3297228 3345240 3384375 3408252 
2255.980 3413662 3400972 3374925 3341768 3306810 3274292 3245815 3221380 
2259.837 3200851 3184529 3173314 3168208 3170010 3177587 3189369 3203355 
2263.695 3217808 3231895 3246249 3261105 3277463 3295291 3314823 3336358 
2267.552 3360800 3388817 3420575 3454740 3488007 3516065 3534804 3541987 
2271.410 3537811 3525585 3509852 3495823 3487038 3484433 3487005 3492917 
2275.267 3499464 3505276 3509952 3513693 3517134 3521075 3526654 3534838 
2279.125 3546830 3563634 3585282 3610540 3637236 3662597 3684885 3703532 
2282.982 3719606 3735480 3753260 3773782 3796376 3818537 3837424 3850795 
2286.839 3857916 3859420 3857314 3853637 3849726 3846884 3845280 3845915 
2290.697 3849926 3858351 3871956 3889742 3909835 3929495 3945878 3958216 
2294.554 3966977 3974300 3982760 3993862 4007841 4023224 4037771 4049142 
2298.412 4056734 4060915 4062688 4063223 4062420 4059276 4052219 4040079 
2302.269 4022220 3999380 3972862 3943738 3912644 3879646 3844678 3808209 
2306.126 3771943 3737987 3708778 3685954 3669246 3656883 3646090 3633828 
2309.984 3617990 3598646 3576429 3553278 3531163 3511422 3495055 3482462 
2313.841 3473644 3468334 3465495 3463291 3459082 3450365 3434935 3411992 
2317.699 3382438 3348479 3313220 3279366 3248920 3223182 3202520 3186999 
2321.556 3176051 3168541 3161599 3151153 3132329 3100425 3053074 2991081 
2325.414 2918689 2842007 2767973 2702153 2646644 2600908 2562444 2528082 
2329.271 2496389 2467463 2443272 2426312 2417882 2417449 2423180 2432509 
2333.128 2443705 2455601 2468696 2483092 2498721 2514751 2529815 2542979 
2336.986 2554745 2566343 2579876 2596775 2617209 2639543 2661546 2681182 
2340.843 2697585 2711788 2726192 2743197 2765138 2793050 2828133 2872925 
2344.701 2931298 3008763 3109769 3235801 3383674 3544826 3706138 3853904 
2348.558 3975236 4059912 4102422 4102088 4063189 3993127 3902213 3801891 
2352.416 3701359 3607934 3525785 3456010 3398067 3350883 3313754 3286978 
2356.273 3271654 3269217 3280868 3307110 3347277 3399903 3463558 3536508 
2360.130 3617556 3705503 3799551 3897866 3999079 4100783 4201140 4299144 
2363.988 4394326 4486950 4577685 4666798 4754456 4840522 4924763 5007210 
2367.845 5087594 5165747 5240728 5311059 5375028 5431759 5481585 5526920 
2371.703 5571421 5620055 5677489 5747388 5832073 5932461 6048865 6181097 
2375.560 6329203 6492596 6670955 6862717 7066217 7279179 7499695 7726597 
2379.417 7959456 8198382 8443183 8692855 8945072 9196657 9443681 9682307 
2383.275 9909268 10121288 10316514 10492854 10648788 10783174 10895043 
2386.650 10984374 11051427 11097245 11123148 11130694 11121448 11097551 
2390.025 11060944 11013600 10957086 10892596 10820302 10739835 10651097 
2393.401 10554263 10450765 10343524 10236446 10133294 10037594 9951948 
2396.776 9877641 9815446 9766035 9730014 9708566 9702839 9712970 9738553 
2400.633 9778404 9830968 9895064 9970561 10058006 10158969 10274476 10405082 
2404.491 10550087 10708317 10878429 11059075 11249962 11450936 11662145 
2407.866 11883877 12115739 12357407 12608760 12869507 13139701 13418845 
2411.241 13705248 13996254 14288003 14575562 14853916 15118829 15365881 
2414.616 15591298 15791750 15963759 16104823 16213495 16289892 16336266 
2417.992 16355740 16353056 16332103 16296152 16247582 16187804 16117545 
2421.367 16038256 15951317 15858896 15763402 15667036 15572375 15481786 
2424.742 15397704 15322768 15259857 15211469 15180038 15167171 15174411 
2428.117 15203268 15254880 15330525 15430971 15556474 15706507 15879860 
2431.493 16074976 16290477 16525151 16778962 17051910 17343996 17654946 
2434.868 17984112 18330808 18694870 19076514 19476858 19897272 20338512 
2438.243 20801020 21284728 21789598 22315914 22865430 23440050 24042116 
2441.618 24673112 25333192 26021154 26735402 27474086 28236094 29020588 
2444.994 29827124 30653752 31497742 32354902 33220522 34090088 34960684 
2448.369 35830112 36697388 37561128 38418984 39268168 40105500 40927768 
2451.744 41732520 42517904 43281312 44019080 44726040 45394972 46017488 
2455.119 46585452 47090936 47526616 47886520 48164524 48354960 48453268 
2458.495 48455528 48359148 48163340 47868132 47474424 46983376 46396708 
2461.870 45717804 44951572 44105628 43189552 42214712 41193484 40138096 
2465.245 39061084 37975344 36892852 35826800 34789848 33793260 32846548 
2468.620 31956818 31128024 30362032 29659184 29019244 28441974 27926842 
2471.996 27473134 27077732 26736178 26441898 26186602 25962688 25763432 
2475.371 25582998 25417884 25265160 25122112 24986092 24854046 24723336 
2478.746 24591824 24458564 24323244 24185794 24046110 23903844 23758336 
2482.121 23609940 23459494 23309206 23161800 23020036 22885860 22760106 
2485.497 22642174 22531184 22426222 22326204 22231474 22141962 22057382 
2488.872 21976966 21899598 21823426 21747480 21671684 21596632 21523336 
2492.247 21452522 21384714 21318934 21254036 21187894 21118736 21045414 
2495.622 20966404 20880628 20787396 20685600 20574620 20454258 20324762 
2498.998 20187356 20044060 19897028 19748178 19599478 19451492 19304798 
2502.373 19159198 19014094 18869350 18725070 18582186 18442322 18307548 
2505.748 18179970 18061166 17951616 17850310 17754896 17662538 17570234 
2509.123 17475332 17376688 17274102 17167578 17057906 16945440 16830314 
2512.499 16712604 16592067 16468810 16343491 16216246 16087251 15956920 
2515.874 15825458 15694004 15564407 15439520 15321841 15213975 15117216 
2519.249 15031456 14955520 14887964 14827516 14773761 14727313 14689096 
2522.624 14659690 14639025 14626242 14619320 14617092 14618463 14623158 
2526.000 14631245 14642795 14657223 14673022 14688479 14702017 14712951 
2529.375 14721486 14728718 14735711 14743423 14751856 14760425 14768104 
2532.750 14773863 14777840 14780857 14783908 14788845 14797243 14810271 
2536.125 14828750 14852956 14882684 14917214 14955314 14995784 15037630 
2539.500 15080646 15125176 15172523 15223927 15279865 15339827 15402029 
2542.876 15463863 15523197 15578557 15629802 15678510 15726984 15776906 
2546.251 15829479 15884671 15941141 15997587 16052937 16106404 16157849 
2549.626 16207201 16254392 16299007 16340774 16379377 16414989 16448403 
2553.001 16480442 16511763 16543016 16573753 16603600 16631726 16657375 
2556.377 16679928 16698416 16711846 16719008 16719008 16710881 16694594 
2559.752 16670149 16638061 16598057 16550105 16492970 16426105 16349340 
2563.127 16263852 16171914 16076386 15980534 15886389 15795426 15708020 
2566.502 15624168 15544317 15469768 15402304 15344187 15297267 15261950 
2569.878 15237756 15223274 15217132 15218196 15226225 15241188 15263186 
2573.253 15291465 15324931 15361452 15399798 15438901 15478283 15519008 
2576.628 15562071 15608781 15659822 15715577 15775565 15839651 15907114 
2580.003 15977304 16050015 16124938 16202075 16281772 16364546 16451329 
2583.379 16542602 16638679 16739050 16842748 16948402 17054770 17161510 
2586.754 17268102 17374826 17481644 17588108 17693528 17796662 17896540 
2590.129 17992642 18084792 18173820 18260168 18344254 18426142 18505488 
2593.504 18582634 18657686 18731574 18805196 18879212 18953794 19028702 
2596.880 19103796 19179352 19256480 19337536 19425190 19521770 19628666 
2600.255 19745578 19870980 20002560 20138104 20276328 20417374 20562288 
2603.630 20712532 20869258 21033070 21203828 21380678 21562612 21748524 
2607.005 21938174 22130944 22327042 22525982 22727322 22930360 23133458 
2610.381 23334660 23531652 23721768 23902410 24071360 24226748 24366804 
2613.756 24490640 24597120 24685632 24755782 24807454 24841800 24860184 
2617.131 24864782 24858010 24841976 24818364 24788440 24753360 24714320 
2620.506 24672866 24630608 24588808 24548346 24509150 24470448 24431680 
2623.882 24392738 24354748 24319950 24291462 24271910 24263116 24265462 
2627.257 24277726 24297874 24324050 24354854 24390322 24430804 24477388 
2630.632 24530922 24591860 24659678 24734034 24814294 24899728 24989566 
2634.007 25083250 25180148 25279244 25379804 25481618 25584404 25688830 
2637.383 25795112 25903458 26013380 26124594 26236440 26348698 26461304 
2640.758 26574784 26689314 26805038 26921392 27037918 27153842 27268702 
2644.133 27382992 27497278 27612584 27729894 27849466 27971718 28096552 
2647.508 28223896 28354036 28487576 28624980 28766604 28912632 29062640 
2650.884 29216670 29374866 29537730 29706262 29881496 30064258 30254664 
2654.259 30453114 30659334 30873340 31094958 31324204 31560946 31804166 
2657.634 32053370 32307002 32564278 32824964 33089272 33357962 33631728 
2661.009 33910784 34194716 34482208 34772116 35063224 35354740 35646560 
2664.385 35938652 36230864 36523096 36815092 37106812 37398692 37691528 
2667.760 37986772 38285796 38589368 38898124 39211916 39530224 39852720 
2671.135 40179164 40509528 40843820 41181572 41521852 41863232 42204300 
2674.510 42543412 42879488 43211584 43538844 43860188 44174732 44481384 
2677.885 44780068 45071976 45358888 45644480 45932840 46228104 46533892 
2681.261 46853584 47189324 47543292 47917080 48312668 48731564 49174944 
2684.636 49643552 50137588 50656308 51198612 51763060 52347568 52950300 
2688.011 53569356 54203144 54850264 55510100 56182472 56867412 57565352 
2691.386 58276388 59000808 59738684 60490344 61256508 62037868 62835024 
2694.762 63647808 64475528 65316348 66168248 67029708 67899664 68778080 
2698.137 69665672 70563024 71470488 72387712 73313384 74246312 75185416 
2701.512 76129720 77077976 78028864 78979696 79926552 80864864 81788968 
2704.887 82693352 83573248 84423160 85238056 86012232 86739760 87414208 
2708.263 88030168 88583488 89070928 89490960 89842568 90125208 90338480 
2711.638 90482632 90558496 90567888 90513120 90396248 90218920 89981624 
2715.013 89683512 89323648 88901136 88416288 87871008 87268232 86611728 
2718.388 85905896 85155368 84365136 83541272 82690672 81821248 80942024 
2721.764 80061640 79188512 78330664 77495112 76688400 75917152 75186712 
2725.139 74501992 73866880 73283848 72754248 72278672 71857208 71489784 
2728.514 71176488 70916672 70709144 70551608 70441112 70374640 70349080 
2731.889 70362680 70414496 70503896 70630624 70793144 70989240 71215840 
2735.265 71469232 71746304 72043848 72359296 72689968 73032296 73381720 
2738.640 73733552 74082408 74423760 74754240 75071456 75373936 75660960 
2742.015 75931792 76186384 76424952 76649064 76861192 77064840 77263672 
2745.390 77461216 77660144 77862064 78068168 78278528 78493400 78712624 
2748.766 78935304 79160480 79386096 79610424 79831568 80048728 80262480 
2752.141 80474344 80687120 80904344 81129224 81365656 81617040 81886336 
2755.516 82175784 82486736 82819000 83171216 83539904 83920968 84309440 
2758.891 84699968 85087448 85466728 85831960 86177216 86495984 86781800 
2762.267 87028808 87232504 87389080 87496144 87552288 87555896 87506560 
2765.642 87403952 87249232 87044808 86794624 86504472 86181056 85831760 
2769.017 85464264 85085712 84703232 84322648 83949472 83587896 83241200 
2772.392 82911824 82601376 82311008 82041440 81793288 81566184 81359216 
2775.768 81170048 80995448 80830496 80669840 80507328 80336112 80148816 
2779.143 79938184 79696080 79415960 79092536 78723264 78309120 77854096 
2782.518 77365656 76852136 76322232 75783992 75243256 74704336 74170400 
2785.893 73643144 73124040 72614256 72113984 71623672 71142928 70671368 
2789.269 70208608 69754480 69309192 68873280 68447584 68032608 67628792 
2792.644 67236768 66856572 66488640 66132784 65789216 65457396 65136304 
2796.019 64824484 64519928 64220884 63925692 63632464 63340276 63047640 
2799.394 62753432 62456212 62154764 61847864 61534468 61213972 60885552 
2802.770 60548848 60203348 59848540 59484404 59110932 58729472 58341640 
2806.145 57950144 57557444 57166388 56779572 56398908 56026272 55663744 
2809.520 55312696 54975060 54652152 54345516 54055756 53782876 53526400 
2812.895 53285284 53058336 52844424 52642732 52452948 52275356 52110612 
2816.271 51960124 51825812 51710656 51617092 51549036 51509860 51502924 
2819.646 51531016 51595936 51698636 51839216 52016556 52229128 52474632 
2823.021 52750356 53053472 53380480 53727040 54088740 54459720 54833496 
2826.396 55203120 55561420 55901060 56215548 56498300 56744268 56948512 
2829.771 57106864 57216432 57275368 57283420 57241644 57152972 57021352 
2833.147 56851212 56647652 56415700 56159960 55885384 55596484 55297268 
2836.522 54991304 54681272 54368608 54054140 53738064 53419896 53099488 
2839.897 52776624 52451380 52123576 51792960 51458944 51120780 50777932 
2843.272 50430400 50079092 49725288 49371320 49019608 48672964 48334184 
2846.648 48006000 47690924 47391492 47110028 46848452 46608320 46390368 
2850.023 46195192 46022460 45871376 45741072 45630420 45538200 45463324 
2853.398 45404684 45361204 45332256 45317032 45314896 45324940 45345720 
2856.773 45375328 45411048 45449636 45487348 45519984 45543720 45554244 
2860.149 45547912 45521124 45470864 45394824 45291284 45160016 45001440 
2863.524 44817248 44610616 44385260 44145568 43896848 43645188 43395944 
2866.899 43155336 42928648 42720428 42534676 42374788 42243084 42141388 
2870.274 42070312 42029576 42017128 42029536 42062828 42112036 42172940 
2873.650 42242500 42319380 42403760 42496856 42600424 42715348 42841820 
2877.025 42978944 43125140 43278532 43437652 43601296 43768852 43940140 
2880.400 44114832 44292716 44473640 44657472 44844100 45033564 45225276 
2883.775 45418624 45612352 45804616 45993840 46178348 46357264 46529572 
2887.151 46695312 46853844 47004828 47147812 47282492 47408564 47526396 
2890.526 47636496 47739816 47837280 47929584 48017912 48103076 48185852 
2893.901 48267452 48348888 48431116 48514768 48600324 48687864 48777680 
2897.276 48869852 48964752 49062640 49163592 49266904 49371764 49476872 
2900.652 49580412 49680816 49776040 49864040 49942464 50009156 50061728 
2904.027 50098764 50119180 50123308 50111852 50086420 50048120 49997856 
2907.402 49936220 49863556 49780796 49689396 49591700 49490500 49388584 
2910.777 49287432 49188304 49090720 48993756 48896404 48797736 48697608 
2914.153 48596212 48493980 48391112 48287632 48183108 48077464 47970324 
2917.528 47862212 47753464 47645552 47539740 47437948 47342232 47255336 
2920.903 47179720 47118152 47072580 47044040 47031892 47034476 47048064 
2924.278 47067780 47088420 47103932 47108812 47098356 47068780 47017524 
2927.654 46944168 46849748 46737632 46612232 46479788 46347196 46221724 
2931.029 46111284 46023012 45964184 45941536 45960944 46027320 46145148 
2934.404 46316972 46544660 46828376 47166796 47556748 47993196 48470160 
2937.779 48979772 49514080 50065820 50628164 51196080 51766124 52335568 
2941.155 52902020 53462540 54012304 54544504 55049976 55516464 55930420 
2944.530 56277024 56541664 56712436 56781876 56748420 56617036 56400152 
2947.905 56115584 55783460 55425768 55062536 54709160 54377204 54072868 
2951.280 53797504 53549116 53323196 53114580 52918076 52729704 52546876 
2954.656 52368836 52195500 52027352 51864084 51705092 51548740 51393484 
2958.031 51238020 51081980 50926188 50772044 50620792 50473684 50330752 
2961.406 50191812 50056712 49925736 49799936 49681632 49572652 49475016 
2964.781 49390216 49318532 49260224 49215540 49184964 49169084 49168416 
2968.156 49182180 49208008 49242260 49279340 49313372 49338804 49351348 
2971.532 49348268 49328556 49293296 49245044 49187896 49127820 49071320 
2974.907 49024356 48991492 48973540 48966568 48960596 48941312 48891176 
2978.282 48790468 48622748 48375296 48041708 47622592 47125612 46564832 
2981.657 45957372 45323652 44684136 44056816 43457720 42898288 42385824 
2985.033 41924024 41514160 41156184 40849900 40595304 40392604 40240228 
2988.408 40132860 40060148 40003252 39937824 39834380 39661400 39392704 
2991.783 39010480 38509744 37899444 37201880 36449216 35675120 34912960 
2995.158 34188804 33518176 32907054 32352868 31847664 31380974 30942716 
2998.534 30525268 30123526 29734434 29356572 28989382 28632306 28284858 
3001.909 27946242 27616078 27293646 26978682 26670780 26369928 26076072 
3005.284 25789344 25510254 25239632 24978160 24726808 24486188 24256844 
3008.659 24038582 23830928 23632610 23442218 23257852 23077548 22899866 
3012.035 22724076 22550238 22379332 22213200 22053686 21902838 21761970 
3015.410 21631700 21511916 21402048 21300908 21207238 21119570 21036234 
3018.785 20955486 20875412 20794416 20711038 20624200 20532828 20436580 
3022.160 20334624 20226128 20110896 19989100 19861928 19731774 19602010 
3025.536 19476858 19360124 19254748 19162174 19082364 19013158 18951302 
3028.911 18892814 18833326 18768278 18693624 18606082 18503000 18383450 
3032.286 18247624 18097400 17935592 17765974 17592352 17418486 17247760 
3035.661 17082892 16925836 16778136 16640402 16512968 16395308 16287105 
3039.037 16187562 16096191 16012402 15936090 15866594 15803225 15744884 
3042.412 15690122 15637530 15586216 15535423 15485254 15435880 15387164 
3045.787 15338729 15289441 15238271 15184465 15127852 15069325 15010224 
3049.162 14952468 14897360 14845310 14795563 14746234 14694819 14638511 
3052.538 14575047 14502583 14420540 14329335 14230513 14126717 14020858 
3055.913 13916462 13816229 13721663 13633510 13551460 13474518 13401793 
3059.288 13332941 13267960 13207293 13150800 13098106 13047979 12998642 
3062.663 12948937 12898212 12847085 12796986 12749726 12706701 12668525 
3066.039 12635060 12605076 12577584 12551561 12526528 12501974 12477729 
3069.414 12452836 12426343 12397090 12364532 12328908 12291310 12253818 
3072.789 12218238 12186205 12158092 12133457 12111207 12089846 12068280 
3076.164 12045966 12022632 11998345 11973650 11948583 11922972 11896783 
3079.540 11869302 11839950 11808251 11773831 11736622 11697203 11656155 
3082.915 11614430 11573014 11532250 11492135 11452093 11411577 11370284 
3086.290 11328620 11287537 11248500 11212866 11181689 11155137 11132802 
3089.665 11113630 11096701 11081439 11067367 11054350 11042114 11030457 
3093.041 11019105 11007653 10996370 10985631 10976320 10969183 10964426 
3096.416 10961572 10959907 10958208 10955965 10953145 10950392 10948897 
3099.791 10949780 10953519 10960077 10968470 10977543 10986277 10993583 
3103.166 10999191 11002997 11004968 11005614 11005274 11004424 11003813 
3106.542 11004118 11005715 11008774 11012887 11017542 11022198 11026820 
3109.917 11031578 11037084 11044119 11053161 11064002 11076171 11088951 
3113.292 11101766 11114343 11126615 11138751 11150751 11162140 11172373 
3116.667 11180635 11186482 11190155 11192160 11193418 11194744 11196308 
3120.042 11197974 11199300 11199810 11199572 11198858 11198654 11199708 
3123.418 11202564 11207324 11213308 11219938 11226195 11231601 11236021 
3126.793 11239251 11241529 11242890 11243366 11243195 11242822 11243026 
3130.168 11244521 11248399 11255199 11265298 11278628 11294612 11312908 
3133.543 11332497 11352631 11372801 11392392 11410863 11427973 11443825 
3136.919 11458454 11472266 11485739 11499042 11512447 11526261 11540688 
3140.294 11556000 11572776 11591084 11611060 11632432 11654657 11677053 
3143.669 11699245 11720997 11742545 11764230 11786359 11809443 11833651 
3147.044 11858814 11885580 11914049 11944667 11977874 12013843 12051962 
3150.420 12091447 12131072 12169780 12206890 12242435 12276722 12310501 
3153.795 12344317 12378646 12413898 12450279 12488095 12528199 12571001 
3157.170 12616980 12666035 12717789 12771359 12825482 12879508 12932722 
3160.545 12985157 13037496 13090389 13144721 13201691 13261879 13326040 
3163.921 13394583 13466964 13542470 13619082 13695023 13768311 13837608 
3167.296 13902640 13963917 14022706 14080270 14137466 14194360 14249995 
3170.671 14303274 14352588 14396495 14434447 14466099 14491792 14512004 
3174.046 14527662 14539276 14548219 14555243 14561273 14566858 14572238 
3177.422 14577343 14582106 14586252 14590021 14593414 14597251 14601843 
3180.797 14607737 14615105 14624049 14634638 14646941 14661198 14677957 
3184.172 14697391 14720012 14745926 14775029 14806946 14840921 14875997 
3187.547 14911625 14946638 14980796 15013997 15047131 15081367 15118040 
3190.923 15158319 15202891 15251277 15302414 15354999 15407797 15460257 
3194.298 15512381 15564820 15618536 15673598 15730144 15787659 15845081 
3197.673 15901959 15958123 16013468 16068615 16123597 16178517 16233340 
3201.048 16287930 16342459 16397405 16453840 16512383 16573651 16637338 
3204.424 16702412 16767839 16832312 16894970 16955708 17015212 17074276 
3207.799 17134142 17195738 17259484 17325582 17393518 17462430 17531010 
3211.174 17597978 17662194 17723314 17781716 17838606 17895746 17954724 
3214.549 18016508 18081372 18148564 18216628 18284636 18351824 18418226 
3217.925 18484812 18552308 18621230 18691686 18763090 18834780 18906310 
3221.300 18977678 19049196 19121662 19195386 19270542 19346784 19423320 
3224.675 19499938 19576186 19652172 19727996 19803696 19879098 19953746 
3228.050 20027682 20100450 20172362 20243764 20314762 20385078 20454084 
3231.426 20521156 20585494 20647410 20707562 20767132 20827578 20889702 
3234.801 20953712 21019052 21084684 21149486 21212874 21275052 21336406 
3238.176 21398220 21461574 21527444 21596806 21669768 21746574 21826668 
3241.551 21908972 21992302 22075230 22156082 22234404 22309496 22381774 
3244.927 22451936 22520784 22589012 22657184 22726484 22797888 22872694 
3248.302 22952366 23037854 23128916 23224470 23322072 23419418 23514268 
3251.677 23605638 23694228 23781332 23868802 23957972 24049472 24142460 
3255.052 24235926 24328290 24418852 24507572 24594910 24681950 24770024 
3258.427 24859764 24952226 25047374 25144930 25243916 25342992 25440474 
3261.803 25534430 25623908 25708482 25789204 25868008 25947142 26028752 
3265.178 26113862 26202404 26293392 26385420 26477116 26567666 26656758 
3268.553 26744424 26830766 26915786 26999484 27081894 27163366 27245066 
3271.928 27327732 27412744 27500880 27592104 27686032 27781464 27877270 
3275.304 27972356 28065128 28155270 28241542 28324078 28403344 28480890 
3278.679 28559016 28640482 28727628 28821696 28922370 29027746 29135166 
3282.054 29241796 29345406 29445458 29542306 29637578 29732730 29829394 
3285.429 29928456 30030456 30135460 30243970 30355636 30470352 30587408 
3288.805 30705776 30824212 30941648 31057552 31172238 31286600 31401880 
3292.180 31519298 31639914 31763810 31891414 32022372 32156832 32294366 
3295.555 32434874 32577530 32721308 32865312 33008180 33149422 33289236 
3298.930 33428096 33566860 33706308 33847164 33990108 34135500 34284060 
3302.306 34436764 34594612 34758368 34928756 35105860 35289292 35478620 
3305.681 35672892 35871456 36073572 36278552 36485756 36694972 36905804 
3309.056 37118576 37334128 37553252 37777332 38007060 38243132 38485524 
3312.431 38734212 38988656 39248476 39513312 39782668 40056188 40333516 
3315.807 40614260 40898568 41186640 41479232 41776952 42080276 42389512 
3319.182 42704416 43024852 43350508 43681312 44017028 44356932 44699964 
3322.557 45043964 45387024 45726900 46063060 46395788 46726524 47057404 
3325.932 47389532 47722952 48055960 48386036 48709992 49026172 49333712 
3329.308 49633488 49927408 50216992 50503380 50786196 51064240 51335344 
3332.683 51597396 51848140 52085996 52309888 52518980 52713284 52892776 
3336.058 53058300 53210596 53349940 53476516 53589636 53688156 53770804 
3339.433 53836396 53884108 53914008 53926008 53920084 53895736 53852636 
3342.809 53790452 53708780 53608412 53490008 53353764 53199548 53026216 
3346.184 52831924 52614832 52374404 52111360 51828316 51528444 51215244 
3349.559 50891536 50558620 50216400 49864300 49500972 49125784 48738904 
3352.934 48340628 47932248 47515156 47091120 46662180 46230644 45798984 
3356.310 45369700 44944480 44524376 44109812 43700548 43296324 42897044 
3359.685 42503104 42114960 41733432 41358732 40990612 40628592 40271748 
3363.060 39919552 39571780 39228892 38891528 38560040 38235028 37916800 
3366.435 37605388 37301128 37004296 36715312 36434444 36161900 35897048 
3369.811 35639152 35387340 35140996 34899784 34663472 34432384 34206584 
3373.186 33986060 33770084 33558016 33349198 33142730 32938402 32735884 
3376.561 32535568 32338090 32144058 31954248 31769476 31589598 31414420 
3379.936 31243124 31074066 30905786 30737108 30567144 30395506 30222480 
3383.312 30048990 29875604 29703458 29533474 29366428 29203414 29044996 
3386.687 28891666 28742992 28597870 28454710 28311312 28166016 28017872 
3390.062 27866778 27712978 27557964 27402792 27248416 27095822 26945612 
3393.437 26798588 26655102 26515538 26379574 26246540 26115270 25984252 
3396.813 25852992 25721594 25591220 25463346 25339444 25219930 25104594 
3400.188 24991530 24878816 24764902 24648808 24530360 24410440 24289358 
3403.563 24167438 24044078 23918934 23791692 23662840 23533680 23405990 
3406.938 23281482 23160858 23044388 22931164 22819854 22709342 22599170 
3410.313 22489064 22379262 22269768 22160476 22050968 21940754 21829350 
3413.689 21716686 21603250 21489494 21375874 21262840 21150878 21040060 
3417.064 20930904 20823406 20717362 20612492 20507818 20402336 20295562 
3420.439 20187806 20080218 19974770 19873650 19778138 19688678 19603846 
3423.814 19521908 19440472 19357318 19271304 19182156 19089774 18994674 
3427.190 18897276 18798032 18697672 18597264 18498090 18401150 18307790 
3430.565 18217666 18129910 18043240 17956450 17868572 17780162 17691838 
3433.940 17604842 17519728 17435838 17352340 17268172 17182330 17095024 
3437.315 17007458 16921220 16838100 16758645 16682545 16608041 16532930 
3440.691 16455321 16374456 16290305 16204448 16118988 16035678 15955647 
3444.066 15879137 15804909 15730625 15654704 15575260 15492259 15406836 
3447.441 15321430 15239369 15163019 15093819 15031010 14972736 14915328 
3450.816 14855425 14790799 14720663 14646221 14569599 14493368 14419238 
3454.192 14348067 14279031 14210861 14142600 14073459 14003508 13933740 
3457.567 13864871 13797348 13730930 13664214 13595901 13524524 13449261 
3460.942 13370424 13289209 13207396 13127270 13050642 12978739 12911798 
3464.317 12849405 12790161 12732359 12674461 12615718 12555415 12493892 
3467.693 12431764 12369509 12307297 12244753 12181331 12116489 12049612 
3471.068 11981008 11911120 11840598 11770256 11700641 11631820 11563894 
3474.443 11497000 11431308 11366814 11303998 11243127 11183932 11126071 
3477.818 11069067 11012071 10954130 10894192 10830867 10763202 10690658 
3481.194 10613610 10533724 10453446 10375931 10303757 10237972 10178202 
3484.569 10122577 10068146 10012331 9953474 9891335 9827342 9763358 9701145 
3488.426 9641787 9585045 9529869 9475004 9419469 9362486 9304122 9244886 
3492.284 9185116 9125423 9066516 9009037 8953596 8901373 8852912 8808074 
3496.141 8766588 8727066 8688292 8649216 8609131 8567832 8524915 8480145 
3499.999 8432846 8381868 8326540 8266593 8202771 8136629 8070633 8007075 
3503.856 7948184 7895172 7848105 7806339 7768288 7731926 7695062 7655907 
3507.713 7612575 7565100 7514292 7462311 7411853 7365613 7324938 7289860 
3511.571 7258424 7228068 7195828 7160086 7120408 7077701 7033551 6989506 
3515.428 6946510 6904696 6863593 6823133 6783586 6745860 6711131 6679972 
3519.286 6651878 6625265 6597846 6567066 6531141 6489670 6443595 6394499 
3523.143 6344501 6295248 6247782 6202204 6158277 6115598 6073931 6033209 
3527.000 5993431 5955034 5917480 5880904 5844633 5808566 5772839 5737718 
3530.858 5703943 5672084 5643014 5616698 5592767 5570078 5546821 5521249 
3534.715 5491685 5457661 5419681 5379188 5338229 5298816 5261890 5227481 
3538.573 5194953 5163064 5130709 5097786 5064463 5031880 5000104 4969269 
3542.430 4938503 4906399 4871315 4832146 4788659 4741525 4692018 4641780 
3546.288 4592820 4546880 4505397 4469374 4439112 4413973 4392117 4370763 
3550.145 4347268 4319089 4285257 4246409 4205021 4164206 4126907 4094897 
3554.002 4068173 4045731 4025264 4005065 3983362 3959387 3932437 3901978 
3557.860 3867644 3829502 3787652 3743735 3700056 3659255 3623737 3595271 
3561.717 3574257 3559491 3549369 3541218 3532199 3519138 3498228 3465962 
3565.575 3419039 3356393 3280034 3195978 3113140 3040627 2985609 2950580 
3569.432 2933600 2928963 2929263 2928062 2920457 2904479 2880163 2849311 
3573.290 2814559 2777343 2738996 2699919 2660479 2621209 2582876 2545712 
3577.147 2510385 2476627 2444071 2412118 2381099 2351449 2324232 2300348 
3581.004 2280696 2265641 2255016 2248421 2245224 2244224 2243792 2241027 
3584.862 2232168 2212552 2178151 2126771 2059883 1982454 1903374 1832661 
3588.719 1778128 1743429 1728060 1727162 1733715 1740202 1740634 1730887 
3592.577 1709697 1678496 1640579 1600436 1562193 1528575 1500978 1478336 
3596.434 1458621 1439771 1419825 1397919 1374717 1351384 1329880 1312033 
3600.292 1298640 1289866 1285081 1283120 1282921 1283718 1285347 1287906 
3604.149 1291495 1295649 1298573 1297709 1289966 1271423 1240087 1195729 
3608.006 1140512 1079555 1019404 965338 920776 885647 857659 832893 807862 
3612.346 781174 753790 729163 710776 701550 702014 709548 719438 725877 
3616.686 723520 708320 678850 636706 586304 534648 488040 452880 432316 
3621.025 426744 434206 451221 473942 499252 525193 551004 576683 601932 
3625.365 623997 638166 637071 611587 554553 464058 348444 226198 120657 
3629.704 52620 30616 50399 98087 158343 216916 264026 295258 311041 315119 
3634.526 312898 309051 306299 305338 305371 305006 303448 300563 295921 
3638.866 289787 281863 271419 258588 244133 229812 219038 214529 219038 
3643.205 233160 255306 282294 309184 329875 338960 331831 305072 258025 
3647.545 192054 111278 21869 -67919 -148083 -209257 -242539 -242837 -209985 
3651.885 -149077 -70105 15076 93050 151150 180684 177071 142466 86554 23857 
3656.706 -30846 -67091 -80972 -75837 -58146 -35717 -14015 3445 15606 22962 
3661.528 26242 26806 25248 22432 19814 18754 20642 25812 33367 40591 43639 
3666.832 37708 18257 -18687 -74445 -146891 -229227 -309759 -373789 -409112 
3671.172 -409740 -378954 -326976 -270024 -225517 -208528 -229392 -288369 
3675.029 -373624 -461609 -527537 -556196 -546930 -511321 -464986 -422650 
3678.886 -392262 -375544 -368658 -365579 -360448 -350549 -336180 -319692 
3682.744 -303434 -288435 -273799 -257838 -240221 -222338 -209323 -206972 
3686.601 -221842 -257474 -313202 -383092 -457174 -525055 -579194 -616385 
3690.459 -637097 -643714 -637924 -621282 -594878 -560233 -520157 -478456 
3694.316 -438804 -404345 -376272 -354389 -336941 -322042 -308302 -295885 
3698.174 -286448 -282541 -286614 -300521 -323963 -354753 -389051 -421955 
3702.031 -448270 -464721 -469520 -463264 -448469 -428112 -405603 -384019 
3705.888 -365149 -349820 -337537 -327174 -317606 -308401 -300223 -295090 
3709.746 -295256 -302805 -317771 -337835 -357700 -370876 -371869 -357236 
3713.603 -327538 -286448 -240254 -194718 -155801 -127017 -109527 -102504 
3717.461 -103233 -108931 -116848 -125725 -135662 -147421 -161597 -177893 
3721.318 -195148 -211012 -223895 -233465 -240519 -247771 -258004 -273634 
3725.176 -294229 -317208 -337272 -348529 -345185 -324890 -288534 -240917 
3729.033 -189121 -140598 -102537 -79415 -72623 -80044 -96906 -117510 -138213 
3733.373 -159080 -183192 -214655 -256083 -305355 -355846 -397790 -423015 
3737.230 -426921 -411329 -380940 -341908 -298203 -252374 -204753 -157457 
3741.087 -115655 -88061 -88525 -130760 -223431 -361408 -519826 -659132 
3744.945 -738327 -737732 -664359 -545739 -414242 -297938 -218165 -184318 
3748.802 -195645 -241148 -304362 -368393 -420797 -456115 -473194 -472532 
3752.660 -454228 -418678 -368459 -308500 -246778 -191836 -150799 -128110 
3756.517 -124433 -137186 -160968 -190677 -222471 -253600 -281746 -303997 
3760.375 -316414 -314924 -297739 -266945 -227670 -187928 -155801 -136292 
3764.232 -130594 -135000 -142718 -146494 -142254 -130660 -116848 -107837 
3768.089 -109427 -124632 -151495 -184020 -213132 -231114 -233002 -217867 
3771.947 -188558 -150733 -110256 -73054 -43370 -23922 -15075 -15638 -23358 
3776.286 -35982 -51884 -70039 -90380 -112442 -134569 -153648 -165539 -166532 
3780.626 -155039 -132449 -103167 -72524 -46484 -29289 -22530 -25611 -35982 
3784.966 -49863 -63712 -74942 -81369 -81833 -75439 -62320 -43800 -22364 
3789.305 -2054 13088 20477 19317 11464 596 -9575 -16666 -21072 -25744 -34259 
3794.609 -49499 -71033 -94686 -113270 -118868 -106910 -78123 -39493 -1491 
3798.949 23326 24155 -4870 -61923 -135165 -206044 -253302 -262077 -230154 
3803.288 -166201 -86537 -9178 48742 75552 66339 25845 -33033 -92202 -134370 
3808.110 -150435 -140498 -111647 -73650 -34524 762 31876 60009 86985 112604 
3812.932 133285 143328 136633 109190 63158 7289 -42972 -71795 -69575 -36445 
3817.754 18058 78667 128015 151747 140577 93746 21338 -57980 -121651 -153946 
3822.575 -149740 -116119 -66196 -15307 24055 45627 49008 39795 26839 19317 
3827.397 22829 37608 59015 80490 95801 101269 96762 85759 73563 65477 64682 
3832.701 72006 85195 100672 113432 119696 115620 99015 69553 29689 -16102 
3837.523 -60730 -96906 -118371 -122843 -111647 -89154 -60829 -32370 -8217 
3841.863 8913 17793 18190 11365 -165 -13087 -23358 -26705 -20277 -2650 25646 
3847.167 62760 105379 150620 195700 238199 274668 300662 308620 289555 
3851.506 233956 136334 762 -155536 -301580 -405437 -447840 -427847 -359984 
3855.846 -264925 -161564 -62751 23890 95138 150719 191324 217745 230939 
3860.185 231768 221325 201800 175215 143030 106406 65875 22962 -18289 -50890 
3865.007 -66991 -60100 -28891 21140 78733 128811 157547 155625 121850 65013 
3869.829 2915 -45126 -66528 -59339 -31940 2584 31743 47881 50432 45263 41784 
3875.133 48577 70051 104219 144687 181380 205214 209490 191324 153437 104020 
3879.955 54740 18157 3479 14148 46721 91592 135970 168220 178960 164574 
3884.776 129142 84201 46323 29755 43010 84168 143659 207369 260909 293335 
3889.598 298375 276094 233260 181811 133716 99546 84201 87316 104915 131562 
3894.420 162387 193844 223844 250863 273640 290682 300530 302055 295523 
3898.760 282228 265219 248045 232729 220430 209258 196695 179557 156719 
3903.099 129407 101799 79760 68957 72867 92254 124104 163679 205877 246388 
3907.921 281995 311173 333224 348444 357530 361278 361012 358459 355872 
3912.260 355408 358757 366285 376764 388305 397492 402135 400476 393014 
3916.600 381507 368905 357961 350998 348942 351727 358923 369568 383132 
3920.940 398022 413112 426147 435035 437888 433841 423460 409530 394938 
3925.279 383032 375803 373614 374907 376997 377428 374443 367943 358857 
3929.619 348610 338695 329908 322281 315020 307592 300198 293865 290185 
3933.958 291246 297844 310212 327089 346952 367479 387078 404423 419182 
3938.298 430923 439281 443394 442233 434306 419182 397127 369999 341215 
3942.638 315219 295755 285543 285477 293766 307427 322580 335479 343735 
3946.977 346289 343802 337866 331234 326260 324967 328316 336507 349041 
3951.317 364561 381606 398487 413311 424986 432382 435367 434405 430193 
3955.656 424190 417258 410393 403992 397989 391953 385619 378820 371326 
3959.996 363665 356171 349771 345161 343371 345128 350732 360150 372486 
3964.336 386249 399846 411852 421470 428767 434405 439679 445815 453211 
3968.675 461636 470327 477724 483031 485685 485751 483893 481173 477923 
3973.015 474772 471753 469199 467375 467275 469497 475335 485253 498754 
3977.354 514943 532425 549411 564009 575024 581726 583584 581228 575223 
3981.694 566928 557340 547819 539060 531463 524828 519156 513947 509602 
3986.034 506351 504924 505720 508640 513085 517729 521113 522241 520781 
3990.373 517132 512753 509204 507412 508175 510862 514545 517762 520085 
3994.713 520549 519753 518094 516137 514279 512587 510531 507777 503863 
3999.052 498854 493016 486879 480643 
##END=
