
##TITLE=Z316_2_e
##JCAMP-DX=5.01  $$ Nicolet v. 1
##DATATYPE=INFRARED SPECTRUM
##ORIGIN=UniL
##OWNER=Nicolet
##LONGDATE=2011/09/09
##TIME=12:59:54
##SPECTROMETER/DATA SYSTEM=Nicolet iS5
##DATA PROCESSING=
Ratio against background
%Transmittance->Absorbance
Truncated
ElementMultiply or ElementDivide
##COMMENTS=
Number of sample scans: 32
Collection length: 51.19 sec
Sample gain: 2.0
Background collected on: Ven Sep 09 12:34:57 2011 (GMT+02:00);
Number of background scans: 32
Background gain: 2.0
Sample spacing:  1.000
Number of scan points: 12415
Resolution points: 8192
Number of FFT points: 65536
Apodization: N-B fort;
Phase correction: Mertz;
Laser frequency: 15798.0 cm-1
Number of rejected sample scans: 0
Number of rejected background scans: 0
Bench serial number: ASB1000141;
##RESOLUTION=4.000
##XUNITS=1/CM
##YUNITS=ABSORBANCE
##FIRSTX=649.893372
##LASTX=4000.122314
##FIRSTY=0.088455
##MAXX=4000.122314
##MINX=649.893372
##MAXY=0.267977
##MINY=0.000786
##XFACTOR=1.000000
##YFACTOR=1.000000E-009
##NPOINTS=6950
##DELTAX=0.482117
##ZPD=6100
##XYDATA=(X++(Y..Y))
649.893 88455120 88392896 88415320 88494928 88582480 88628552 88600112 
653.268 88500824 88367552 88257552 88221296 88287152 88453328 88694632 
656.643 88977392 89274608 89573584 89870848 90162192 90436112 90671456 
660.018 90846352 90947984 90978424 90951904 90886872 90796288 90681008 
663.393 90532584 90338800 90090472 89782992 89412792 88972344 88445984 
666.767 87818320 87090840 86299912 85518928 84824536 84258392 83810320 
670.142 83433328 83062248 82635680 82113416 81480912 80754392 79970808 
673.517 79174120 78397184 77651904 76932504 76225200 75519592 74815448 
676.892 74121000 73446816 72797896 72170832 71557600 70952648 70358664 
680.267 69790472 69268648 68810696 68423376 68099496 67821688 67568360 
683.642 67323072 67079744 66841804 66616164 66407664 66214712 66030204 
687.016 65845816 65657072 65466492 65282152 65113516 64965992 64837836 
690.391 64721288 64608120 64492600 64375796 64263292 64162040 64075084 
693.766 63999252 63925996 63844732 63748644 63636572 63512788 63383140 
697.141 63252152 63119784 62983320 62839472 62688656 62536032 62389764 
700.516 62257160 62141112 62038056 61939876 61837244 61724368 61600828 
703.890 61471096 61340608 61211988 61083328 60948836 60802688 60642832 
707.265 60473740 60303952 60143480 59998896 59870636 59754160 59644332 
710.640 59541328 59454348 59401920 59406704 59488240 59651740 59882272 
714.015 60139944 60369248 60503256 60478044 60249520 59798800 59139708 
717.390 58315380 57397080 56475168 55641144 54987732 54591916 54503408 
720.765 54740728 55278152 56045272 56919580 57746368 58360708 58603672 
724.139 58369952 57625204 56420112 54875376 53158688 51448496 49881024 
727.514 48540816 47450920 46585268 45891888 45315780 44818124 44377260 
730.889 43985676 43641744 43340328 43071576 42822992 42584380 42351632 
734.264 42126824 41915196 41719608 41538732 41366856 41197892 41029140 
737.639 40863076 40706024 40564164 40439044 40326024 40215800 40098520 
741.013 39969356 39830204 39689064 39554288 39432248 39322432 39219644 
744.388 39116552 39008772 38896532 38784096 38676472 38576120 38480892 
747.763 38385432 38284348 38175328 38060984 37947212 37840048 37742200 
751.138 37652144 37565752 37479308 37393312 37312064 37242024 37188528 
754.513 37152180 37128576 37111036 37093784 37076028 37060948 37053472 
757.888 37056396 37067116 37079348 37086712 37087720 37089420 37106196 
761.262 37155248 37248632 37389704 37572076 37785792 38022936 38285724 
764.637 38588608 38956724 39421144 40011968 40756716 41674932 42773736 
768.012 44041892 45442832 46914896 48372848 49738068 50969364 52098696 
771.387 53245128 54603228 56397816 58785200 61780480 65182196 68594544 
774.762 71451424 73150976 73253840 71571072 68256120 63730532 58603632 
778.136 53493344 48875116 45064440 42166328 40126504 38793444 37989628 
781.511 37560876 37387860 37397360 37544148 37795620 38128664 38526800 
784.886 38983876 39505000 40102956 40791804 41580920 42474712 43476872 
788.261 44595780 45852336 47278648 48912200 50792008 52950412 55412140 
791.636 58200608 61343352 64874576 68833792 73251256 78131304 83430560 
795.010 89050104 94825840 100522944 105872800 110572624 114314968 116851208 
798.385 118009736 117748720 116169288 113519088 110153960 106454688 
801.278 102808024 99518768 96763416 94588688 92902360 91515184 90173656 
804.653 88641728 86754936 84453304 81800448 78957832 76146224 73564480 
808.028 71352848 69556224 68121512 66919112 65783276 64569408 63173464 
811.402 61556116 59736328 57771764 55734484 53687744 51684120 49759800 
814.777 47940056 46246456 44696620 43303572 42073704 41003616 40083040 
818.152 39296788 38632140 38081240 37642492 37317916 37110096 37019088 
821.527 37042360 37177084 37423468 37786984 38279424 38915880 39709108 
824.902 40666656 41785232 43048668 44424128 45861804 47296048 48639940 
828.277 49799896 50685728 51222956 51377556 51164168 50652476 49950828 
831.651 49196356 48533888 48083240 47933912 48127360 48649912 49431244 
835.026 50347308 51244544 51941300 52267624 52100900 51378972 50123716 
838.401 48429152 46448924 44353408 42297136 40405368 38749716 37355976 
841.776 36215236 35299284 34573228 34003188 33561704 33224310 32968644 
845.151 32776400 32632820 32529604 32464400 32439228 32456402 32515712 
848.525 32613176 32743066 32900836 33085518 33300828 33552290 33844224 
851.900 34176508 34543696 34937124 35349244 35776788 36222728 36694684 
855.275 37202424 37755356 38360964 39027296 39765020 40589084 41520320 
858.650 42583612 43802464 45200680 46799296 48617444 50674740 52986124 
862.025 55555056 58360064 61342784 64400660 67376160 70083960 72324968 
865.400 73907808 74693904 74606744 73648520 71896384 69495560 66639304 
868.774 63526176 60354664 57293776 54461600 51937568 49756904 47921148 
872.149 46410652 45193840 44237608 43508736 42978464 42622136 42416472 
875.524 42342172 42384144 42532008 42781524 43133196 43588804 44148172 
878.899 44805268 45546552 46353060 47200812 48064732 48923436 49758652 
882.274 50557688 51314196 52026864 52698696 53335332 53942404 54523692 
885.648 55079612 55609324 56113320 56597672 57078068 57577948 58126280 
889.023 58751776 59472852 60294820 61206492 62184776 63197808 64211160 
892.398 65194592 66119552 66958964 67687608 68277368 68701032 68935712 
895.773 68964336 68778624 68380328 67780752 67000368 66067936 65022992 
899.148 63910760 62780804 61683504 60659708 59738648 58935340 58250168 
902.523 57674056 57193604 56797208 56477204 56230524 56056884 55956576 
905.897 55929364 55974592 56092884 56287924 56566348 56936804 57406836 
909.272 57981420 58661200 59444584 60329844 61317560 62411912 63619724 
912.647 64949484 66407860 68001920 69740280 71635744 73709608 75992216 
916.022 78517344 81321656 84435832 87878264 91651544 95735792 100086560 
919.397 104619872 109210800 113695728 117862808 121491016 124383320 
922.289 126398456 127503272 127790448 127490520 126923576 126477600 
925.182 126559672 127505856 129568696 132865664 137361472 142855488 
928.075 148985696 155288192 161178528 166038496 169312112 170515024 
930.967 169341216 165699904 159722448 151752000 142284512 131938280 
933.860 121328000 111008240 101449616 92961008 85720944 79794104 75154056 
937.235 71725320 69411152 68118608 67756072 68224512 69409128 71144712 
940.610 73211288 75357136 77290792 78739312 79496888 79437808 78551760 
943.985 76931560 74759632 72258000 69648472 67132448 64848416 62876152 
947.359 61243312 59937080 58922248 58155224 57597168 57214580 56980552 
950.734 56873644 56873872 56962224 57123040 57342740 57612304 57926820 
954.109 58283020 58677736 59106112 59561472 60036748 60526376 61027840 
957.484 61541224 62068672 62611608 63169600 63740084 64319460 64905232 
960.859 65496616 66095784 66705176 67326128 67957904 68596712 69238264 
964.233 69879160 70519288 71161536 71810376 72469176 73139096 73818184 
967.608 74503328 75192312 75886104 76588704 77306464 78045280 78809112 
970.983 79599640 80417568 81264600 82144832 83064288 84029392 85044648 
974.358 86110592 87224080 88380472 89576680 90812368 92090336 93413200 
977.733 94780496 96185440 97615592 99053352 100479968 101879200 103236176 
981.108 104537920 105770664 106918192 107964400 108895832 109706008 
984.000 110397800 110983560 111481264 111909056 112283544 112617680 
986.893 112921864 113208160 113491160 113786568 114110408 114473984 
989.786 114881768 115332496 115821112 116342848 116895536 117479656 
992.678 118096576 118745376 119421376 120116592 120822032 121531952 
995.571 122244704 122962536 123687896 124420648 125155088 125882448 
998.464 126592712 127279968 127944648 128593472 129235536 129879760 
1001.356 130531384 131193456 131868240 132561312 133282128 134042504 
1004.249 134853936 135722608 136648592 137627584 138655104 139731248 
1007.142 140862688 142061440 143339968 144706336 146160032 147693040 
1010.035 149292432 150946784 152647056 154387648 156162976 157963904 
1012.927 159775872 161583648 163374640 165147152 166912560 168695328 
1015.820 170524944 172429728 174432448 176546336 178778752 181133440 
1018.713 183611968 186212880 188927648 191739952 194624864 197556816 
1021.605 200519056 203510880 206551664 209673136 212913328 216301776 
1024.498 219851776 223560192 227410864 231381792 235446016 239571456 
1027.391 243714800 247809456 251771296 255499360 258885024 261834144 
1030.284 264268256 266128208 267373952 267976976 267922912 267216736 
1033.177 265892752 264017824 261680272 258983856 256022096 252859088 
1036.070 249529280 246036176 242366304 238500464 234426976 230145904 
1038.963 225671664 221033840 216278704 211475552 206707792 202070432 
1041.856 197655728 193525536 189702400 186156208 182815216 179576592 
1044.750 176334784 173012592 169570256 166015968 162395856 158784352 
1047.643 155264272 151910208 148787328 145940096 143391632 141145952 
1050.536 139187776 137486496 135998832 134679280 133484392 132377640 
1053.429 131334704 130338952 129379136 128444864 127523840 126601848 
1056.322 125665992 124705536 123713496 122685864 121617960 120503608 
1059.215 119334448 118103184 116806720 115449664 114045128 112611840 
1062.108 111169832 109738048 108330824 106958456 105630760 104356792 
1065.001 103145992 102005776 100938104 99935936 98983472 98059960 97142800 
1068.376 96214048 95265504 94298344 93322664 92353064 91407408 90503280 
1071.751 89656784 88883616 88197224 87607416 87119432 86732032 86438120 
1075.127 86225224 86078920 85983672 85922368 85877096 85825624 85740560 
1078.502 85594136 85359712 85019336 84570200 84025896 83415704 82777016 
1081.877 82152880 81583656 81103384 80742824 80527552 80480088 80622168 
1085.252 80972208 81545432 82353824 83405464 84704960 86252056 88038776 
1088.628 90041464 92212792 94481632 96745912 98881856 100769464 102299184 
1092.003 103397920 104042752 104261584 104128784 103746408 103239456 
1094.896 102730864 102326736 102116720 102160480 102488136 103103480 
1097.789 103984536 105087552 106345976 107679888 108993088 110174456 
1100.682 111114872 111706144 111856456 111510304 110651064 109310000 
1103.575 107555416 105488168 103221712 100861024 98503944 96226168 94079384 
1106.950 92097960 90296704 88675328 87220880 85910984 84718048 83610792 
1110.326 82560896 81544000 80540072 79534888 78517616 77479984 76417680 
1113.701 75329672 74220800 73100552 71983384 70885856 69822576 68806184 
1117.076 67845080 66944504 66108556 65340572 64644224 64022556 63477160 
1120.451 63006760 62606828 62270012 61986768 61743768 61524960 61307868 
1123.827 61062200 60753752 60344692 59800436 59099012 58234444 57220476 
1127.202 56086364 54874964 53632932 52401504 51215876 50098804 49060784 
1130.577 48103336 47220760 46403128 45638224 44914164 44221172 43551920 
1133.952 42903704 42277668 41678356 41111564 40583296 40098736 39660820 
1137.328 39272052 38934656 38651408 38425684 38260972 38159120 38120376 
1140.703 38143096 38224752 38362808 38555584 38802972 39104552 39458992 
1144.078 39863108 40311120 40796356 41311900 41851304 42408800 42978428 
1147.453 43552432 44121324 44674656 45201932 45696308 46154544 46578556 
1150.829 46973148 47344856 47700284 48045076 48383852 48720852 49060116 
1154.204 49404808 49756644 50115016 50476620 50836184 51188136 51526800 
1157.579 51847728 52146144 52415752 52648304 52832936 52957600 53011280 
1160.954 52985788 52875932 52679764 52396460 52025372 51565716 51017396 
1164.330 50382508 49666848 48880124 48034824 47144116 46221100 45276648 
1167.705 44319868 43359952 42405844 41467748 40556600 39682348 38852684 
1171.080 38073136 37345972 36672296 36053336 35490880 34988516 34550156 
1174.455 34179268 33878328 33648300 33490080 33405338 33397250 33470790 
1177.831 33631940 33886172 34238168 34691820 35251340 35922560 36714624 
1181.206 37638304 38706064 39930012 41319736 42883108 44626552 46555392 
1184.581 48672776 50977528 53460552 56098840 58853112 61670324 64479836 
1187.956 67201608 69754096 72050024 74009440 75563944 76658632 77263672 
1191.332 77376744 77025592 76262040 75157368 73794856 72252920 70604344 
1194.707 68908496 67204432 65515728 63849992 62203816 60567744 58932532 
1198.082 57294120 55657040 54035380 52449660 50926520 49490948 48163416 
1201.457 46958492 45882496 44934780 44109480 43397372 42786932 42264232 
1204.833 41813908 41418140 41057000 40711632 40364748 40003144 39619836 
1208.208 39212320 38782792 38335592 37877536 37416176 36960424 36521256 
1211.583 36110944 35742068 35427208 35176960 34999396 34900680 34885672 
1214.958 34959136 35126124 35391692 35759732 36232340 36809320 37488628 
1218.333 38268460 39148064 40129192 41214908 42408620 43712788 45128804 
1221.709 46657644 48301856 50067304 51962700 53999320 56187680 58534356 
1225.084 61040080 63698760 66497168 69412664 72415072 75462064 78495064 
1228.459 81446024 84233976 86771112 88978080 90782352 92128928 92986824 
1231.834 93350632 93247328 92734472 91908760 90897000 89839832 88895608 
1235.210 88213704 87922848 88136744 88940624 90396200 92548728 95425296 
1238.585 99036120 103369288 108388152 114021904 120158536 126659272 
1241.478 133347392 140015776 146452624 152425920 157705328 162091840 
1244.371 165416208 167570080 168515600 168282992 166962048 164680928 
1247.264 161605024 157911616 153778000 149382224 144870288 140344816 
1250.157 135854336 131383760 126864064 122189560 117257240 111989024 
1253.050 106359432 100406728 94230792 87978512 81807768 75882312 70339384 
1256.426 65270752 60728984 56720856 53218836 50170836 47513160 45182884 
1259.801 43118152 41269124 39597332 38073028 36676908 35395072 34216480 
1263.176 33131466 32129716 31200470 30334636 29524964 28767382 28060816 
1266.551 27405614 26802218 26249778 25746168 25288832 24875832 24506626 
1269.927 24182114 23903390 23670714 23482614 23336302 23228700 23158202 
1273.302 23125002 23131500 23180744 23274980 23414416 23596716 23816716 
1276.677 24067158 24338662 24618614 24890990 25138296 25341376 25484252 
1280.052 25558116 25561912 25502946 25392660 25243984 25065310 24859624 
1283.427 24625170 24358148 24057422 23726596 23375148 23016332 22665912 
1286.803 22337052 22040196 21782246 21567208 21397036 21272200 21191130 
1290.178 21149974 21142286 21161036 21199516 21253516 21322312 21407792 
1293.553 21513066 21640094 21789738 21961560 22155630 22374168 22621404 
1296.928 22903394 23225868 23592378 24003876 24459582 24958612 25501576 
1300.304 26089936 26724372 27400780 28107582 28825626 29527906 30184828 
1303.679 30770468 31263738 31652708 31934492 32113946 32203182 32219026 
1307.054 32184056 32122650 32059576 32017202 32010816 32047272 32125432 
1310.429 32238156 32375250 32527034 32686330 32847620 33005572 33154250 
1313.805 33285442 33390452 33462272 33496450 33492264 33451534 33376854 
1317.180 33270348 33132896 32965892 32772184 32558172 32333772 32109308 
1320.555 31894374 31695190 31514558 31352516 31210366 31091292 31002568 
1323.930 30954316 30956664 31019222 31149384 31353298 31636600 32005216 
1327.306 32462080 33004500 33619196 34281908 34955404 35598044 36171084 
1330.681 36643524 36999964 37240580 37378288 37433724 37430548 37392988 
1334.056 37341348 37293724 37265960 37269932 37314880 37406964 37550072 
1337.431 37748128 38007420 38337476 38750908 39260228 39872952 40589992 
1340.807 41403668 42299948 43259460 44259768 45275068 46271848 47212152 
1344.182 48053700 48753844 49280784 49616104 49758056 49718040 49515344 
1347.557 49169416 48693608 48095748 47378780 46545580 45604364 44571184 
1350.932 43469364 42329712 41184816 40065380 39000112 38012920 37122296 
1354.308 36343540 35685732 35151452 34735864 34428260 34214256 34079516 
1357.683 34014080 34012072 34071096 34189340 34362628 34584492 34848436 
1361.058 35150840 35495232 35891972 36356832 36904616 37543460 38273820 
1364.433 39089036 39979384 40933776 41940628 42983696 44034260 45051244 
1367.809 45978440 46747556 47294348 47563212 47516232 47138944 46438044 
1371.184 45440476 44187788 42740244 41172904 39566952 38012704 36591184 
1374.559 35360204 34349648 33558160 32964282 32539066 32261462 32125432 
1377.934 32143060 32340802 32756570 33437972 34434572 35797728 37569368 
1381.310 39762916 42340892 45189468 48127616 50898876 53213180 54807220 
1384.685 55452008 55006236 53440616 50861736 47513532 43731032 39898376 
1388.060 36335288 33242698 30700442 28683238 27110284 25880772 24905660 
1391.435 24114300 23455332 22897526 22421998 22019594 21688576 21430138 
1394.811 21245268 21132198 21085032 21095118 21153592 21251636 21381340 
1398.186 21535000 21702998 21875204 22042392 22197334 22336388 22458496 
1401.561 22563708 22651948 22723550 22780186 22825966 22868676 22918100 
1404.936 22982234 23064968 23163828 23272254 23382666 23491182 23599864 
1408.312 23716728 23852210 24014874 24208740 24431996 24679494 24945838 
1411.687 25229200 25531934 25858442 26211942 26591584 26992010 27406920 
1415.062 27832260 28270290 28730140 29226804 29777050 30394476 31086202 
1418.437 31848554 32666470 33516102 34369476 35200064 35985444 36709720 
1421.813 37366624 37960916 38513512 39060540 39651852 40336168 41149624 
1425.188 42109556 43214548 44455656 45826232 47327308 48962376 50726200 
1428.563 52596656 54525872 56447356 58294692 60014036 61579748 62995268 
1431.938 64288228 65500432 66677900 67872624 69142592 70557104 72204080 
1435.313 74178624 76561952 79392968 82637400 86199768 89962304 93824216 
1438.689 97711352 101554928 105273200 108733944 111753968 114139192 
1441.582 115693344 116268184 115790792 114258104 111734856 108331888 
1444.475 104206400 99537024 94502552 89291376 84076960 79021984 74290576 
1447.850 70023032 66319532 63219496 60694992 58668484 57043228 55740816 
1451.225 54715472 53958236 53482216 53303040 53421732 53823048 54479704 
1454.601 55367348 56475924 57801704 59336352 61045384 62859184 64689444 
1457.976 66462264 68143528 69732536 71245160 72699008 74106464 75472320 
1461.351 76792976 78059360 79249392 80323032 81228288 81903264 82298032 
1464.726 82396320 82226352 81851456 81341512 80756304 80131080 79479296 
1468.102 78803232 78097824 77351520 76542144 75631696 74568864 73300088 
1471.477 71798840 70093536 68283336 66509032 64906812 63562460 62497804 
1474.852 61692780 61115632 60747880 60592236 60668088 60994360 61580440 
1478.227 62418952 63492192 64779556 66269628 67964912 69880016 72035560 
1481.603 74448768 77130408 80084224 83315344 86839944 90690312 94911536 
1484.978 99543776 104601152 110036464 115709952 121396176 126765160 
1487.871 131412448 134928064 136918768 137101696 135381488 131888896 
1490.764 126968888 121076192 114684712 108163664 101736192 95522056 89550368 
1494.139 83818232 78345504 73185440 68437688 64227796 60664280 57802536 
1497.514 55630752 54091596 53103680 52588576 52486116 52748300 53335444 
1500.890 54209900 55327904 56639084 58090716 59615136 61132832 62548004 
1504.265 63719592 64463264 64554944 63764408 61960204 59204792 55765828 
1507.640 51990972 48162932 44432276 40838868 37377424 34043856 30849718 
1511.015 27835052 25051936 22539872 20321880 18393786 16731439 15300767 
1514.391 14065621 12992941 12051247 11213444 10459929 9780471 9176825 
1517.766 8657193 8227759 7884511 7609843 7374206 7146512 6905840 6653762 
1521.623 6415179 6224555 6103568 6048899 6036098 6032369 6011304 5960812 
1525.481 5887252 5810010 5751820 5725094 5727243 5744030 5760046 5766761 
1529.338 5765888 5766056 5775827 5796646 5820320 5831301 5814410 5764579 
1533.196 5692965 5624385 5583302 5581959 5614080 5661779 5703473 5723416 
1537.053 5715089 5680410 5627842 5565816 5499269 5427129 5347789 5265881 
1540.910 5194953 5150659 5141271 5161690 5195523 5222015 5226877 5207428 
1544.768 5175069 5147775 5141807 5162360 5201895 5244551 5274466 5282986 
1548.625 5272220 5253539 5241030 5244149 5261454 5282013 5290733 5276311 
1552.483 5235899 5176376 5110593 5051322 5006473 4975134 4950233 4922082 
1556.340 4882842 4827455 4752713 4657889 4546110 4428635 4325682 4259258 
1560.198 4242795 4274951 4343453 4430007 4516177 4585152 4626944 4640708 
1564.055 4634948 4624366 4623395 4639738 4671219 4707292 4735094 4746315 
1567.912 4739683 4723001 4708029 4707861 4729399 4772646 4833620 4908175 
1571.770 4994574 5092322 5199782 5312300 5420922 5515577 5589377 5644491 
1575.627 5695114 5764075 5873549 6032772 6237261 6475074 6735428 7014559 
1579.485 7316143 7649027 8022533 8442609 8909288 9417438 9959102 10525814 
1583.342 11107375 11689715 12253103 12769925 13209854 13547256 13766601 
1586.717 13869011 13873082 13814143 13736471 13688321 13719200 13869968 
1590.093 14173716 14652082 15310789 16134499 17081582 18087452 19062940 
1593.468 19906776 20527340 20847706 20824936 20456446 19780114 18866166 
1596.843 17799804 16673902 15568941 14545992 13650571 12907906 12327988 
1600.218 11908873 11640566 11509317 11501968 11609972 11828681 12155332 
1603.594 12585600 13109444 13709488 14363753 15043701 15716780 16348926 
1606.969 16900308 17330168 17601634 17684384 17562198 17235350 16722212 
1610.344 16055929 15281204 14451916 13618090 12821557 12090629 11436137 
1613.719 10855972 10339418 9872828 9443613 9045506 8681835 8363459 8105470 
1617.577 7918860 7806103 7759518 7764476 7802392 7854043 7904148 7942380 
1621.434 7966576 7983383 8006299 8049535 8122180 8225091 8351400 8491362 
1625.292 8637082 8785420 8936549 9091654 9250199 9408465 9560657 9702059 
1629.149 9830596 9948625 10060415 10169824 10277361 10379325 10468245 
1632.524 10535048 10571646 10571679 10532842 10457417 10354654 10238481 
1635.899 10125697 10030981 9961712 9917030 9889098 9866964 9837713 9790197 
1639.757 9717680 9619733 9503147 9378670 9257781 9147587 9047467 8949976 
1643.614 8842632 8712732 8549888 8351097 8122112 7878910 7643126 7437334 
1647.472 7278336 7173325 7119701 7107777 7124045 7151497 7168879 7152979 
1651.329 7077802 6923885 6692254 6421232 6177534 6018359 5961081 5983555 
1655.187 6049772 6127191 6195650 6245900 6275212 6285533 6279784 6260623 
1659.044 6228858 6184424 6126519 6054846 5969983 5874456 5771932 5668258 
1662.901 5570884 5487189 5423136 5381066 5359261 5351411 5348527 5340677 
1666.759 5318103 5274601 5208366 5123702 5029735 4937799 4858314 4797705 
1670.616 4757906 4736869 4730438 4732582 4734960 4728561 4703507 4652430 
1674.474 4574973 4480589 4387765 4314873 4273846 4264177 4275453 4292753 
1678.331 4303260 4300081 4283885 4261299 4240319 4225297 4213051 4192944 
1682.188 4149387 4069912 3951696 3810816 3678469 3588122 3556819 3577966 
1686.046 3630019 3689697 3740794 3774149 3787585 3783541 3766829 3743000 
1689.903 3717768 3696982 3685887 3687892 3703164 3727025 3750152 3758675 
1693.761 3738521 3679839 3583144 3463858 3349314 3267281 3230593 3232663 
1697.618 3252291 3264877 3248152 3190504 3096821 2991948 2910350 2877361 
1701.476 2896740 2952915 3023744 3088245 3132796 3150552 3141974 3114174 
1705.333 3079635 3052373 3042229 3053274 3082672 3123819 3168909 3211065 
1709.190 3247251 3277430 3304172 3330849 3359765 3391288 3424048 3455442 
1713.048 3483798 3508850 3531998 3554814 3577598 3597844 3611509 3614716 
1716.905 3607800 3597410 3595104 3613213 3657919 3727259 3812554 3902714 
1720.763 3987308 4059443 4116906 4161363 4197159 4228810 4260295 4293288 
1724.620 4327790 4363065 4397941 4431279 4461273 4484907 4498969 4500375 
1728.478 4488557 4466261 4439313 4413672 4392886 4374511 4350079 4305436 
1732.335 4225397 4100750 3935848 3753160 3586351 3467131 3407985 3400705 
1736.192 3424716 3457847 3483130 3489276 3472409 3435036 3384943 3332385 
1740.050 3286410 3253426 3235333 3230960 3237603 3252492 3272923 3296827 
1743.907 3322936 3350649 3379466 3409755 3440980 3472075 3501401 3527188 
1747.765 3547899 3563500 3574224 3581440 3586318 3589792 3593167 3598712 
1751.622 3609337 3627980 3656114 3692504 3732372 3768400 3791362 3794036 
1755.479 3772344 3728796 3671084 3610807 3557988 3516866 3485268 3455809 
1759.337 3420274 3371953 3308913 3234365 3155925 3083172 3023544 2981372 
1763.194 2956785 2946643 2946543 2951214 2955617 2954216 2942874 2919790 
1767.052 2886333 2848210 2813125 2787614 2774042 2769040 2764771 2752500 
1770.909 2726392 2687250 2643510 2609708 2598175 2614775 2656278 2713856 
1774.767 2777843 2840740 2899842 2955484 3009130 3061482 3110537 3152588 
1778.624 3184162 3203655 3213068 3216840 3220779 3228657 3240808 3254294 
1782.481 3264877 3269518 3267648 3262440 3258501 3260137 3269718 3286577 
1786.339 3308112 3331650 3355257 3378131 3399970 3418939 3431696 3433032 
1790.196 3417870 3383173 3330215 3265411 3199650 3143009 3102861 3080336 
1794.054 3072160 3072294 3074529 3074830 3070091 3058946 3040327 3013768 
1797.911 2979471 2938404 2893271 2847543 2805255 2770040 2743698 2727126 
1801.769 2719457 2719824 2727493 2741664 2761037 2783345 2805755 2825031 
1805.626 2839439 2848510 2853880 2858216 2863719 2871191 2879596 2886633 
1809.483 2890169 2889869 2887367 2886000 2889435 2899876 2916887 2938270 
1813.341 2960921 2982373 3002291 3021943 3043898 3070692 3103896 3143009 
1817.198 3186298 3231327 3275493 3316859 3353988 3385811 3411859 3432564 
1821.056 3448495 3460652 3470004 3476584 3479356 3476784 3467900 3453571 
1824.913 3437240 3424215 3419139 3424750 3439110 3457412 3472175 3476884 
1828.771 3468935 3451267 3432264 3421911 3429058 3456878 3502937 3560828 
1832.628 3623904 3686890 3747378 3805568 3862295 3918662 3974568 4029678 
1836.485 4084260 4139886 4200237 4269697 4351585 4447347 4555284 4671755 
1840.343 4791540 4910119 5024540 5132955 5235831 5335310 5435282 5541216 
1844.200 5658892 5793086 5944789 6110994 6284154 6455265 6614465 6753836 
1848.058 6869147 6959775 7028062 7077162 7109327 7124618 7121182 7096225 
1851.915 7048469 6978597 6889850 6786783 6674118 6554586 6430312 6301635 
1855.772 6169972 6037274 5906397 5779789 5658522 5540981 5424713 5307168 
1859.630 5188112 5069559 4955964 4851847 4760016 4680162 4609832 4545674 
1863.487 4485577 4430175 4381941 4343720 4316144 4296869 4281074 4262570 
1867.345 4237810 4207029 4175581 4151093 4140589 4147045 4168388 4198732 
1871.202 4231218 4260395 4282881 4297271 4303729 4302357 4293857 4278766 
1875.060 4258990 4237208 4216029 4196925 4179863 4161731 4138515 4106570 
1878.917 4064694 4014261 3959554 3904653 3852701 3803663 3755332 3704568 
1882.774 3649899 3592031 3534938 3483063 3440713 3408586 3385076 3366143 
1886.632 3347711 3327410 3304940 3281803 3260337 3242577 3229959 3223283 
1890.489 3223650 3231962 3249087 3274492 3306175 3340265 3372788 3400338 
1894.347 3422746 3442851 3464794 3492316 3526954 3566874 3607934 3645923 
1898.204 3678770 3707074 3734277 3763755 3797914 3836354 3876737 3915419 
1902.062 3950091 3980721 4008744 4036166 4064427 4092589 4118813 4141057 
1905.919 4158586 4171901 4183509 4195252 4206962 4216999 4221917 4219307 
1909.776 4208266 4190702 4169793 4149186 4131122 4115802 4102422 4090348 
1913.634 4080213 4073858 4072922 4077404 4084260 4088475 4084495 4068708 
1917.491 4041852 4009312 3978614 3954973 3939726 3929361 3916823 3896328 
1921.349 3865337 3826293 3785948 3752692 3731603 3724685 3728328 3737686 
1925.206 3747679 3756636 3764891 3774650 3786482 3799886 3811852 3820175 
1929.063 3823953 3824989 3826827 3832911 3844745 3861025 3877473 3889909 
1932.921 3895726 3895359 3891280 3887101 3885597 3887335 3891915 3898568 
1936.778 3906927 3918762 3935245 3956478 3979985 4001152 4014863 4018709 
1940.636 4013459 4004162 3997373 3998879 4010449 4029243 4050346 4068908 
1944.493 4083692 4097405 4115468 4143232 4183509 4234698 4291984 4349678 
1948.351 4403564 4450895 4491369 4524447 4549558 4565463 4572729 4574169 
1952.208 4575710 4585319 4608827 4647641 4696573 4744875 4781423 4798006 
1956.065 4793952 4774924 4751776 4734960 4730136 4737003 4749833 4762060 
1959.923 4770301 4775393 4782160 4796699 4822664 4859722 4904723 4953584 
1963.780 5004361 5057021 5113107 5173157 5235261 5294221 5344770 5383247 
1967.638 5409616 5426995 5439878 5451219 5461956 5470713 5475881 5478834 
1971.495 5484135 5497121 5522558 5560279 5605454 5649929 5688769 5721972 
1975.353 5757595 5807189 5881005 5980632 6096511 6209430 6297568 6345913 
1979.210 6348838 6311956 6247580 6169434 6087371 6007104 5930647 5859376 
1983.067 5796075 5745071 5710423 5692831 5688769 5690918 5691556 5685680 
1986.925 5673125 5658522 5649023 5649224 5660335 5678362 5697564 5712269 
1990.782 5720394 5722945 5723650 5726571 5733320 5744366 5760214 5781972 
1994.640 5812563 5855346 5910931 5976332 6043221 6102459 6145305 6169099 
1998.497 6177803 6179988 6184323 6196221 6215077 6234202 6245967 6244622 
2002.354 6229732 6206102 6181836 6163621 6154681 6153505 6157134 6162578 
2006.212 6169367 6179316 6194776 6215077 6236656 6252757 6257766 6250101 
2010.069 6232320 6211111 6192726 6180694 6173132 6165839 6154546 6139222 
2013.927 6125747 6122386 6137004 6172392 6223850 6281263 6332733 6370995 
2017.784 6395743 6414070 6435087 6466262 6509278 6561011 6614129 6662913 
2021.642 6704940 6741350 6774937 6807011 6835250 6855009 6861910 6854033 
2025.499 6834476 6809670 6787254 6771638 6762855 6756898 6748619 6735495 
2029.356 6718467 6703291 6695754 6701138 6720183 6751446 6792101 6840300 
2033.214 6896717 6961425 7033686 7107474 7173931 7223149 7248249 7249159 
2037.071 7232717 7210448 7195154 7193739 7208326 7235008 7266510 7296767 
2040.929 7322309 7342360 7358165 7369893 7376464 7375352 7365006 7344921 
2044.786 7318333 7289725 7264657 7246834 7238107 7237737 7243565 7252629 
2048.644 7259974 7259098 7242285 7201319 7131220 7031766 6911126 6783182 
2052.501 6664697 6571977 6514256 6491520 6494984 6510590 6524885 6529224 
2056.358 6521992 6506588 6489165 6473022 6460242 6448740 6436903 6424864 
2060.216 6415247 6411312 6415549 6426613 6440064 6449279 6449749 6441106 
2064.073 6427958 6417903 6417500 6429605 6450859 6473661 6488627 6489031 
2067.931 6472517 6441746 6402065 6359328 6318109 6280625 6247816 6220858 
2071.788 6200960 6189734 6187314 6191415 6197969 6200826 6196322 6182374 
2075.646 6160965 6136029 6111834 6090833 6073226 6057702 6042952 6029009 
2079.503 6017620 6011472 6011774 6017418 6024709 6028740 6025851 6015470 
2083.360 6000016 5984529 5973006 5966859 5963701 5959132 5947678 5926583 
2087.218 5896320 5860350 5823208 5788452 5757225 5728686 5700922 5673125 
2091.075 5646203 5623411 5608240 5603272 5608676 5623076 5643652 5667452 
2094.933 5692865 5718883 5744937 5770119 5793355 5813704 5830999 5846749 
2098.790 5863238 5882416 5904381 5926416 5944151 5953556 5952448 5942202 
2102.647 5927557 5915331 5910461 5915801 5930110 5950768 5974551 6000251 
2106.505 6028909 6063380 6105785 6156428 6212657 6270640 6326682 6378998 
2110.362 6428395 6477058 6526835 6578100 6628360 6674353 6713285 6744514 
2114.220 6770427 6795063 6822595 6855278 6892374 6930854 6966442 6996140 
2118.077 7018869 7035672 7048806 7060694 7072582 7085515 7099694 7115861 
2121.935 7135531 7159884 7189528 7223250 7258424 7292219 7322377 7348763 
2125.792 7373431 7399247 7428772 7462277 7497976 7531385 7558896 7577137 
2129.649 7585566 7585465 7579901 7572551 7567156 7567156 7576058 7596996 
2133.507 7631829 7680728 7740224 7804180 7865042 7916431 7954832 7981054 
2137.364 7999887 8016526 8034988 8056218 8077721 8094971 8104794 8105975 
2141.222 8100473 8091865 8083763 8078363 8075932 8075122 8075628 8077619 
2145.079 8082581 8091865 8104153 8116374 8123733 8121674 8108508 8086160 
2148.937 8060202 8035460 8015715 8000427 7986521 7968263 7941435 7904519 
2152.794 7859138 7808296 7754188 7697827 7639990 7582430 7532430 7502055 
2156.651 7507348 7563785 7679750 7851311 8061789 8286924 8500283 8682071 
2160.509 8821870 8917675 8974195 8998686 8998719 8981704 8955117 8925623 
2164.366 8898465 8875908 8856327 8833468 8801007 8752523 8686297 8605177 
2168.224 8515995 8425582 8339004 8257340 8177448 8095071 8006737 7911976 
2172.081 7814638 7720829 7637427 7569550 7520192 7489110 7474210 7472390 
2175.938 7478828 7488570 7495549 7494537 7482435 7460288 7432244 7405786 
2179.796 7388294 7383070 7388732 7398506 7403899 7397866 7377914 7347920 
2183.653 7315132 7286558 7266409 7254785 7247238 7239186 7228203 7215704 
2187.511 7205934 7203172 7209539 7223351 7239826 7253909 7262130 7264388 
2191.368 7263848 7263276 7263815 7263039 7255695 7235951 7201150 7153215 
2195.226 7097841 7044092 7000113 6970785 6957216 6956240 6963075 6972974 
2199.083 6982200 6988530 6990853 6988833 6983042 6974927 6966880 6961425 
2202.940 6960146 6962570 6965398 6964018 6954153 6934120 6906312 6876856 
2206.798 6853225 6840838 6841276 6851104 6863189 6870494 6868507 6856659 
2210.655 6838516 6819195 6803376 6793178 6788163 6787086 6788668 6794053 
2214.513 6804251 6821315 6844742 6872076 6899209 6921596 6937352 6946880 
2218.370 6953311 6960516 6970785 6984523 6999877 7012976 7020991 7022169 
2222.228 7016478 7004928 6988564 6968159 6944793 6919644 6895236 6874937 
2226.085 6861573 6856356 6858038 6861910 6862549 6854807 6836933 6809905 
2229.942 6777898 6745624 6717693 6695989 6679838 6667658 6657227 6647538 
2233.800 6638184 6629235 6620723 6611875 6602152 6591892 6582506 6576586 
2237.657 6576720 6584457 6599091 6617662 6636098 6651272 6661298 6666884 
2241.515 6670383 6674118 6679636 6686635 6694307 6701037 6707296 6714698 
2245.372 6725298 6741148 6762047 6785706 6808088 6824513 6832760 6831817 
2249.229 6824109 6812733 6801794 6794154 6791495 6794390 6803275 6817411 
2253.087 6836327 6859486 6884632 6909207 6930787 6946779 6955398 6955735 
2256.944 6947318 6929642 6902407 6865343 6819801 6768273 6715169 6665235 
2260.802 6623112 6591085 6569488 6556167 6548060 6543250 6540728 6542140 
2264.659 6549271 6563735 6585298 6611808 6639597 6664798 6684852 6698748 
2268.517 6707363 6712612 6716347 6720688 6726510 6734418 6744412 6756090 
2272.374 6768105 6778268 6784226 6783687 6775609 6761576 6744345 6728529 
2276.231 6717861 6715035 6719477 6729034 6739466 6747475 6750302 6747408 
2280.089 6740038 6730144 6720251 6712511 6708339 6709180 6715809 6727822 
2283.946 6743975 6761710 6777326 6787187 6788668 6780927 6764571 6742393 
2287.804 6717424 6692523 6669811 6650364 6634618 6623448 6617628 6617998 
2291.661 6624760 6636839 6652180 6668062 6681924 6692490 6699489 6704199 
2295.519 6707800 6711031 6713622 6714126 6711333 6704637 6694038 6681117 
2299.376 6667557 6654603 6642592 6631085 6619310 6606324 6592128 6576956 
2303.233 6560977 6543755 6524212 6500970 6472854 6440098 6404083 6367667 
2307.091 6333607 6304526 6281229 6263245 6249026 6236689 6225093 6213363 
2310.948 6201397 6188995 6176156 6162410 6147623 6132165 6116942 6103131 
2314.806 6091370 6081626 6072721 6062540 6049437 6032100 6010900 5987384 
2318.663 5963735 5941967 5923896 5910225 5901157 5895783 5892693 5889233 
2322.521 5881576 5864750 5833752 5784624 5716197 5630427 5532894 5430685 
2326.378 5331990 5243176 5168094 5107508 5060005 5023534 4995814 4975939 
2330.235 4963739 4959416 4962566 4972152 4986496 5003557 5021891 5040495 
2334.093 5059032 5077001 5093931 5109051 5122092 5133425 5144590 5157230 
2337.950 5173124 5192640 5215073 5238313 5260146 5278927 5294624 5307973 
2341.808 5320350 5333130 5346581 5361005 5377142 5397505 5426827 5470847 
2345.665 5534739 5621364 5729157 5852458 5981774 6106794 6217799 6306443 
2349.522 6367801 6399610 6403612 6384142 6348737 6305938 6263850 6228858 
2353.380 6203884 6188995 6181567 6178139 6176661 6176761 6180189 6190037 
2357.237 6208960 6238707 6278943 6328027 6383874 6444873 6510253 6579748 
2361.095 6653022 6729067 6805833 6881131 6953580 7023078 7091341 7160996 
2364.952 7234368 7312503 7394765 7478795 7561424 7639484 7711352 7776080 
2368.810 7833463 7883600 7927127 7964619 7997861 8029419 8062463 8100440 
2372.667 8146386 8201826 8267573 8343598 8430616 8529376 8641544 8768583 
2376.524 8911520 9069730 9241569 9424176 9614957 9811955 10013756 10219925 
2380.382 10429824 10642336 10855360 11066654 11273460 11473491 11664902 
2383.757 11845808 12014388 12168451 12305524 12423717 12521856 12600198 
2387.132 12660201 12704278 12734781 12753206 12760405 12756755 12742491 
2390.508 12718062 12685105 12644679 12597981 12545387 12486526 12420683 
2393.883 12348066 12269565 12187500 12105041 12025460 11951649 11885580 
2397.258 11828850 11782886 11749388 11730222 11727363 11741830 11773184 
2400.633 11819895 11879314 11949026 12027129 12113354 12208116 12312785 
2404.009 12428286 12555210 12693702 12843228 13003729 13175220 13357781 
2407.384 13551289 13754767 13967613 14188334 14416533 14652219 14896194 
2410.759 15148815 15409479 15675521 15942896 16205618 16457764 16693803 
2414.134 16909886 17103364 17272826 17417764 17538046 17633966 17706402 
2417.510 17756518 17786446 17798008 17793108 17773156 17739226 17692390 
2420.885 17634240 17567338 17494718 17419972 17346650 17277206 17213356 
2424.260 17156442 17107050 17066384 17035818 17016934 17011526 17020690 
2427.635 17045708 17087270 17145966 17222732 17318376 17433628 17568408 
2431.010 17722140 17894192 18083618 18290372 18514928 18758038 19020532 
2434.386 19302272 19602390 19919056 20250256 20594632 20951834 21322312 
2437.761 21707630 22109466 22529194 22968192 23427424 23908080 24411000 
2441.136 24936994 25486184 26057814 26650522 27262810 27893134 28541076 
2444.511 29206180 29888668 30587550 31301130 32026724 32761038 33501140 
2447.887 34244800 34990776 35737716 36484424 37228452 37966992 38696756 
2451.262 39414400 40117492 40803344 41469356 42111636 42725000 43302988 
2454.637 43838708 44325996 44759540 45134280 45446400 45691080 45863128 
2458.012 45957884 45970520 45898152 45739636 45495956 45168400 44758876 
2461.388 44269780 43703444 43063488 42356016 41589344 40774336 39923764 
2464.763 39050244 38165740 37280728 36403960 35542844 34704492 33895772 
2468.138 33123634 32395278 31716544 31092218 30525376 30017530 29568658 
2471.513 29178218 28844392 28564464 28333982 28147846 27998720 27879072 
2474.889 27781642 27700228 27629884 27567530 27510904 27458486 27408828 
2478.264 27359950 27310266 27257624 27200544 27137582 27067998 26991588 
2481.639 26908596 26819840 26726874 26630970 26533466 26435208 26336764 
2485.014 26237916 26138742 26039376 25940318 25842406 25746766 25654170 
2488.390 25564722 25478104 25393330 25309728 25226532 25143736 25061590 
2491.765 24980162 24899728 24819662 24738838 24655716 24568508 24475568 
2495.140 24375216 24265708 24146140 24016028 23875454 23726036 23569744 
2498.515 23409066 23246316 23082822 22918834 22753614 22585732 22414358 
2501.891 22239252 22061564 21883672 21708326 21538448 21376048 21221956 
2505.266 21076334 20938308 20806234 20678892 20554368 20431474 20309172 
2508.641 20187390 20066580 19948266 19833730 19724320 19619792 19518788 
2512.016 19419230 19317928 19212458 19101614 18985604 18866098 18745030 
2515.392 18625208 18508046 18394650 18285362 18180868 18081546 17988428 
2518.767 17902376 17824522 17755620 17696082 17646354 17606256 17575792 
2522.142 17554848 17542428 17537322 17537908 17542462 17549810 17559264 
2525.517 17571270 17585968 17604152 17625510 17649218 17673858 17697740 
2528.893 17719828 17739190 17756000 17770014 17781474 17790000 17795800 
2532.268 17798630 17798838 17797180 17794452 17791346 17788068 17784476 
2535.643 17780266 17775468 17770878 17767874 17768220 17773536 17784926 
2539.018 17802288 17825144 17852728 17884214 17919262 17957866 17999790 
2542.394 18044450 18090770 18137682 18184218 18230000 18275582 18321720 
2545.769 18369104 18418122 18467836 18516760 18563236 18605840 18643746 
2549.144 18677124 18706838 18733614 18758074 18780388 18800316 18817790 
2552.519 18832982 18846614 18859660 18873122 18887830 18904130 18921710 
2555.895 18939848 18957326 18972902 18985190 18992944 18994950 18990174 
2559.270 18977608 18956424 18926280 18886340 18836856 18777966 18710678 
2562.645 18636380 18557184 18475166 18392232 18309518 18227688 18146768 
2566.020 18066556 17987566 17910870 17838848 17773880 17718896 17675962 
2569.396 17645904 17628306 17621544 17623684 17632378 17645284 17660710 
2572.771 17676860 17693012 17708542 17724348 17741504 17762074 17788170 
2576.146 17821034 17861150 17907486 17958420 18011430 18064758 18117574 
2579.521 18169950 18223126 18278484 18337514 18401046 18469288 18541968 
2582.896 18618394 18697464 18778312 18859696 18940852 19021466 19101752 
2586.272 19182746 19266176 19353436 19445288 19541628 19641008 19740930 
2589.647 19838656 19931928 20019286 20100310 20175554 20245778 20312018 
2593.022 20375318 20436720 20496772 20556798 20617494 20679760 20743810 
2596.397 20809918 20877500 20946932 21018394 21092892 21171786 21256228 
2599.773 21347090 21444448 21548056 21656778 21770052 21887226 22008302 
2603.148 22133488 22263420 22398450 22539070 22685428 22837454 22995196 
2606.523 23158342 23326584 23499262 23675506 23854452 24035288 24216902 
2609.898 24398242 24577870 24753782 24923310 25083496 25231694 25365682 
2613.274 25484146 25587004 25674770 25748418 25808896 25856824 25892836 
2616.649 25917384 25931278 25935710 25932158 25922344 25907572 25888932 
2620.024 25867128 25842616 25815540 25786636 25756436 25726164 25696916 
2623.399 25669988 25646298 25626754 25611534 25600500 25593646 25590376 
2626.775 25590624 25594560 25602960 25616948 25637826 25666754 25704402 
2630.150 25750562 25804112 25863894 25928360 25996318 26067032 26140218 
2633.525 26215814 26293744 26373344 26454120 26535156 26615962 26696396 
2636.900 26776562 26857342 26939618 27024448 27112540 27204424 27300350 
2640.276 27399932 27501974 27605134 27707540 27807602 27904052 27996740 
2643.651 28086478 28174856 28263676 28355062 28449864 28548894 28651914 
2647.026 28758782 28869110 28982758 29099770 29220250 29344272 29471450 
2650.401 29602000 29735890 29873510 30015578 30162984 30316090 30474972 
2653.777 30639352 30808526 30982462 31160988 31344966 31535078 31731940 
2657.152 31935562 32145378 32360510 32579958 32803022 33029598 33259760 
2660.527 33493694 33731300 33971836 34214216 34457240 34700152 34942548 
2663.902 35184724 35427100 35669940 35913636 36157972 36403132 36649620 
2667.278 36898300 37150016 37406384 37668112 37935640 38208868 38487332 
2670.653 38770476 39057928 39349240 39644268 39942252 40241976 40542120 
2674.028 40840652 41135892 41426708 41712244 41991980 42266240 42535224 
2677.403 42799368 43059536 43316972 43573128 43830204 44090408 44355904 
2680.779 44629084 44912288 45207632 45517592 45843944 46188704 46553436 
2684.154 46938924 47345304 47772400 48219764 48686344 49171384 49673940 
2687.529 50192780 50726612 51273928 51833580 52404536 52986048 53578088 
2690.904 54180732 54794404 55419632 56057068 56707680 57372120 58051324 
2694.280 58745632 59454728 60177656 60912812 61658448 62413364 63176648 
2697.655 63948376 64728828 65518388 66316984 67123904 67938056 68758288 
2701.030 69583256 70412240 71243984 72076936 72908792 73736456 74555952 
2704.405 75363288 76154360 76925032 77670840 78387216 79068608 79709144 
2707.781 80303304 80846464 81335080 81767128 82141640 82458448 82717448 
2711.156 82918488 83062048 83149344 83182136 83162792 83093336 82975072 
2714.531 82807888 82590680 82321536 81998944 81622320 81192848 80712568 
2717.906 80184888 79613688 79003464 78359280 77686976 76992992 76284360 
2721.281 75568360 74852248 74142416 73445600 72767568 72114488 71492080 
2724.657 70905680 70359600 69857056 69399368 68987248 68620344 68298112 
2728.032 68020632 67787912 67600336 67457544 67358976 67302872 67287056 
2731.407 67309296 67367568 67459632 67583848 67738224 67920312 68127800 
2734.782 68357984 68607968 68875456 69158368 69453832 69759312 70071304 
2738.158 70386096 70700528 71011288 71316336 71613784 71902328 72181000 
2741.533 72448112 72702808 72944528 73173880 73393144 73605256 73813784 
2744.908 74022296 74233216 74447944 74667152 74891176 75119904 75352800 
2748.283 75589296 75827784 76065992 76301504 76531440 76754264 76969456 
2751.659 77177816 77381536 77582848 77784336 77988576 78198032 78415280 
2755.034 78642968 78883048 79136904 79404432 79683664 79971128 80262888 
2758.409 80554600 80842200 81122352 81391232 81644904 81878856 82087672 
2761.784 82265912 82409176 82513456 82576168 82595720 82571080 82501480 
2765.160 82386584 82227392 82026152 81786648 81514776 81216736 80899272 
2768.535 80568712 80230832 79890552 79553120 79222832 78904224 78601032 
2771.910 78315872 78050312 77804472 77578456 77371600 77183480 77013520 
2775.285 76860912 76723824 76599064 76481888 76366280 76245456 76112224 
2778.661 75959424 75780952 75570528 75323488 75036720 74709488 74343144 
2782.036 73941792 73511728 73059616 72593144 72119184 71643128 71169696 
2785.411 70702360 70243160 69793552 69353424 68922208 68498280 68080080 
2788.786 67666464 67256880 66851696 66451720 66058404 65672340 65293968 
2792.162 64923436 64560832 64206704 63862548 63529820 63210220 62904648 
2795.537 62613100 62334224 62066148 61806796 61554092 61306532 61062924 
2798.912 60822732 60585036 60348916 60112888 59875920 59636840 59394740 
2802.287 59148820 58898456 58643072 58382196 58115528 57843152 57565920 
2805.663 57284588 57000536 56715344 56430944 56149220 55872572 55603412 
2809.038 55343900 55095640 54859288 54634376 54419420 54212680 54012376 
2812.413 53817644 53628020 53444140 53266516 53095632 52931848 52775088 
2815.788 52626088 52485628 52356240 52241388 52144276 52069036 52018948 
2819.164 51996684 52004456 52044496 52118236 52227376 52372872 52554508 
2822.539 52770936 53019292 53295772 53595520 53913744 54245492 54585268 
2825.914 54927304 55265584 55592828 55902152 56186736 56439848 56656224 
2829.289 56831536 56962416 57046708 57083508 57073196 57017612 56920336 
2832.665 56785988 56619528 56426300 56210760 55977004 55728348 55467668 
2836.040 55197440 54919444 54635464 54346376 54052828 53754712 53452384 
2839.415 53145920 52836040 52523468 52209064 51892944 51574856 51254388 
2842.790 50930992 50604412 50275540 49946144 49618744 49296340 48981664 
2846.166 48677112 48384556 48105076 47840536 47592088 47361560 47151316 
2849.541 46963364 46799444 46660820 46547756 46459616 46395088 46352504 
2852.916 46329688 46324824 46336544 46363384 46404380 46458508 46524040 
2856.291 46598620 46678712 46760472 46839376 46911532 46973552 47022292 
2859.667 47055856 47071620 47067780 47041604 46990648 46912788 46806788 
2863.042 46672400 46510728 46324416 46117032 45893252 45658764 45419800 
2866.417 45182628 44954072 44739888 44545264 44374212 44229644 44113512 
2869.792 44026928 43970424 43943404 43944064 43969432 44015416 44076876 
2873.167 44149164 44228252 44311684 44398728 44489756 44585832 44687364 
2876.543 44794540 44906304 45021728 45139540 45259588 45381804 45506848 
2879.918 45635060 45766104 45899584 46034176 46169212 46303956 46438596 
2883.293 46573428 46709076 46845760 46983152 47120588 47257036 47391676 
2886.668 47523512 47651692 47775468 47894032 48006440 48112184 48210916 
2890.044 48303004 48388816 48469384 48545704 48618628 48689012 48757772 
2893.419 48825356 48892620 48959704 49026620 49093096 49158728 49223408 
2896.794 49287652 49352572 49419844 49491208 49567600 49648904 49734088 
2900.169 49820596 49905480 49986068 50059572 50123980 50177232 50217440 
2903.545 50242660 50251620 50243216 50217624 50175784 50119328 50050316 
2906.920 49969972 49879684 49779684 49670488 49552632 49427008 49294704 
2910.295 49157060 49014932 48868740 48718592 48564380 48406520 48245460 
2913.670 48082496 47918560 47754644 47590832 47427268 47263612 47099980 
2917.046 46937188 46776636 46620240 46470236 46328728 46197364 46078196 
2920.421 45972768 45882904 45810508 45756608 45722112 45706136 45707240 
2923.796 45722628 45749136 45782856 45819716 45855064 45884376 45902532 
2927.171 45905220 45889128 45852596 45796664 45724468 45641796 45555420 
2930.547 45473072 45402880 45352084 45327476 45335604 45381472 45469616 
2933.922 45603628 45785584 46016456 46295700 46621676 46991240 47400176 
2937.297 47843344 48314856 48808080 49317308 49837092 50363124 50892096 
2940.672 51421456 51948360 52469400 52979424 53471944 53938464 54368120 
2944.048 54749824 55071076 55319624 55485136 55560216 55542332 55434164 
2947.423 55245076 54989460 54684164 54348444 53999884 53652540 53317276 
2950.798 53000724 52705648 52432796 52181112 51948920 51733872 51533740 
2954.173 51346156 51168868 51000032 50838344 50682708 50532864 50388276 
2957.549 50249128 50115352 49987260 49865080 49749324 49640064 49537480 
2960.924 49441340 49351124 49266456 49187116 49113276 49045760 48985524 
2964.299 48933712 48891028 48858136 48835148 48822168 48819684 48827692 
2967.674 48846416 48875340 48912904 48956256 49001692 49044684 49081336 
2971.050 49108308 49123704 49127228 49119996 49104224 49083156 49060672 
2974.425 49041048 49027952 49024580 49031220 49045388 49060300 49065012 
2977.800 49045572 48985448 48869592 48685492 48425856 48089568 47682568 
2981.175 47217176 46708632 46175512 45636384 45106564 44599456 44124404 
2984.551 43686404 43288344 42930584 42612996 42335340 42098056 41901108 
2987.926 41743612 41621724 41527212 41445040 41355596 41234436 41055180 
2991.301 40795988 40441404 39987084 39440228 38819636 38152104 37465724 
2994.676 36788188 36140616 35535252 34976556 34461832 33984732 33536934 
2998.052 33110868 32701374 32304716 31919156 31543952 31178540 30822754 
3001.427 30476040 30138088 29808420 29487018 29173824 28868756 28571790 
3004.802 28282914 28002358 27729966 27466004 27210668 26964262 26727368 
3008.177 26499900 26282092 26073682 25873950 25681554 25495146 25313102 
3011.552 25134258 24958050 24784932 24616088 24453028 24297242 24149466 
3014.928 24009970 23878186 23753298 23634850 23522730 23417178 23318576 
3018.303 23226846 23141042 23059342 22979196 22897874 22813080 22723342 
3021.678 22627688 22526332 22419628 22308308 22193254 22075858 21958146 
3025.053 21842834 21733196 21632364 21543008 21466518 21402572 21349318 
3028.429 21303658 21261380 21218128 21169282 21110980 21039676 20953260 
3031.804 20850452 20731888 20599254 20455056 20302888 20146122 19987816 
3035.179 19830540 19676370 19526588 19382470 19244980 19114874 18992872 
3038.554 18879350 18774404 18677782 18589066 18507252 18431362 18360360 
3041.930 18292930 18227996 18164976 18103446 18043310 17984596 17927548 
3045.305 17871682 17816926 17762558 17708266 17654256 17601152 17550086 
3048.680 17502134 17457532 17415902 17375446 17333376 17287204 17234592 
3052.055 17174642 17107568 17034680 16958152 16879640 16800592 16721832 
3055.431 16643776 16566455 16490286 16415780 16343869 16275305 16210949 
3058.806 16150970 16094953 16042313 15991742 15941966 15891820 15840681 
3062.181 15788656 15736740 15686685 15640484 15600366 15567739 15543252 
3065.556 15526323 15515746 15509737 15506405 15503590 15500018 15494147 
3068.932 15484876 15471451 15453665 15431486 15405737 15377621 15348169 
3072.307 15318683 15289612 15260955 15232540 15204058 15175200 15146482 
3075.682 15118348 15091246 15065278 15040271 15015780 14990879 14965637 
3079.057 14939710 14913511 14887416 14861493 14835299 14808317 14779657 
3082.433 14749113 14716619 14682824 14648689 14615310 14583442 14553701 
3085.808 14526360 14501589 14479596 14460377 14444106 14430508 14418759 
3089.183 14408107 14397660 14387042 14375877 14364575 14353478 14342656 
3092.558 14332245 14321869 14311220 14300603 14290811 14283175 14279476 
3095.934 14281154 14288618 14301836 14319096 14338273 14357109 14373685 
3099.309 14386836 14396358 14403071 14408244 14413450 14419958 14428967 
3102.684 14440989 14455925 14473600 14493127 14513615 14534034 14553701 
3106.059 14571587 14586766 14598691 14607086 14612192 14615002 14616921 
3109.435 14619834 14625283 14634193 14646633 14661746 14678299 14694888 
3112.810 14711203 14727381 14744486 14763613 14785451 14809825 14835504 
3116.185 14861014 14884466 14904870 14921946 14936384 14949381 14961693 
3119.560 14973902 14986250 14998357 15009881 15020651 15030770 15040888 
3122.936 15051316 15062533 15074642 15087472 15100406 15113271 15125245 
3126.311 15135914 15145041 15152623 15159142 15165456 15172627 15181377 
3129.686 15192459 15205842 15220872 15236693 15252513 15267991 15283812 
3133.061 15300699 15319954 15342368 15367872 15395919 15425306 15454661 
3136.437 15483228 15510561 15536625 15561729 15586559 15611116 15635915 
3139.812 15661266 15687717 15715750 15745673 15777387 15810132 15842983 
3143.187 15875082 15905980 15936054 15966441 15998686 16033959 16072672 
3146.562 16114037 16156886 16199462 16240358 16279399 16317070 16354637 
3149.938 16393863 16435774 16481029 16529247 16579537 16630417 16680891 
3153.313 16729889 16776862 16822082 16866070 16909576 16953640 16998946 
3156.688 17045948 17094782 17144998 17196464 17249210 17303064 17358756 
3160.063 17416832 17477712 17541358 17607604 17675860 17746092 17818204 
3163.438 17892536 17969192 18048420 18129390 18211032 18292066 18371352 
3166.814 18448302 18523192 18596468 18668686 18739738 18808828 18874748 
3170.189 18936420 18993288 19045666 19094862 19142056 19188182 19233100 
3173.564 19275670 19314154 19347098 19373150 19392620 19406828 19417430 
3176.939 19426438 19435760 19446502 19459600 19475818 19495120 19517716 
3180.315 19543086 19570744 19599792 19629222 19658758 19688644 19719432 
3183.690 19751888 19786876 19824782 19865536 19908962 19954650 20002734 
3187.065 20053740 20107806 20165246 20225540 20287750 20350422 20412476 
3190.440 20473084 20532272 20590672 20649462 20709438 20771684 20836234 
3193.816 20902982 20971272 21040650 21110144 21179406 21247948 21315804 
3197.191 21383392 21451166 21519992 21590538 21663220 21737516 21813220 
3200.566 21889142 21964698 22039988 22115184 22190882 22268130 22347238 
3203.941 22427964 22510106 22592714 22675512 22757872 22840040 22921872 
3207.317 23003300 23084010 23163514 23241598 23318332 23393750 23468728 
3210.692 23543262 23617742 23691952 23766072 23840484 23915994 23994318 
3214.067 24076930 24164844 24257930 24354958 24453482 24551292 24646142 
3217.442 24737084 24824328 24908782 24991812 25074438 25157536 25241738 
3220.818 25327046 25414020 25503050 25594244 25687496 25782172 25877188 
3224.193 25971166 26063126 26152466 26239430 26324722 26409364 26494336 
3227.568 26580172 26667116 26754994 26843632 26932708 27021910 27110672 
3230.943 27198816 27286414 27373394 27459898 27546384 27632958 27719512 
3234.319 27805802 27891438 27976348 28060780 28145548 28231568 28319624 
3237.694 28409924 28501870 28594650 28686990 28778288 28868612 28958566 
3241.069 29049000 29140444 29232476 29324314 29414788 29503010 29588912 
3244.444 29673444 29758384 29845188 29935416 30029354 30126866 30227632 
3247.820 30331512 30439076 30550614 30666696 30786438 30908916 31031784 
3251.195 31153442 31272464 31388704 31503156 31617500 31733080 31851120 
3254.570 31971440 32093394 32215744 32337450 32457794 32576456 32693692 
3257.945 32809346 32923746 33036604 33148170 33258580 33368338 33477732 
3261.321 33587192 33697032 33807188 33917948 34029236 34141268 34254052 
3264.696 34367396 34480812 34593892 34705928 34816592 34925884 35034308 
3268.071 35142580 35251412 35361352 35472544 35585096 35698644 35813272 
3271.446 35928788 36044952 36161324 36277148 36391676 36504176 36614472 
3274.822 36722956 36830272 36937368 37044672 37152288 37259932 37367168 
3278.197 37473816 37580420 37687884 37797392 37910040 38026156 38145520 
3281.572 38266872 38389376 38511776 38633372 38753992 38873700 38993008 
3284.947 39111840 39230812 39350292 39470928 39593012 39716948 39842624 
3288.323 39969500 40097216 40225288 40353584 40482940 40614548 40749368 
3291.698 40888412 41032052 41179824 41331104 41485212 41641924 41801284 
3295.073 41963332 42128176 42295600 42464736 42634596 42803972 42971916 
3298.448 43138280 43302912 43466472 43629540 43793520 43959828 44129984 
3301.823 44305888 44488876 44679800 44878600 45084836 45297280 45515348 
3305.199 45738308 45966468 46200424 46440552 46686900 46938888 47195420 
3308.574 47455612 47718624 47984276 48253420 48526736 48805448 49090016 
3311.949 49381120 49678512 49982572 50293104 50609884 50932408 51259980 
3315.324 51591572 51926552 52264744 52606528 52952924 53305064 53663788 
3318.700 54029036 54399776 54775192 55153948 55535668 55920132 56307656 
3322.075 56698240 57091180 57485576 57880252 58274456 58668180 59061996 
3325.450 59456284 59851124 60245484 60636696 61022616 61400636 61769516 
3328.825 62129184 62480508 62824152 63160748 63489316 63808240 64115904 
3332.201 64410804 64691908 64959108 65211720 65448888 65669336 65871464 
3335.576 66054008 66217296 66362232 66490836 66604808 66705092 66791104 
3338.951 66861592 66914312 66947676 66960664 66952856 66923784 66873304 
3342.326 66799992 66702276 66578776 66428484 66251604 66049532 65823800 
3345.702 65576180 65307760 65019028 64709752 64380480 64031348 63663692 
3349.077 63279288 62879756 62466468 62040272 61601016 61148856 60683256 
3352.452 60204492 59713400 59211664 58701556 58186252 57668944 57152556 
3355.827 56639156 56130176 55625664 55125208 54627876 54133288 53641592 
3359.203 53154308 52672992 52199984 51736820 51284104 50841696 50408556 
3362.578 49983280 49564588 49151456 48743720 48341664 47945828 47557672 
3365.953 47178504 46809884 46452832 46108376 45775972 45454532 45142184 
3369.328 44836532 44535644 44238708 43945308 43656324 43372840 43095464 
3372.704 42824452 42559196 42298816 42042532 41789828 41540956 41295652 
3376.079 41054232 40816116 40580500 40346680 40114472 39884316 39657772 
3379.454 39435804 39219936 39010044 38804892 38602224 38400236 38197184 
3382.829 37992592 37787488 37583636 37382880 37186576 36994988 36807844 
3386.205 36624020 36442660 36262632 36083800 35905648 35727752 35549352 
3389.580 35369548 35186984 35001444 34813108 34622992 34433496 34247380 
3392.955 34066612 33893088 33726828 33567000 33411384 33257328 33102394 
3396.330 32945160 32785262 32623392 32461114 32299970 32141526 31986312 
3399.706 31834648 31685856 31539854 31396218 31255052 31116494 30980434 
3403.081 30846266 30713102 30579588 30444478 30307066 30166998 30024916 
3406.456 29881674 29737804 29593948 29450174 29306448 29162732 29019032 
3409.831 28876084 28734318 28594614 28457220 28322382 28189882 28059226 
3413.207 27929916 27801034 27672330 27543488 27414756 27286344 27159096 
3416.582 27033018 26907856 26782976 26656548 26527020 26393728 26256712 
3419.957 26118156 25981226 25849686 25726480 25613186 25508848 25410368 
3423.332 25313908 25215856 25113440 25006026 24894218 24779706 24664064 
3426.708 24548382 24432836 24317566 24202504 24088066 23975234 23864846 
3430.083 23757078 23651540 23546760 23441380 23334098 23224680 23113540 
3433.458 23002638 22893580 22787832 22685844 22587478 22491330 22396636 
3436.833 22301892 22206610 22110338 22013076 21914548 21815100 21714176 
3440.208 21612304 21509722 21406922 21304632 21203550 21104232 21006778 
3443.584 20910944 20815934 20720490 20623156 20522754 20418868 20312332 
3446.959 20205128 20100068 20000236 19907748 19823636 19746858 19675088 
3450.334 19605130 19534178 19460328 19382852 19301752 19217898 19131772 
3453.709 19043518 18953274 18860870 18766930 18672940 18580490 18491242 
3457.085 18405816 18324070 18244792 18165700 18085070 18001484 17914426 
3460.460 17824314 17732116 17639072 17546120 17454566 17364962 17278136 
3463.835 17194360 17113428 17035060 16958256 16882122 16805792 16728651 
3467.210 16650662 16572170 16492799 16412649 16331105 16247993 16163042 
3470.586 16077073 15991261 15907424 15827108 15750896 15678270 15607957 
3473.961 15537792 15465888 15391010 15312677 15231682 15149090 15066238 
3477.336 14984122 14903327 14823984 14745034 14665790 14584813 14501042 
3480.711 14414203 14325122 14235409 14147974 14065348 13989273 13920362 
3484.087 13857175 13797040 13737154 13674814 13608449 13538162 13464709 
3487.462 13389320 13312851 13235542 13157460 13078949 13000930 12924359 
3490.837 12851112 12782108 12717584 12655766 12594536 12531336 12464634 
3494.212 12394533 12322125 12250172 12180616 12115296 12054449 11997391 
3497.588 11942385 11887793 11832324 11775057 11715516 11653261 11588464 
3500.963 11520919 11451548 11381508 11312228 11245746 11183422 11126615 
3504.338 11075423 11029641 10987908 10948591 10909924 10869222 10824344 
3507.713 10773595 10715857 10651572 10582951 10512982 10445266 10383261 
3511.089 10328356 10280889 10239058 10200996 10163922 10126037 10085950 
3514.464 10043222 9997549 9948964 9897505 9843916 9788808 9734012 9680748 
3518.321 9630370 9583284 9539318 9497525 9456278 9414526 9371458 9326566 
3522.179 9279784 9231077 9179939 9126370 9070440 9012285 8953561 8895556 
3526.036 8839758 8786840 8737242 8690083 8644755 8600580 8557626 8516671 
3529.894 8478591 8443926 8412913 8384706 8358088 8331135 8302324 8270207 
3533.751 8234108 8193486 8148614 8100068 8049030 7996680 7944708 7894228 
3537.608 7846013 7800199 7756752 7715163 7675535 7637596 7601818 7568438 
3541.466 7537150 7506471 7474885 7439896 7399652 7352975 7300204 7242420 
3545.323 7182050 7121519 7064028 7011427 6965870 6927959 6896987 6871335 
3549.181 6847772 6822258 6791158 6751681 6703190 6647066 6587216 6528248 
3553.038 6474064 6427790 6389691 6358320 6331691 6307451 6283549 6258875 
3556.896 6232656 6204187 6172560 6137138 6097351 6054006 6008649 5963499 
3560.753 5921444 5884733 5854003 5829286 5808298 5787680 5763370 5730903 
3564.610 5685647 5624721 5547626 5457292 5360502 5266719 5186201 5126417 
3568.468 5089673 5072844 5069257 5070229 5067648 5056753 5035434 5004629 
3572.325 4966722 4924830 4880764 4835932 4790703 4745512 4701330 4659832 
3576.183 4621754 4588166 4557728 4528397 4497395 4461808 4420568 4374377 
3580.040 4325716 4278030 4234933 4199601 4173473 4156646 4147648 4143633 
3583.897 4140656 4134334 4119749 4093224 4051851 3996170 3929294 3856980 
3587.755 3786349 3724218 3674860 3639775 3617289 3604593 3597376 3591697 
3591.612 3583678 3569881 3547599 3515798 3474747 3426853 3376027 3327610 
3595.470 3285275 3251323 3225352 3204723 3185397 3163668 3137202 3105998 
3599.327 3072561 3040227 3013034 2993783 2983040 2979404 2979904 2980938 
3603.185 2979304 2972798 2960521 2942307 2918922 2890436 2857149 2819195 
3607.042 2777276 2732594 2688017 2647111 2613175 2588842 2573343 2563810 
3610.899 2555911 2544946 2526849 2501221 2470129 2438707 2412418 2395725 
3614.757 2389995 2392960 2399523 2402522 2396092 2375202 2338623 2288157 
3618.614 2229770 2170792 2119180 2080957 2059251 2053258 2059917 2074632 
3622.472 2092876 2110722 2126338 2139025 2149114 2156406 2159736 2155341 
3626.329 2137693 2099735 2036546 1947905 1842544 1737175 1651488 1601002 
3630.187 1589861 1611012 1650956 1695593 1733815 1759032 1770044 1769811 
3634.044 1763523 1755705 1749151 1744128 1739137 1732085 1721972 1709065 
3637.901 1694828 1680625 1667486 1655147 1642175 1627574 1611112 1594118 
3641.759 1579053 1569409 1567447 1574165 1588664 1607919 1628106 1644636 
3645.616 1653483 1650856 1634326 1602265 1554212 1491602 1417532 1337857 
3649.474 1260889 1196194 1153069 1138884 1154431 1196327 1256070 1322602 
3653.331 1383127 1426341 1443794 1431161 1390706 1331110 1266172 1209584 
3657.188 1171574 1155926 1160578 1179349 1205431 1233474 1259792 1282456 
3661.046 1300501 1313562 1321139 1323134 1320076 1313662 1306117 1300634 
3664.903 1299072 1302296 1308377 1313695 1312930 1299969 1269761 1219751 
3668.761 1151674 1073045 997252 940400 915496 928347 974603 1042321 1113769 
3673.100 1170345 1196028 1179216 1118819 1026046 924727 841358 793755 786219 
3677.440 810219 851783 897500 938640 971980 998282 1020733 1041956 1063312 
3681.780 1084172 1103206 1120114 1136193 1153468 1174099 1198320 1223207 
3685.637 1242679 1249225 1235468 1197323 1136093 1059493 979784 909520 
3689.494 858290 829108 820543 827714 846073 871470 901518 933825 966600 
3693.834 997219 1023556 1043616 1056935 1064442 1068195 1071317 1076001 
3697.691 1083475 1092510 1100548 1103405 1097592 1080452 1052019 1015618 
3701.549 977061 943820 922336 916625 927483 952354 986559 1024652 1062349 
3705.888 1096662 1126160 1151010 1171674 1187721 1198453 1201377 1193635 
3709.746 1172970 1139183 1094569 1045044 998846 964176 947606 951557 974603 
3714.085 1012164 1057599 1104468 1147754 1183834 1211013 1229852 1241217 
3717.943 1246500 1246633 1241516 1230351 1212707 1188718 1160245 1130711 
3721.800 1103903 1082877 1068660 1059891 1053514 1045310 1032390 1014256 
3725.658 993300 974471 963578 965504 982408 1012762 1051953 1093539 1130944 
3729.997 1157853 1171475 1170810 1158319 1138618 1116560 1095333 1074473 
3733.855 1051089 1021696 984765 942824 902946 874724 866258 880567 915364 
3738.194 964375 1020666 1078359 1134499 1188087 1238558 1283519 1317151 
3742.052 1329714 1310238 1250521 1151807 1031062 917754 844379 829540 870242 
3746.391 947407 1036409 1115297 1166990 1183502 1165395 1121277 1064508 
3750.249 1008112 962084 931003 916592 919780 940965 980282 1034715 1098555 
3754.588 1163302 1219818 1260756 1281824 1282356 1266106 1238625 1205929 
3758.446 1172970 1143435 1119649 1104900 1101943 1113138 1138385 1173800 
3762.303 1212707 1247198 1269728 1276640 1268764 1252216 1235169 1225799 
3766.161 1228025 1240652 1257732 1271921 1277006 1270359 1253511 1231414 
3770.018 1210847 1197556 1194233 1201045 1215531 1234737 1255838 1276773 
3773.875 1296546 1314559 1330512 1344139 1354442 1360059 1358530 1347695 
3777.733 1325560 1292492 1251451 1207889 1169182 1141940 1129748 1132339 
3781.590 1145129 1162305 1177721 1187323 1190346 1189050 1186924 1187888 
3785.448 1194267 1205730 1220848 1237262 1252913 1266571 1277969 1287108 
3789.305 1293522 1297543 1299438 1300401 1302728 1308444 1319046 1333835 
3793.163 1349290 1359727 1359527 1344704 1314958 1275344 1234704 1204135 
3797.020 1191310 1199151 1223340 1255206 1282721 1294220 1282356 1245337 
3800.877 1190745 1132738 1089287 1074506 1093074 1139947 1203005 1267568 
3804.735 1318713 1345501 1342377 1312033 1264776 1216395 1182771 1173335 
3808.592 1189549 1225732 1273682 1325659 1376014 1422618 1465337 1504070 
3812.450 1537453 1561728 1570706 1558535 1521493 1461846 1388878 1319511 
3816.307 1271124 1255738 1275211 1321206 1379138 1431294 1462810 1463275 
3820.165 1430596 1371892 1304057 1247364 1217425 1219851 1249889 1296280 
3824.022 1345501 1386119 1411980 1421587 1419293 1412080 1407692 1410883 
3827.879 1422219 1438009 1452670 1460549 1458621 1446852 1428103 1408157 
3831.737 1392368 1385121 1388778 1402839 1425044 1451739 1478336 1500213 
3835.594 1512648 1512316 1497221 1468794 1430962 1390606 1355240 1330113 
3839.452 1317949 1318181 1327720 1342410 1359029 1374784 1388146 1399049 
3843.309 1408058 1416601 1426274 1438907 1455197 1475909 1500313 1527145 
3847.167 1554944 1582412 1609083 1635257 1661133 1686047 1707335 1719078 
3851.024 1713024 1679427 1611345 1508392 1381532 1253678 1150511 1090749 
3854.881 1079090 1107856 1163701 1233740 1308710 1382496 1451540 1513047 
3858.739 1564654 1603396 1627109 1634891 1628240 1610347 1585903 1558835 
3862.596 1531468 1504569 1477438 1451041 1428236 1414407 1414340 1430363 
3866.454 1460117 1496157 1527378 1543804 1537586 1508392 1463275 1416268 
3870.311 1381997 1369233 1377576 1398418 1420390 1433322 1431926 1418496 
3874.168 1400578 1389243 1393199 1417099 1458854 1511451 1564554 1608484 
3878.026 1635191 1640146 1623351 1589695 1548792 1511352 1487612 1483323 
3881.883 1498551 1527012 1559134 1584374 1593719 1582511 1552849 1513912 
3885.741 1479367 1462411 1470689 1503738 1553514 1607620 1654016 1682754 
3889.598 1687976 1670047 1634392 1590792 1550289 1521992 1511119 1518334 
3893.456 1540945 1574397 1614338 1656211 1696192 1731187 1758067 1774102 
3897.313 1777796 1769112 1749284 1721939 1691868 1663728 1641610 1626843 
3901.170 1618561 1613540 1607686 1598441 1584507 1567580 1551718 1541743 
3905.028 1541576 1552616 1573666 1600869 1629936 1656543 1677565 1692101 
3908.885 1701148 1706870 1711693 1718346 1728392 1742631 1760529 1780989 
3912.743 1802516 1822646 1839715 1851328 1856054 1853358 1843742 1829467 
3916.600 1813296 1798457 1787610 1782121 1782354 1786945 1794730 1804512 
3920.458 1815226 1825740 1835256 1842178 1845472 1843775 1836854 1825674 
3924.315 1812497 1800220 1791636 1788708 1791370 1798457 1807640 1816756 
3928.172 1823943 1828402 1829600 1828103 1824176 1818254 1810534 1801817 
3932.030 1792867 1784649 1778627 1775067 1774302 1775766 1778660 1782387 
3935.887 1786945 1792701 1800253 1810035 1821781 1834458 1846337 1855388 
3939.745 1859847 1858849 1852460 1841845 1828535 1815193 1804146 1797458 
3943.602 1796660 1801917 1812497 1826106 1840048 1851694 1858516 1859481 
3947.459 1854722 1845938 1835489 1825607 1818054 1813762 1812497 1813995 
3951.317 1817888 1824010 1832628 1843542 1856220 1869364 1881411 1890828 
3955.174 1896785 1899281 1898882 1896951 1894422 1891827 1889430 1886801 
3959.032 1883707 1880346 1876785 1873856 1871926 1871128 1871494 1872692 
3962.889 1874655 1877351 1881144 1886336 1892625 1899913 1907301 1914257 
3966.747 1920847 1927736 1935857 1946407 1960020 1975996 1993006 2008950 
3970.604 2021233 2028757 2030754 2028024 2021566 2013178 2004123 1995269 
3974.461 1987414 1980923 1976363 1974166 1974432 1977095 1981821 1987647 
3978.319 1993705 1999430 2004323 2008351 2011513 2013943 2015408 2015974 
3982.176 2015574 2014443 2013111 2012279 2012878 2015008 2018770 2023297 
3986.034 2027758 2031287 2033117 2032885 2030654 2026793 2022032 2017339 
3989.891 2013710 2011913 2012412 2014776 2018537 2022265 2024396 2024130 
3993.749 2021400 2016606 2011546 2007852 2006920 2009283 2014542 2021333 
3997.606 2028324 2034349 2038710 2042073 2044969 2048265 2052359 
##END=
