
##TITLE=Z326a_3_e
##JCAMP-DX=5.01  $$ Nicolet v. 1
##DATATYPE=INFRARED SPECTRUM
##ORIGIN=UniL
##OWNER=Nicolet
##LONGDATE=2011/09/15
##TIME=16:39:46
##SPECTROMETER/DATA SYSTEM=Nicolet iS5
##DATA PROCESSING=
Ratio against background
%Transmittance->Absorbance
Truncated
ElementMultiply or ElementDivide
##COMMENTS=
Number of sample scans: 32
Collection length: 51.15 sec
Sample gain: 2.0
Background collected on: Jeu Sep 15 16:15:34 2011 (GMT+02:00);
Number of background scans: 32
Background gain: 2.0
Sample spacing:  1.000
Number of scan points: 12415
Resolution points: 8192
Number of FFT points: 65536
Apodization: N-B fort;
Phase correction: Mertz;
Laser frequency: 15798.0 cm-1
Number of rejected sample scans: 0
Number of rejected background scans: 0
Bench serial number: ASB1000141;
##RESOLUTION=4.000
##XUNITS=1/CM
##YUNITS=ABSORBANCE
##FIRSTX=649.893372
##LASTX=4000.122314
##FIRSTY=0.128094
##MAXX=4000.122314
##MINX=649.893372
##MAXY=0.324845
##MINY=-0.000954
##XFACTOR=1.000000
##YFACTOR=1.000000E-009
##NPOINTS=6950
##DELTAX=0.482117
##ZPD=6100
##XYDATA=(X++(Y..Y))
649.893 128094016 127226416 126441912 125775232 125234752 124809440 
652.786 124484152 124254200 124132296 124143232 124308328 124632288 
655.679 125094848 125660328 126293960 126979456 127729264 128575880 
658.571 129556152 130687328 131960856 133346272 134811072 136340128 
661.464 137947120 139664240 141524320 143534368 145665552 147856096 
664.357 150036608 152148800 154142896 155978112 157597680 158909584 
667.250 159804640 160203072 160120128 159666592 158989856 158188624 
670.142 157286432 156250800 155034992 153613776 152004560 150270368 
673.035 148494848 146762000 145120768 143580432 142122832 140726416 
675.928 139384128 138108656 136921808 135837840 134850224 133931176 
678.820 133042472 132150248 131239712 130315616 129393336 128485040 
681.713 127588776 126688824 125765664 124808072 123823328 122836552 
684.606 121882624 120990592 120171648 119419320 118714552 118038440 
687.498 117380176 116740424 116126344 115543040 114986248 114442504 
690.391 113893456 113326600 112740040 112144832 111557208 110992840 
693.284 110460136 109959680 109490264 109057056 108674616 108369440 
696.177 108171016 108102208 108173824 108381600 108710576 109142552 
699.069 109662760 110263920 110942144 111692728 112504112 113356024 
701.962 114224440 115087904 115932656 116756992 117566304 118366376 
704.855 119155672 119923392 120651088 121322960 121931944 122484840 
707.747 122998992 123495880 123992928 124498848 125017080 125552368 
710.640 126117648 126738864 127447680 128271472 129220904 130280312 
713.533 131406624 132534416 133595824 134531184 135300688 135891520 
716.425 136313232 136595088 136778288 136917856 137079392 137331184 
719.318 137744048 138374240 139248304 140350992 141616448 142935232 
722.211 144154496 145112944 145667120 145708832 145199648 144176336 
725.104 142753792 141093904 139381712 137790560 136437824 135382304 
727.996 134622160 134114920 133799184 133618128 133535352 133531792 
730.889 133599608 133731872 133913768 134123128 134338464 134543744 
733.782 134736784 134925616 135123440 135338768 135570864 135810304 
736.674 136045648 136270464 136488896 136712688 136956416 137228368 
739.567 137526112 137836976 138144416 138437296 138713792 138981792 
742.460 139251696 139529840 139813024 140089712 140345408 140571632 
745.352 140770912 140956064 141143152 141343152 141556464 141772432 
748.245 141975456 142151696 142297216 142417040 142522384 142622320 
751.138 142720384 142812864 142894160 142961616 143020384 143081568 
754.031 143158208 143258240 143380832 143516880 143654688 143786208 
756.923 143911488 144038096 144176016 144332736 144508320 144696448 
759.816 144888368 145077952 145264496 145451424 145642432 145836112 
762.709 146025744 146202480 146361744 146511040 146671616 146879232 
765.601 147175696 147597840 148171936 148903808 149775360 150738608 
768.494 151717408 152615440 153319280 153730608 153789888 153502400 
771.387 152948704 152276416 151670432 151285520 151208448 151417168 
774.279 151787808 152116480 152177200 151799552 150895424 149482288 
777.172 147653936 145543184 143267824 140896096 138444448 135886320 
780.065 133179544 130289136 127206024 123951008 120572008 117130608 
782.958 113694472 110332480 107102688 104053872 101223296 98632672 96293088 
786.332 94205312 92363304 90757936 89379128 88217280 87263488 86508920 
789.707 85944296 85560488 85349632 85307968 85437072 85745368 86246320 
793.082 86956344 87888848 89049128 90427704 91997776 93711504 95498480 
796.457 97277128 98956672 100449984 101695784 102667944 103393504 103949464 
799.832 104463200 105086744 105957072 107174136 108756120 110623056 
802.724 112579680 114343848 115600064 116032328 115422608 113696888 
805.617 110949504 107421992 103448624 99391368 95528912 92026696 88913744 
808.992 86106304 83454928 80804840 78056184 75178992 72219152 69265352 
812.367 66425392 63790204 61414076 59318728 57496620 55924616 54573208 
815.742 53414872 52425544 51582096 50864568 50254376 49735688 49297672 
819.116 48933780 48640384 48414928 48253716 48151828 48104224 48107556 
822.491 48161564 48268864 48434488 48663104 48958224 49321208 49750956 
825.866 50243924 50792308 51383004 51996760 52606676 53183144 53699816 
829.241 54140084 54505584 54820192 55131112 55500348 56000904 56707076 
832.616 57677080 58946576 60510948 62317392 64251116 66137188 67770096 
835.990 68918320 69379704 69029472 67837992 65891356 63363472 60496896 
839.365 57537432 54694800 52130564 49931312 48122212 46683060 45568448 
842.740 44723432 44093488 43634012 43306500 43079076 42928352 42836556 
846.115 42793044 42793296 42835640 42918476 43038060 43187100 43357168 
849.490 43541404 43735948 43941680 44162628 44403720 44668380 44957856 
852.865 45271280 45607680 45967500 46353244 46769108 47220464 47713004 
856.239 48253016 48848608 49510852 50252964 51090740 52040648 53117500 
859.614 54337140 55716740 57275968 59038804 61027920 63255100 65708876 
862.989 68342664 71069000 73753032 76238304 78362968 79981960 81005352 
866.364 81408056 81241632 80621328 79718536 78736456 77867064 77289280 
869.739 77143464 77516856 78455448 79959976 81994176 84482888 87316032 
873.113 90353776 93409792 96272856 98722208 100533176 101529736 101605216 
876.488 100739712 99005152 96550864 93583656 90317064 86959424 83687368 
879.863 80619616 77826864 75330496 73115368 71145344 69379656 67787136 
883.238 66350496 65068752 63951796 63013500 62263356 61701640 61319008 
886.613 61100264 61029328 61093856 61288828 61615756 62079756 62684796 
889.987 63431912 64318584 65340452 66495588 67787520 69226720 70830744 
893.362 72621504 74620600 76847272 79311512 82008064 84905352 87936360 
896.737 90994888 93919672 96515728 98575912 99896024 100329912 99808744 
900.112 98357856 96089272 93186104 89879848 86397808 82956744 79738080 
903.487 76864280 74414592 72422624 70886368 69782032 69073288 68723544 
906.862 68697736 68969656 69522040 70345184 71435248 72792680 74419392 
910.236 76317456 78486568 80918752 83594528 86475400 89496128 92571856 
913.611 95597200 98459016 101064112 103346040 105284560 106908568 108294944 
916.986 109555032 110806432 112164016 113706312 115456232 117367976 
919.879 119323712 121150808 122629432 123549864 123753008 123165760 
922.771 121837448 119942304 117777536 115695160 114076584 113278944 
925.664 113552696 115026920 117667384 121285768 125534848 129951624 
928.557 134053064 137347968 139440080 140087600 139195168 136822176 
931.450 133135112 128380256 122830968 116759112 110442456 104128152 98035664 
934.824 92360680 87247208 82797184 79071472 76088384 73839112 72295848 
938.199 71422752 71175400 71497552 72318040 73532136 75000416 76563448 
941.574 78036992 79247040 80059008 80384232 80202024 79554704 78540600 
944.949 77287824 75931240 74601480 73396048 72379408 71583776 71011520 
948.324 70645552 70457096 70415320 70488624 70648160 70869512 71129888 
951.698 71409432 71693344 71971656 72241408 72506056 72773720 73054608 
955.073 73357440 73688640 74051568 74446928 74874888 75335072 75827224 
958.448 76349928 76900432 77474712 78067968 78677200 79301688 79943800 
961.823 80607128 81295280 82009784 82749280 83510312 84289368 85084624 
965.198 85897008 86729768 87586216 88469296 89379336 90316408 91279872 
968.573 92271016 93292720 94349152 95443088 96576144 97747336 98955136 
971.947 100199472 101483736 102814152 104198696 105644920 107157168 
974.840 108736368 110381608 112092328 113870240 115720288 117649136 
977.733 119663536 121769456 123971680 126278088 128701520 131262568 
980.625 133990392 136916640 140071632 143479216 147151184 151085824 
983.518 155264176 159649936 164179616 168752832 173238000 177456976 
986.411 181200272 184263392 186452464 187628752 187732320 186786752 
989.304 184901424 182248000 179059696 175589296 172082944 168778592 
992.196 165863072 163469216 161679456 160520240 159979360 160017904 
995.089 160588480 161642432 163136032 165034960 167307232 169921040 
997.982 172846416 176049872 179496880 183152352 186969728 190886256 
1000.874 194819360 198653568 202254992 205486640 208217472 210354560 
1003.767 211853744 212727024 213039696 212904208 212475408 211921344 
1006.660 211420256 211144288 211230032 211780720 212855472 214469904 
1009.552 216607696 219232416 222304352 225783024 229633056 233823280 
1012.445 238316608 243070816 248041376 253179664 258440112 263775584 
1015.338 269120064 274377344 279403456 283990816 287901536 290884608 
1018.231 292719360 293276480 292540096 290631808 287785376 284343424 
1021.123 280714496 277295840 274478144 272579360 271806464 272267904 
1024.016 273957152 276777760 280555264 285078208 290126784 295467872 
1026.909 300884992 306170400 311109248 315505440 319182976 322001984 
1029.802 323885888 324819584 324844704 324035488 322484416 320284896 
1032.695 317517952 314259392 310575360 306515936 302112832 297371232 
1035.588 292274112 286790656 280897216 274596352 267928416 260971488 
1038.481 253829776 246626272 239477360 232489696 225759136 219358240 
1041.374 213338864 207724048 202499872 197612784 192972368 188473952 
1044.267 184010336 179500400 174911536 170263840 165630304 161114560 
1047.160 156844976 152946480 149521840 146654656 144394784 142760752 
1050.053 141744592 141315296 141426256 142017504 143029184 144401568 
1052.947 146076352 148000976 150117200 152353680 154626288 156825728 
1055.840 158824176 160494384 161709808 162366464 162399648 161784944 
1058.733 160548432 158763248 156555408 154088896 151547728 149137024 
1061.626 147045472 145433504 144432656 144125184 144550976 145708464 
1064.519 147559872 150031968 153014448 156374896 159948128 163547296 
1067.412 166992128 170105568 172739232 174790816 176195008 176926016 
1070.305 176986624 176400416 175203920 173441120 171166192 168437120 
1073.198 165316080 161874896 158191616 154357152 150483984 146695200 
1076.091 143126784 139922400 137207376 135091248 133655232 132941216 
1078.984 132953496 133651760 134955952 136734384 138810064 140981680 
1081.877 143015280 144687472 145822064 146304240 146117216 145340192 
1084.770 144145856 142761216 141434880 140421360 139927968 140110144 
1087.663 141061120 142800112 145276400 148367824 151904704 155665904 
1090.556 159401872 162879808 165879376 168227200 169812768 170577696 
1093.449 170517680 169669152 168103968 165915200 163205840 160089184 
1096.343 156672784 153054944 149330720 145581504 141879040 138286064 
1099.236 134845104 131577152 128475872 125509408 122625048 119761048 
1102.129 116867776 113916800 110915328 107904936 104961248 102180224 
1105.022 99658552 97492816 95761496 94519232 93801760 93622504 93977840 
1108.397 94849496 96207848 98012952 100211712 102742864 105532528 108489040 
1111.772 111512064 114482568 117265960 119731504 121750904 123216888 
1114.665 124061840 124256536 123815312 122786344 121247480 119291800 
1117.558 117014072 114511856 111870816 109158824 106430208 103719528 
1120.451 101046760 98424312 95861928 93372240 90975560 88697112 86566952 
1123.827 84616368 82871928 81355376 80083344 79066816 78315584 77839032 
1127.202 77646792 77748352 78150024 78851616 79842120 81097800 82581784 
1130.577 84238928 86001000 87789560 89513352 91085392 92430768 93496368 
1133.952 94266072 94763560 95052600 95220400 95369408 95599136 95983000 
1137.328 96564232 97344784 98287672 99317440 100330664 101215808 101853312 
1140.703 102137976 101992656 101365000 100235824 98613504 96529176 94029552 
1144.078 91173176 88031144 84678216 81193696 77660264 74151344 70734496 
1147.453 67467608 64392440 61539776 58928396 56566004 54452544 52581916 
1150.829 50944440 49527452 48316744 47298452 46458288 45784256 45267640 
1154.204 44902556 44686040 44616860 44694084 44916296 45281576 45788528 
1157.579 46437640 47231692 48176152 49276812 50538852 51964832 53553276 
1160.954 55297832 57186384 59201148 61314160 63486332 65669984 67803320 
1164.330 69818336 71647704 73223296 74486848 75393248 75909504 76020520 
1167.705 75728208 75052744 74028144 72700584 71125240 69356728 67449496 
1171.080 65455704 63419408 61381440 59378324 57440040 55593920 53863180 
1174.455 52264856 50812232 49513452 48371888 47388240 46561180 45888980 
1177.831 45370364 45004088 44789180 44724568 44809640 45044588 45431428 
1181.206 45973944 46677124 47546988 48587652 49801832 51189148 52746128 
1184.581 54463588 56323760 58299424 60346060 62403420 64401084 66255464 
1187.956 67884632 69218088 70198176 70791976 70992168 70817520 70309112 
1191.332 69525456 68539792 67426040 66257624 65103816 64020632 63054920 
1194.707 62242208 61604568 61154576 60894092 60815760 60901828 61124024 
1198.082 61445864 61818452 62184548 62484488 62652676 62629288 62365128 
1201.457 61824296 60992836 59880712 58522908 56973108 55298436 53573780 
1204.833 51866660 50236444 48729156 47372716 46181924 45159392 44300092 
1208.208 43594008 43028436 42590224 42264888 42037896 41896692 41830652 
1211.583 41833428 41903008 42041364 42252032 42538436 42901980 43341316 
1214.958 43851904 44426216 45054952 45726088 46424660 47134328 47836980 
1218.333 48514360 49151532 49736432 50261668 50723856 51123092 51462264 
1221.709 51746936 51986156 52193368 52385356 52584012 52812916 53094020 
1225.084 53447584 53887036 54418668 55040348 55742812 56509128 57315820 
1228.459 58136776 58943500 59708120 60408848 61029636 61563256 62011528 
1231.834 62385324 62705232 62998720 63304128 63667260 64137416 64770096 
1235.210 65618308 66727928 68138608 69877760 71961408 74395760 77178408 
1238.585 80298000 83732168 87448896 91401400 95527584 99758584 104014888 
1241.960 108211824 112269552 116105216 119638792 122799536 125522960 
1244.853 127758160 129472344 130647136 131279152 131375912 130955488 
1247.746 130044864 128679920 126906488 124772344 122322064 119592184 
1250.639 116604808 113371552 109900048 106203312 102309328 98268304 94146664 
1254.015 90029480 86010696 82176384 78607384 75365808 72487848 69986976 
1257.390 67849736 66041508 64506240 63175232 61974536 60825552 59659228 
1260.765 58421728 57076068 55608868 54026972 52355492 50629464 48890100 
1264.140 47179316 45531536 43975080 42529852 41206456 40009208 38936140 
1267.516 37980808 37133556 36383240 35720016 35135788 34625324 34186076 
1270.891 33816540 33515132 33279472 33106544 32993846 32939584 32943550 
1274.266 33005714 33125066 33297322 33515062 33765720 34033108 34298904 
1277.641 34542116 34740564 34874324 34924740 34878992 34733028 34491500 
1281.017 34168044 33781580 33353846 32903590 32444548 31985742 31532514 
1284.392 31090082 30666626 30273848 29927144 29643326 29436736 29318642 
1287.767 29296806 29375858 29559720 29852854 30259852 30784552 31428028 
1291.142 32186628 33050332 34001000 35013224 36049916 37065564 38009592 
1294.518 38826920 39470384 39908288 40129268 40146380 39995256 39729112 
1297.893 39405252 39080552 38804672 38612984 38529224 38564568 38718564 
1301.268 38978220 39317752 39702060 40085728 40419912 40661848 40775680 
1304.643 40740124 40549176 40211004 39744432 39175656 38537300 37862752 
1308.019 37185100 36536320 35941600 35419052 34978964 34623676 34351008 
1311.394 34157008 34039628 33999028 34037480 34157080 34358396 34639788 
1314.769 34998892 35433608 35943800 36531168 37197332 37941680 38759932 
1318.144 39643360 40580968 41562028 42576776 43617160 44674512 45735512 
1321.520 46780696 47782052 48702872 49504836 50150304 50609956 50871532 
1324.895 50943100 50858120 50669456 50449640 50277812 50224616 50347572 
1328.270 50676232 51210060 51919716 52756084 53664052 54589064 55492664 
1331.645 56353864 57169220 57949124 58712708 59483452 60282636 61128448 
1335.021 62032628 62998564 64019404 65077564 66147676 67195920 68184512 
1338.396 69077488 69839824 70443256 70869160 71109120 71166536 71054912 
1341.771 70796184 70416016 69941080 69398128 68809568 68193536 67563640 
1345.146 66927456 66288540 65647476 65002784 64351512 63688896 63008100 
1348.521 62299992 61554932 60767052 59937004 59077180 58211404 57377792 
1351.897 56623152 55996944 55551028 55329484 55365200 55676476 56260692 
1355.272 57091032 58111812 59248084 60407172 61488388 62404260 63081004 
1358.647 63469648 63551216 63334832 62858000 62178580 61378348 60554104 
1362.022 59804504 59227844 58898984 58854744 59089936 59556760 60177848 
1365.398 60852160 61475336 61948168 62180800 62113244 61720240 61018384 
1368.773 60061064 58930936 57724040 56525432 55406832 54418292 53586184 
1372.148 52924248 52438180 52132356 52012036 52081100 52336800 52765024 
1375.523 53340800 54033952 54812860 55653576 56541284 57470032 58442084 
1378.899 59466696 60560316 61745032 63047828 64495168 66100956 67853448 
1382.274 69700136 71550016 73267136 74690048 75663328 76040336 75718424 
1385.649 74660264 72918032 70644144 68066552 65461940 63071468 61054536 
1389.024 59481212 58337588 57561228 57066428 56769940 56595180 56472676 
1392.400 56344584 56157964 55869444 55453772 54907676 54252772 53525200 
1395.775 52764088 51997472 51236344 50481684 49733312 49000244 48308040 
1399.150 47694992 47200848 46857900 46679632 46662512 46791324 47047732 
1402.525 47414516 47877788 48428340 49058892 49762924 50533236 51361372 
1405.901 52238732 53157304 54110812 55095112 56108080 57147568 58210496 
1409.276 59291988 60384900 61481672 62576056 63663924 64742208 65806604 
1412.651 66848376 67853560 68805064 69686600 70490064 71219352 71890592 
1416.026 72527944 73159680 73812256 74505528 75253184 76060432 76922176 
1419.402 77823576 78738840 79635064 80475704 81226328 81861896 82368560 
1422.777 82752680 83041664 83284072 83534848 83840864 84228712 84698360 
1426.152 85230800 85799136 86381360 86963760 87542192 88119776 88703936 
1429.527 89305576 89939232 90627448 91398048 92278552 93290832 94442960 
1432.903 95728320 97128376 98622400 100197520 101849368 103585712 105418728 
1436.278 107357160 109392896 111503792 113660768 115831024 117979912 
1439.171 120061592 122018200 123767456 125207736 126240416 126771016 
1442.064 126729416 126079160 124815232 122967144 120594576 117793184 
1444.957 114681256 111382552 108029160 104738656 101614888 98753400 96228976 
1448.332 94088520 92341704 90961872 89899744 89103232 88540264 88205712 
1451.708 88118232 88301936 88765520 89483672 90397920 91410848 92400112 
1455.083 93238632 93798840 93999600 93845192 93454824 93018184 92713176 
1458.458 92658504 92894152 93415048 94202184 95234560 96489088 97929376 
1461.833 99502816 101126504 102682592 104041784 105070200 105672008 
1464.726 105823584 105582592 105064504 104390712 103663824 102945376 
1467.619 102261312 101617608 101003736 100393120 99732160 98936408 97893800 
1470.995 96478496 94602080 92260608 89567880 86722928 83941464 81380280 
1474.370 79103944 77111728 75378776 73888960 72649384 71679544 70989752 
1477.745 70566608 70367664 70334976 70406160 70533680 70693504 70883944 
1481.120 71121032 71428960 71835512 72366768 73051272 73925728 75032776 
1484.496 76418584 78121584 80156704 82499880 85072008 87747992 90344520 
1487.871 92634224 94379536 95336680 95309112 94201936 92052336 89038960 
1491.246 85425216 81502104 77503192 73571504 69781568 66148296 62667264 
1494.621 59351888 56243080 53416072 50963668 48962788 47449772 46412384 
1497.997 45808596 45583680 45689240 46089068 46752764 47649584 48745540 
1501.372 49997816 51358572 52780400 54204648 55562516 56769376 57699896 
1504.747 58193828 58067048 57157128 55415112 52973808 50127696 47193164 
1508.122 44389884 41803108 39425140 37217804 35153104 33223846 31446904 
1511.498 29848630 28446996 27247852 26240590 25405800 24720494 24162778 
1514.873 23712250 23346336 23042222 22781616 22554844 22366598 22230672 
1518.248 22161416 22163020 22224150 22317726 22412336 22483480 22530520 
1521.623 22578892 22669402 22834764 23082578 23398296 23755012 24129466 
1524.999 24507818 24892536 25297262 25739700 26230878 26770746 27351338 
1528.374 27963274 28603320 29275432 29989448 30755068 31576984 32453082 
1531.749 33375104 34330424 35308192 36300708 37305352 38319740 39341116 
1535.124 40361916 41371776 42355396 43295664 44177188 44981008 45688760 
1538.500 46282136 46744052 47060876 47226448 47250680 47156228 46975176 
1541.875 46737412 46460060 46143048 45771408 45326964 44799904 44202060 
1545.250 43565872 42936764 42354080 41833900 41368972 40934140 40501056 
1548.625 40052372 39592724 39147044 38752072 38436760 38211364 38066084 
1552.000 37981024 37937668 37927720 37956468 38037620 38184120 38397920 
1555.376 38666116 38961836 39251704 39494516 39644084 39659004 39517520 
1558.751 39245500 38919432 38640436 38480780 38460216 38562864 38756272 
1562.126 39008052 39290440 39585388 39884792 40190724 40513456 40866064 
1565.501 41257972 41689372 42150848 42624872 43093128 43538256 43949124 
1568.877 44323244 44667388 44995156 45319568 45651512 45995680 46351364 
1572.252 46712988 47070736 47410524 47710860 47945864 48089644 48124580 
1575.627 48054144 47907088 47731124 47567280 47434508 47324052 47209420 
1579.002 47058032 46841624 46545248 46166852 45716960 45211120 44664708 
1582.378 44087692 43483536 42853924 42202004 41533480 40855904 40174296 
1585.753 39488276 38792900 38083376 37360268 36634404 35925192 35256444 
1589.128 34650516 34120840 33672148 33302366 33007036 32781154 32617710 
1592.503 32504678 32420162 32331950 32205038 32006070 31714868 31329438 
1595.879 30865726 30351514 29815908 29285002 28775916 28299818 27866246 
1599.254 27485558 27169256 26927280 26764156 26677264 26658624 26699462 
1602.629 26792914 26935988 27126718 27359386 27619362 27883982 28121828 
1606.004 28300314 28392910 28381448 28259786 28031586 27707362 27300034 
1609.380 26823012 26293320 25731650 25163820 24619946 24125684 23697236 
1612.755 23337842 23038098 22780638 22545282 22315564 22080320 21836354 
1616.130 21588102 21346950 21128268 20947384 20817010 20744332 20729942 
1619.505 20767722 20844994 20945820 21051398 21147644 21228462 21298752 
1622.881 21371522 21462514 21583016 21734834 21912978 22109990 22321006 
1626.256 22543990 22778438 23022412 23269142 23508914 23732826 23937560 
1629.631 24128800 24318234 24520124 24743854 24990514 25251008 25508462 
1633.006 25743286 25934410 26065200 26125686 26115234 26044268 25932368 
1636.382 25803866 25679304 25571012 25482846 25410296 25343976 25271554 
1639.757 25182956 25072578 24943592 24806718 24677216 24568226 24485382 
1643.132 24423864 24369468 24302288 24200822 24049402 23842970 23591050 
1646.507 23316410 23048582 22817164 22642454 22534532 22493878 22513106 
1649.883 22578438 22666750 22746036 22771280 22690314 22467708 22114764 
1653.258 21706026 21338424 21077308 20926940 20854728 20818020 20784824 
1656.633 20738840 20676704 20604674 20530952 20461030 20393898 20321984 
1660.008 20234912 20123492 19982750 19813198 19619134 19408282 19190156 
1663.384 18974910 18773504 18596400 18450480 18338100 18254190 18186672 
1666.759 18116712 18023346 17888668 17703228 17470846 17208080 16938722 
1670.134 16684473 16458899 16266294 16103309 15962625 15833808 15704481 
1673.509 15558878 15380230 15157118 14890056 14597012 14307007 14049570 
1676.885 13841131 13681209 13556383 13448202 13341757 13231067 13121909 
1680.260 13027049 12959587 12922482 12903810 12874456 12796303 12632160 
1683.635 12366612 12023075 11659320 11338176 11093982 10927049 10814799 
1687.010 10730325 10650418 10560510 10454872 10333344 10199572 10058820 
1690.385 9918760 9788706 9678342 9596596 9546702 9523738 9513273 9493562 
1694.243 9440193 9335504 9179972 8998008 8828701 8704551 8637048 8613119 
1698.100 8604264 8573138 8485078 8321238 8090312 7831338 7593186 7410774 
1701.958 7291309 7221970 7182488 7153484 7119498 7068743 6994591 6895741 
1705.815 6777191 6648244 6520445 6404654 6307889 6232219 6175686 6133543 
1709.673 6100544 6073360 6052192 6039962 6040164 6054645 6081693 6116371 
1713.530 6152160 6182811 6204489 6215648 6215144 6200389 6165738 6105114 
1717.387 6016410 5905658 5787445 5678798 5593270 5536283 5505007 5491316 
1721.245 5485813 5481384 5474472 5465445 5457460 5453467 5455145 5461923 
1725.102 5472525 5486618 5505376 5530746 5563836 5603406 5644525 5680779 
1728.960 5706730 5720528 5725195 5726907 5731104 5738356 5741008 5723315 
1732.817 5665874 5553667 5387339 5187677 4989681 4824373 4705985 4632403 
1736.675 4591247 4568410 4551031 4531076 4505196 4473425 4438945 4404903 
1740.532 4374578 4350213 4333145 4324611 4324845 4333346 4348105 4367115 
1744.389 4388903 4413271 4441689 4476304 4517583 4564258 4612042 4654540 
1748.247 4685621 4700023 4694463 4667937 4620347 4553409 4470646 4378427 
1752.104 4286462 4204319 4141091 4100884 4082622 4079511 4081384 4076467 
1755.962 4056400 4019311 3971224 3922607 3883524 3859454 3849325 3846817 
1759.819 3843207 3830705 3805067 3766595 3719305 3668879 3620730 3578834 
1763.677 3545828 3523547 3513225 3515096 3527455 3546329 3566407 3582375 
1767.534 3591930 3597343 3604125 3617890 3641212 3670416 3696982 3708878 
1771.391 3696013 3655279 3593066 3522545 3457479 3406048 3369081 3341701 
1775.249 3318429 3296426 3277029 3264377 3262707 3272890 3291719 3312318 
1779.106 3326742 3329747 3321033 3305240 3289448 3279399 3277630 3281736 
1782.964 3287712 3290784 3287879 3278832 3265478 3250789 3237370 3227689 
1786.821 3224217 3229959 3248453 3282304 3331584 3392390 3456644 3513426 
1790.678 3550939 3561396 3542421 3498896 3440246 3377329 3318562 3267715 
1794.536 3225786 3192440 3167573 3151520 3144778 3146480 3154223 3164603 
1798.393 3174249 3180958 3183928 3184262 3182460 3178221 3170611 3158061 
1802.251 3140373 3119314 3098356 3081904 3072828 3072294 3078901 3090247 
1806.108 3103562 3117945 3133898 3152754 3175017 3199182 3221747 3238404 
1809.966 3245415 3241242 3227155 3206459 3182794 3159063 3137035 3117778 
1813.823 3102427 3093117 3092149 3101059 3119814 3145846 3174215 3200084 
1817.680 3220712 3236034 3249254 3264276 3284574 3311350 3343070 3377329 
1821.538 3412193 3446424 3480191 3513159 3543757 3568912 3585449 3592498 
1825.395 3592632 3592465 3599682 3620062 3654343 3697416 3739223 3769403 
1829.253 3779497 3768200 3741162 3709079 3681677 3664802 3658854 3660759 
1833.110 3666406 3673390 3682011 3694308 3712855 3738588 3770807 3807841 
1836.968 3848355 3893319 3945210 4007171 4081350 4167585 4263005 4363700 
1840.825 4465993 4567405 4666966 4763802 4856404 4942089 5018204 5083337 
1844.682 5139628 5191935 5245724 5304552 5367849 5430585 5485478 5525242 
1848.540 5545243 5544539 5525813 5493027 5449542 5395760 5330480 5251661 
1852.397 5159779 5058094 4952613 4849435 4753216 4664688 4581938 4501714 
1856.255 4422107 4343553 4269062 4201274 4141158 4086434 4032688 3975370 
1860.112 3912042 3843809 3775118 3710884 3654878 3607433 3566741 3530328 
1863.969 3497426 3470004 3451968 3447192 3457112 3478020 3503071 3523848 
1867.827 3533769 3530295 3515931 3496558 3478254 3464560 3456076 3451367 
1871.684 3448762 3447460 3447593 3449363 3451635 3452069 3447794 3436572 
1875.542 3418538 3396430 3374591 3356426 3342736 3330949 3316959 3296727 
1879.399 3269150 3236735 3204123 3176786 3157093 3144110 3133631 3120582 
1883.257 3101693 3076732 3048502 3021309 2998621 2982073 2970396 2961822 
1887.114 2954883 2948912 2944141 2940739 2937336 2932065 2922592 2908915 
1890.971 2893705 2881163 2876360 2881597 2895473 2913118 2928296 2936635 
1894.829 2936869 2932299 2928296 2929964 2938570 2951414 2963157 2969228 
1898.686 2967627 2960888 2953349 2950113 2953215 2961689 2971597 2979037 
1902.544 2982273 2982773 2983574 2987944 2996953 3008964 3020574 3028916 
1906.401 3033053 3034588 3036190 3039593 3043931 3046166 3042096 3029817 
1910.259 3011366 2991548 2977068 2972698 2978436 2990747 3003959 3013535 
1914.116 3018272 3021242 3025980 3035155 3047101 3055910 3053174 3032720 
1917.973 2993916 2942373 2887501 2838005 2798152 2766739 2737495 2704653 
1921.831 2665046 2620242 2575876 2538780 2513551 2501187 2499421 2505053 
1925.688 2516118 2532314 2554178 2580742 2608575 2631076 2641977 2637343 
1929.546 2618275 2589842 2559411 2533348 2513085 2495655 2475361 2447970 
1933.403 2413217 2375302 2340788 2315205 2299849 2290822 2281529 2266673 
1937.260 2244791 2219546 2197566 2184944 2183912 2192071 2203627 2213118 
1941.118 2217781 2219013 2221144 2227372 2238163 2250253 2259812 2264741 
1944.975 2267839 2274767 2293220 2326297 2372204 2422047 2464431 2490457 
1948.833 2496722 2485925 2465931 2444538 2425179 2407220 2386330 2358678 
1952.690 2323466 2283927 2245623 2212619 2184745 2157438 2123674 2078627 
1956.548 2022165 1960253 1901943 1854623 1821980 1801185 1786346 1771807 
1960.405 1755971 1741300 1731952 1730854 1735711 1739404 1734647 1717115 
1964.262 1688309 1655878 1629171 1614970 1613506 1617032 1615701 1601966 
1968.120 1574098 1537952 1501942 1472385 1450808 1432059 1408423 1373986 
1971.977 1328185 1276806 1227959 1189316 1164631 1153435 1155328 1172571 
1975.835 1211511 1281558 1388412 1527977 1684683 1834358 1954229 2028956 
1979.692 2056221 2045701 2013610 1975497 1940749 1912194 1887633 1864872 
1983.550 1843974 1828768 1823877 1831929 1851095 1875121 1896253 1909797 
1987.407 1915222 1916620 1920281 1929899 1945242 1962117 1974998 1980290 
1991.264 1978726 1974765 1972868 1976263 1983020 1988179 1986548 1976030 
1995.122 1958056 1938419 1923076 1915389 1913924 1913991 1909931 1899181 
1998.979 1883341 1867634 1857750 1856586 1860945 1864173 1858349 1838418 
2002.837 1804179 1760129 1711660 1664992 1622852 1585604 1554212 1531235 
2006.694 1521293 1529806 1558502 1603629 1655180 1702479 1736909 1757535 
2010.552 1770509 1786113 1814394 1858050 1912460 1967043 2011813 2040342 
2014.409 2052326 2053025 2047599 2038910 2025228 2001727 1965345 1918251 
2018.266 1868366 1827271 1805011 1806409 1828402 1862975 1899680 1931896 
2022.124 1957424 1978060 1995402 2008950 2015142 2010282 1993871 1971170 
2025.981 1952398 1949269 1969506 2012445 2069504 2128336 2178284 2215349 
2029.839 2243891 2272069 2307776 2353914 2406187 2457100 2500387 2536214 
2033.696 2571310 2615809 2677848 2758069 2849811 2940705 3020041 3081470 
2037.553 3126656 3161399 3192440 3223516 3253026 3277196 3291585 3295658 
2041.411 3293655 3291953 3296126 3307411 3322502 3335757 3343203 3344706 
2045.268 3345975 3355524 3381837 3427521 3490245 3562364 3635231 3700892 
2049.126 3755499 3796978 3825958 3842672 3848054 3844009 3835151 3827897 
2052.983 3830571 3849258 3886365 3937787 3996370 4052520 4099345 4134601 
2056.841 4159991 4180064 4198196 4214958 4228609 4237442 4240921 4241992 
2060.698 4246476 4259525 4283584 4316479 4351451 4380402 4397773 4402158 
2064.555 4396903 4388100 4381473 4379063 4380402 4382042 4381473 4379097 
2068.413 4377490 4379799 4387565 4399012 4409053 4412300 4404769 4386360 
2072.270 4361525 4336893 4317516 4306707 4304164 4307511 4314605 4325046 
2076.128 4339972 4361324 4389205 4421237 4452803 4478547 4495922 4505464 
2079.985 4510787 4517349 4529034 4547014 4569682 4594194 4617735 4639536 
2083.843 4659865 4679693 4698047 4711981 4717407 4711278 4693324 4667401 
2087.700 4640943 4620983 4611975 4613884 4621486 4627547 4625505 4612344 
2091.557 4589572 4562182 4535395 4513432 4498165 4488992 4484707 4484640 
2095.415 4488590 4497094 4509146 4522739 4534726 4542795 4546545 4549157 
2099.272 4555184 4569682 4595198 4630997 4673228 4716670 4758174 4796398 
2103.130 4833051 4870846 4910789 4951774 4991055 5024640 5050618 5069995 
2106.987 5085851 5102949 5124473 5151195 5181406 5212156 5240929 5266451 
2110.844 5289928 5312367 5333969 5353760 5368788 5377276 5378886 5376772 
2114.702 5375330 5379657 5392607 5413273 5438234 5462090 5480277 5490846 
2118.559 5494470 5493698 5491685 5490612 5491450 5494739 5501383 5512557 
2122.417 5530176 5554842 5585349 5618443 5649325 5674199 5691320 5702332 
2126.274 5710389 5718816 5729022 5739498 5747019 5747858 5740673 5726907 
2130.132 5711094 5697900 5690783 5690011 5693637 5697665 5699747 5699915 
2133.989 5699076 5699210 5700821 5701224 5696927 5684674 5664028 5638684 
2137.846 5615053 5599077 5594780 5601628 5615792 5631702 5644860 5652615 
2141.704 5655434 5653655 5646102 5630024 5601963 5559070 5502859 5438771 
2145.561 5373518 5314447 5264975 5223155 5183653 5140935 5091014 5034562 
2149.419 4975235 4915581 4856907 4796699 4729064 4648445 4552806 4442091 
2153.276 4319658 4188160 4047738 3896562 3734177 3565939 3406816 3280601 
2157.134 3215739 3233898 3341901 3524148 3747846 3975002 4171733 4319825 
2160.991 4417421 4472688 4497998 4503120 4493947 4472621 4441388 4403999 
2164.848 4366144 4333446 4309016 4292586 4280405 4268961 4256313 4243565 
2168.706 4233561 4227271 4223289 4215527 4197193 4162333 4111420 4049477 
2172.563 3986639 3932370 3892617 3867210 3850695 3835385 3814292 3786148 
2176.421 3752358 3716932 3683582 3654577 3629150 3608168 3593033 3587420 
2180.278 3595338 3618191 3652272 3690065 3720809 3735580 3730567 3708377 
2184.135 3675127 3638572 3604927 3575828 3551039 3529460 3510887 3499330 
2187.993 3499063 3512357 3538846 3573122 3606831 3632926 3648095 3653708 
2191.850 3655179 3659790 3670817 3688293 3708812 3726624 3737887 3741730 
2195.708 3740126 3736817 3736282 3740660 3750553 3766295 3786416 3810883 
2199.565 3838828 3867510 3893420 3911708 3918963 3914416 3901912 3888171 
2203.423 3880983 3886833 3907528 3941331 3983295 4028340 4072822 4115735 
2207.280 4157047 4196557 4232490 4260663 4277327 4279569 4268125 4246041 
2211.137 4218806 4191572 4167117 4146343 4128914 4114163 4103158 4098108 
2214.995 4101018 4112491 4129951 4149220 4164708 4173138 4174176 4170629 
2218.852 4166481 4165846 4170395 4179361 4190134 4199669 4206727 4210809 
2222.710 4212181 4210977 4206594 4196892 4180933 4159121 4133531 4107875 
2226.567 4085498 4067638 4053457 4040079 4024562 4005968 3985536 3965907 
2230.425 3949690 3938255 3929896 3922306 3913279 3902881 3894155 3892016 
2234.282 3900741 3922105 3953870 3991221 4028374 4061818 4091418 4120218 
2238.139 4152631 4191103 4235936 4284621 4332676 4377155 4417020 4452904 
2241.997 4486447 4518956 4549458 4575743 4596069 4609765 4619477 4629389 
2245.854 4644225 4666731 4697277 4732079 4766683 4797302 4821290 4838445 
2249.712 4850373 4857912 4861531 4861363 4857644 4852584 4849502 4852785 
2253.569 4865485 4888337 4918228 4949663 4976877 4995345 5003456 5002585 
2257.427 4995345 4983715 4968766 4950367 4928081 4903082 4878184 4857342 
2261.284 4844610 4841695 4847391 4858314 4870243 4880362 4887500 4893230 
2265.141 4899630 4908678 4920306 4933376 4945843 4956902 4966789 4976743 
2268.999 4988306 5001110 5013009 5021288 5023367 5018573 5009355 4999769 
2272.856 4994407 4996150 5005534 5019847 5036171 5051859 5065737 5079314 
2276.714 5094601 5113040 5135034 5159008 5182546 5204175 5223289 5240460 
2280.571 5257362 5274869 5292645 5309751 5325214 5338531 5350774 5363958 
2284.428 5380060 5399887 5423002 5446958 5469539 5488867 5504168 5516047 
2288.286 5526048 5534907 5542961 5549908 5555244 5559473 5563836 5570213 
2292.143 5580449 5595016 5613107 5632675 5651943 5669936 5687225 5705521 
2296.001 5727008 5752626 5782173 5813704 5844230 5871400 5893734 5910931 
2299.858 5923762 5933301 5940019 5944184 5945495 5944319 5941262 5938071 
2303.716 5936022 5936324 5939381 5944487 5950802 5957419 5963869 5970386 
2307.573 5977071 5983790 5990206 5995951 6000688 6004853 6009288 6014865 
2311.430 6022323 6031160 6039995 6047018 6051184 6052158 6051251 6050848 
2315.288 6053401 6060356 6071814 6086431 6101686 6115665 6126620 6134047 
2319.145 6138180 6139726 6139693 6139222 6138718 6138248 6137138 6133476 
2323.003 6124335 6106222 6076283 6032940 5977507 5913853 5847622 5784927 
2326.860 5731171 5688500 5656844 5633616 5615154 5598607 5582664 5567461 
2330.718 5554305 5544975 5539907 5539606 5544035 5552828 5566688 5585719 
2334.575 5609885 5637778 5667385 5695584 5720058 5739800 5755144 5768004 
2338.432 5780595 5794463 5810413 5828379 5848260 5869888 5894372 5922552 
2342.290 5954564 5989837 6026288 6061566 6094428 6125276 6157336 6194843 
2346.147 6242740 6303888 6378696 6464681 6557210 6650869 6739398 6817546 
2350.005 6880660 6925333 6949641 6954119 6941359 6915502 6882175 6846493 
2353.862 6812363 6781802 6755686 6733980 6716415 6703526 6695989 6694172 
2357.719 6697571 6704940 6713655 6721765 6727957 6732264 6736370 6741754 
2361.577 6749662 6760566 6774331 6790856 6810881 6836159 6868507 6909106 
2365.434 6957149 7009743 7063321 7113739 7158537 7197479 7232515 7266207 
2369.292 7300609 7336665 7373634 7410505 7446266 7481390 7516956 7554783 
2373.149 7595648 7639653 7686124 7733748 7782287 7832046 7884207 7939748 
2377.007 7999178 8061147 8124070 8185518 8244036 8299656 8353730 8408218 
2380.864 8464907 8525321 8588987 8655267 8723009 8791235 8859202 8926604 
2384.721 8992258 9054674 9112023 9162205 9203899 9237338 9263401 9283777 
2388.579 9299890 9312856 9322640 9329342 9332964 9334521 9335639 9337907 
2392.436 9342443 9349215 9356493 9362215 9364178 9361538 9354530 9345152 
2396.294 9336147 9329883 9328428 9333235 9344712 9363603 9389978 9424007 
2400.151 9465251 9512494 9564383 9618615 9673803 9729167 9784809 9841509 
2404.009 9900182 9961780 10026708 10094970 10166500 10241500 10320077 
2407.384 10402130 10487829 10576874 10668924 10764018 10862732 10965683 
2410.759 11073690 11186550 11302705 11419979 11534495 11642711 11742307 
2414.134 11832085 11912483 11984652 12050293 12109845 12163953 12212275 
2417.510 12254193 12289776 12319261 12342987 12361293 12374520 12382736 
2420.885 12386282 12386452 12384578 12383044 12383896 12388532 12397499 
2424.260 12410864 12428082 12449188 12475103 12506919 12546513 12595559 
2427.635 12654401 12723282 12801422 12888007 12982324 13083900 13192059 
2431.010 13305984 13425168 13548418 13675156 13805318 13938803 14076608 
2434.386 14219250 14367246 14520844 14680322 14845585 15017186 15195753 
2437.761 15381123 15572890 15770033 15970841 16173530 16377484 16582463 
2441.136 16789124 16998534 17211252 17427248 17646042 17867054 18090078 
2444.511 18316536 18547950 18786028 19031542 19284294 19541942 19801338 
2447.887 20059188 20312854 20561038 20803280 21039676 21270668 21496526 
2451.262 21717452 21933610 22146076 22355364 22562000 22765554 22964698 
2454.637 23156664 23338818 23508460 23663610 23803592 23928492 24038264 
2458.012 24133144 24211822 24272576 24313784 24333792 24331514 24307020 
2461.388 24260838 24193884 24107960 24005172 23887706 23758826 23621906 
2464.763 23479744 23335848 23193046 23053928 22921278 22798274 22688360 
2468.138 22595260 22522494 22472348 22446632 22445934 22469488 22516840 
2471.513 22587338 22679876 22793140 22925190 23072060 23229816 23393820 
2474.889 23559494 23723728 23884170 24039632 24189330 24332424 24468028 
2478.264 24594736 24711376 24816646 24909518 24988900 25053762 25102662 
2481.639 25134400 25148512 25145422 25126850 25095852 25055798 25009642 
2485.014 24959876 24907272 24852116 24793736 24731542 24665640 24596138 
2488.390 24523700 24448470 24370414 24288448 24201592 24108170 24006502 
2491.765 23895898 23775242 23644262 23503004 23351790 23191718 23023774 
2495.140 22849468 22669298 22483550 22291532 22092416 21884788 21668130 
2498.515 21442914 21210022 20971516 20729736 20486664 20244146 20003290 
2501.891 19765100 19530400 19300158 19075474 18857550 18647342 18445606 
2505.266 18252324 18067970 17892638 17726318 17568890 17419902 17279032 
2508.641 17145276 17017968 16896694 16781372 16672008 16568899 16472150 
2512.016 16381200 16295740 16215248 16139623 16069200 16004978 15947914 
2515.392 15898831 15858140 15825802 15801232 15784053 15773710 15769793 
2518.767 15772371 15780650 15793776 15811129 15831610 15855081 15881715 
2522.142 15911583 15944958 15981806 16021134 16061636 16102346 16141891 
2525.517 16179446 16214630 16246824 16275272 16298801 16315969 16325636 
2528.893 16327526 16321920 16309947 16293263 16273070 16250333 16225396 
2532.268 16198259 16168784 16137112 16103549 16068719 16033202 15997414 
2535.643 15961697 15926637 15892781 15860820 15831679 15806044 15783880 
2539.018 15764674 15747460 15731519 15716230 15701596 15688129 15676277 
2542.394 15666727 15659170 15653364 15648350 15643781 15638698 15633339 
2545.769 15627226 15620493 15613349 15605243 15596210 15585392 15572890 
2549.144 15557608 15539955 15519901 15498542 15477837 15460463 15448892 
2552.519 15445219 15449648 15460189 15473545 15485047 15490610 15488138 
2555.895 15477940 15461939 15443983 15427606 15414560 15405394 15398631 
2559.270 15392005 15383422 15371270 15354519 15333374 15307941 15278184 
2562.645 15244345 15206906 15166450 15124421 15082361 15041506 15002884 
2566.020 14967077 14933983 14904046 14877952 14856522 14840750 14831253 
2569.396 14827516 14828167 14831870 14837116 14843321 14850796 14860568 
2572.771 14873803 14891325 14912791 14937447 14963820 14990948 15018113 
2576.146 15045485 15072996 15100749 15128572 15156055 15182852 15209308 
2579.521 15236109 15264353 15295139 15329187 15366602 15406698 15448446 
2582.896 15491091 15534014 15577218 15621112 15666109 15712725 15761409 
2586.272 15812572 15866594 15923372 15982769 16044514 16107503 16170848 
2589.647 16233891 16296290 16358353 16420599 16483782 16548246 16613927 
2593.022 16680270 16746487 16811888 16876266 16939136 17000670 17060594 
2596.397 17118252 17173230 17225386 17274930 17322962 17370826 17419730 
2599.773 17470330 17522868 17576550 17630930 17685662 17741228 17798768 
2603.148 17859872 17925648 17996856 18073428 18154678 18239642 18327802 
2606.523 18418570 18512092 18608640 18708120 18810766 18916692 19025482 
2609.898 19136758 19250002 19363624 19476094 19585648 19690654 19790588 
2613.274 19886068 19978136 20068766 20159450 20250568 20341394 20430884 
2616.649 20517058 20598976 20676424 20749998 20820764 20889564 20956562 
2620.024 21021314 21082978 21140580 21193984 21243840 21291408 21338390 
2623.399 21386384 21436440 21489148 21544436 21601996 21660956 21721038 
2626.775 21781096 21840396 21898552 21955392 22010986 22065888 22120902 
2630.150 22176586 22233218 22291044 22350342 22411010 22473744 22538650 
2633.525 22606012 22675198 22745234 22814162 22880656 22943284 23001800 
2636.900 23057176 23110604 23163934 23218702 23275574 23334588 23395500 
2640.276 23458306 23522660 23588880 23657242 23727578 23799460 23872198 
2643.651 23944808 24016694 24088066 24159064 24230320 24302814 24377108 
2647.026 24453938 24533516 24616194 24702256 24791842 24884920 24981004 
2650.401 25079106 25177936 25276436 25373656 25469144 25563106 25656174 
2653.777 25748910 25842160 25936588 26032940 26131386 26232496 26336270 
2657.152 26442498 26551078 26661338 26772896 26885434 26998498 27111694 
2660.527 27224462 27336024 27445390 27551786 27654990 27755326 27853598 
2663.902 27950940 28048198 28145584 28242884 28339288 28433802 28526178 
2667.278 28616734 28706388 28796274 28887346 28979996 29073940 29168934 
2670.653 29264338 29360330 29457336 29555712 29656062 29758208 29861798 
2674.028 29966300 30070720 30174848 30278894 30382928 30486986 30590822 
2677.403 30694148 30796646 30898350 30999970 31102716 31208160 31317298 
2680.779 31430770 31548440 31669888 31794720 31922902 32055262 32193228 
2684.154 32337948 32490574 32651536 32820426 32996706 33179496 33368268 
2687.529 33562420 33761312 33964488 34171344 34381348 34594144 34810060 
2690.904 35029568 35253460 35481752 35714836 35952292 36193948 36439740 
2694.280 36690072 36945844 37207584 37475984 37750620 38030532 38314420 
2697.655 38601248 38890080 39181132 39475212 39772720 40074608 40381004 
2701.030 40691360 41005108 41321340 41639152 41957856 42276352 42593588 
2704.405 42908128 43218468 43523020 43820312 44109296 44389004 44658280 
2707.781 44916408 45162480 45395780 45616144 45823508 46018924 46202784 
2711.156 46375696 46537872 46689408 46829852 46959304 47077716 47185112 
2714.531 47281972 47367840 47441568 47501924 47547100 47575824 47587396 
2717.906 47582516 47562884 47530796 47489324 47441200 47388720 47334068 
2721.281 47279164 47225712 47175844 47132112 47097212 47073800 47064608 
2724.657 47071288 47094996 47135772 47192836 47264792 47350032 47447404 
2728.032 47556004 47675724 47806764 47949420 48103524 48268156 48442044 
2731.407 48623076 48809524 48999356 49191568 49385092 49579148 49772732 
2734.782 49964660 50153096 50336816 50514252 50684536 50847732 51004204 
2738.158 51154776 51300400 51442420 51581760 51719388 51856392 51993212 
2741.533 52130640 52269416 52409732 52552784 52699292 52850112 53006712 
2744.908 53170112 53340916 53518944 53703644 53893600 54087164 54282132 
2748.283 54476208 54667140 54852444 55029552 55196048 55349956 55489804 
2751.659 55614896 55725332 55821516 55904416 55974856 56033548 56080820 
2755.034 56116900 56141676 56154984 56156080 56144016 56117164 56074036 
2758.409 56012776 55932040 55831048 55709696 55568384 55408148 55229984 
2761.784 55035156 54824476 54599208 54360684 54110696 53851512 53586224 
2765.160 53318208 53050700 52787024 52529600 52281148 52043112 51817188 
2768.535 51604668 51406984 51225272 51061036 50915008 50788172 50680624 
2771.910 50592272 50522028 50468060 50428724 50401188 50382952 50371756 
2775.285 50365020 50361188 50358432 50355384 50350024 50340796 50325132 
2778.661 50300392 50264088 50213832 50148148 50066932 49970716 49861624 
2782.036 49742192 49615472 49484412 49351608 49219400 49089644 48964044 
2785.411 48843824 48729712 48621484 48518064 48417596 48316780 48212356 
2788.786 48101372 47981944 47852964 47715220 47570464 47420760 47268376 
2792.162 47115644 46964140 46815128 46669780 46529316 46395236 46269084 
2795.537 46152812 46048172 45957224 45880620 45819384 45773652 45742912 
2798.912 45726456 45723620 45733452 45755720 45790072 45836392 45894356 
2802.287 45963448 46042500 46129968 46223900 46322756 46425028 46529760 
2805.663 46636468 46744532 46853328 46961332 47066560 47166904 47259992 
2809.038 47344380 47418544 47482444 47535896 47579188 47612352 47634760 
2812.413 47645960 47645148 47631652 47605324 47566396 47515748 47455132 
2815.788 47386872 47313856 47240004 47169344 47106264 47055044 47019704 
2819.164 47003752 47009956 47040824 47097656 47181496 47292576 47430408 
2822.539 47593532 47779688 47986532 48210692 48449228 48698948 48956072 
2825.914 49217544 49479660 49738212 49990120 50231648 50460396 50674704 
2829.289 50874028 51058800 51230268 51390424 51541612 51686508 51828580 
2832.665 51971140 52117752 52272332 52438632 52620064 52819988 53041752 
2836.040 53288468 53563432 53869968 54212116 54594696 55023084 55504452 
2839.415 56047344 56661504 57359264 58154616 59062684 60100860 61287908 
2842.790 62643036 64187044 65940300 67919888 70137768 72595336 75277928 
2846.166 78147408 81138488 84160008 87086384 89776192 92081824 93857112 
2849.541 94987816 95401144 95076440 94047080 92395848 90244208 87724632 
2852.916 84977552 82134472 79300768 76564680 73989992 71616288 69466664 
2856.291 67548384 65856384 64376792 63089780 61973388 61002940 60155244 
2859.667 59409480 58745556 58146780 57599740 57092692 56617452 56168524 
2863.042 55742996 55340172 54961032 54608260 54284684 53994852 53743728 
2866.417 53536860 53380176 53279404 53238312 53258500 53338256 53472320 
2869.792 53651228 53863252 54094820 54330828 54557164 54761664 54933808 
2873.167 55067280 55159328 55211248 55227764 55216740 55187844 55150560 
2876.543 55114708 55088528 55078188 55088380 55121932 55180320 55263964 
2879.918 55372728 55505920 55662952 55843180 56045536 56268840 56510452 
2883.293 56767224 57034200 57305576 57575452 57838120 58089124 58325800 
2886.668 58547968 58757164 58957428 59154364 59354472 59565004 59793892 
2890.044 60048052 60334904 60661956 61036804 61469188 61971364 62557876 
2893.419 63247508 64061528 65020524 66144324 67445120 68924496 70567232 
2896.794 72339912 74187032 76030112 77779856 79338000 80609400 81521808 
2900.169 82029712 82125736 81838736 81232080 80392528 79411432 78383608 
2903.545 77391672 76498920 75756336 75197512 74844416 74711376 74807328 
2906.920 75138416 75709512 76525832 77593424 78920200 80514144 82383096 
2910.295 84530104 86951128 89628888 92528264 95598192 98763632 101930024 
2913.670 104994328 107840536 110356312 112448560 114043320 115101544 
2916.563 115619264 115626312 115177824 114343592 113202784 111828416 
2919.457 110283232 108619936 106874368 105070496 103222176 101336296 
2922.350 99417112 97469840 95503520 93533024 91578840 89663632 87811704 
2925.725 86044744 84378448 82822528 81380280 80048848 78821312 77687680 
2929.100 76636816 75656384 74734128 73858200 73016968 72200168 71398856 
2932.475 70604928 69811872 69014208 68207768 67390056 66560200 65719748 
2935.851 64872072 64022520 63177304 62342372 61523816 60726924 59956668 
2939.226 59218308 58517980 57861928 57257332 56710476 56225920 55806140 
2942.601 55449900 55152664 54905572 54696944 54512348 54335112 54149920 
2945.976 53942968 53704732 53432560 53130192 52808760 52483384 52172444 
2949.352 51893616 51660868 51483752 51365992 51306216 51298312 51333476 
2952.727 51401016 51488524 51583552 51673892 51747456 51794268 51806552 
2956.102 51779040 51709612 51598848 51450028 51267700 51057904 50827540 
2959.477 50582708 50329636 50073216 49817548 49565552 49319572 49081000 
2962.853 48851272 48632012 48424376 48229944 48049776 47884964 47736008 
2966.228 47603108 47486104 47385132 47300188 47231656 47180312 47147512 
2969.603 47135068 47145484 47180940 47243812 47335768 47457016 47606660 
2972.978 47781832 47978132 48188516 48404036 48613888 48804596 48961600 
2976.354 49070764 49118956 49096840 49000544 48832328 48600400 48317964 
2979.729 48002480 47671104 47340904 47026796 46739328 46486096 46270596 
2983.104 46092200 45946728 45826636 45722628 45623248 45517264 45395488 
2986.479 45250800 45080208 44884220 44666324 44432276 44187716 43937756 
2989.854 43685012 43429632 43169168 42900152 42618624 42322520 42012308 
2993.230 41691488 41366640 41045200 40734776 40440900 40166080 39909420 
2996.605 39667028 39433736 39203360 38971404 38735044 38493308 38247188 
2999.980 37998960 37751632 37507988 37270616 37041676 36822304 36613136 
3003.355 36414412 36225860 36047144 35877792 35717500 35565784 35421888 
3006.731 35285264 35154576 35028632 34906744 34788232 34673092 34561600 
3010.106 34453908 34350252 34250108 34152884 34057800 33964560 33873384 
3013.481 33784916 33700184 33620056 33544988 33475190 33410202 33349950 
3016.856 33294208 33243268 33197522 33156928 33121132 33089202 33060238 
3020.232 33033208 33007822 32984410 32963424 32945410 32930608 32918494 
3023.607 32908484 32899980 32893438 32890186 32893080 32905162 32929466 
3026.982 32967928 33020266 33084482 33156358 33230752 33301506 33362936 
3030.357 33410560 33441122 33453576 33448424 33427630 33393994 33350558 
3033.733 33300254 33245310 33187438 33128106 33069070 33012114 32959208 
3037.108 32912132 32872028 32839078 32812384 32790694 32772008 32755178 
3040.483 32739208 32723878 32709804 32697622 32688298 32682616 32681294 
3043.858 32684580 32692510 32704518 32719306 32735742 32752250 32768074 
3047.234 32783370 32798912 32816422 32837148 32862272 32891828 32925178 
3050.609 32961208 32999032 33038464 33079724 33123386 33169448 33217624 
3053.984 33266700 33315174 33361792 33406232 33449390 33492692 33538044 
3057.359 33586472 33638348 33692772 33748528 33804288 33859664 33915224 
3060.735 33972300 34032820 34098044 34169660 34247776 34332432 34422988 
3064.110 34518404 34617468 34719104 34821872 34924700 35027016 35128460 
3067.485 35228812 35327996 35425664 35520616 35611312 35696240 35774016 
3070.860 35843964 35906584 35962984 36014924 36064428 36113104 36162796 
3074.236 36214948 36270668 36330716 36395600 36464820 36537296 36611264 
3077.611 36684372 36755228 36822520 36886324 36947256 37006600 37065452 
3080.986 37124788 37185060 37246788 37310008 37374932 37441780 37510408 
3084.361 37580600 37651852 37723516 37795728 37868572 37943092 38020080 
3087.737 38100808 38185676 38274472 38366360 38460400 38555368 38650468 
3091.112 38745148 38839384 38932916 39025992 39118944 39212320 39307164 
3094.487 39404564 39505804 39611816 39722976 39839176 39959800 40083764 
3097.862 40209512 40335664 40460388 40582208 40699656 40812116 40920016 
3101.238 41024808 41129116 41235820 41347104 41463996 41586388 41712824 
3104.613 41841344 41970120 42098308 42225700 42352472 42478948 42605136 
3107.988 42730556 42854692 42977480 43099532 43221904 43345928 43472332 
3111.363 43601336 43732060 43863304 43994072 44123968 44253164 44382912 
3114.739 44513912 44646712 44780988 44916148 45050988 45184908 45317804 
3118.114 45449712 45580736 45710920 45839596 45966248 46090396 46212252 
3121.489 46332784 46453236 46575232 46699552 46826456 46955244 47084732 
3124.864 47214260 47343308 47471804 47600520 47730200 47861696 47995452 
3128.240 48131912 48271232 48413188 48557380 48702872 48848344 48992196 
3131.615 49133128 49270320 49404136 49535472 49666140 49798036 49932504 
3134.990 50070356 50211452 50355532 50502156 50650648 50800500 50951408 
3138.365 51102928 51254500 51405604 51555976 51705132 51853144 51999636 
3141.740 52144012 52285856 52424424 52559592 52692072 52823432 52955956 
3145.116 53092524 53234980 53384636 53541316 53703868 53870152 54038416 
3148.491 54206712 54373788 54539092 54701944 54862448 55020528 55176520 
3151.866 55330500 55483176 55635084 55786324 55937428 56088288 56238932 
3155.241 56389440 56540076 56690800 56841692 56992528 57142580 57291396 
3158.617 57438528 57584120 57728772 57873704 58019816 58167916 58318072 
3161.992 58469796 58622252 58774692 58926348 59077448 59228108 59378936 
3165.367 59530384 59682724 59835720 59988928 60141732 60293448 60443044 
3168.742 60590028 60733324 60872856 61008548 61140848 61270324 61398196 
3172.118 61525156 61651992 61779256 61907548 62036756 62167192 62298308 
3175.493 62429356 62558680 62684796 62805772 62920468 63028752 63131584 
3178.868 63230916 63328968 63427732 63528700 63632004 63737744 63845156 
3182.243 63953832 64063028 64172292 64280732 64387404 64491092 64590932 
3185.619 64686520 64778476 64868032 64956760 65046504 65138228 65232748 
3188.994 65330172 65430164 65532676 65636992 65742844 65849208 65954676 
3192.369 66057592 66156364 66249788 66337480 66419640 66497408 66571748 
3195.744 66643780 66714288 66783876 66853212 66922860 66993600 67065940 
3199.120 67139760 67214672 67289528 67362848 67433392 67500424 67563712 
3202.495 67623880 67682304 67740120 67798680 67859496 67923336 67990288 
3205.870 68059888 68130432 68199856 68265536 68325480 68378888 68426472 
3209.245 68470544 68513800 68558768 68606880 68657912 68710424 68762280 
3212.621 68811736 68858448 68903096 68947520 68993896 69043264 69095784 
3215.996 69150400 69205272 69258552 69309104 69356840 69402440 69447768 
3219.371 69494512 69544240 69598224 69656376 69718032 69781368 69844832 
3222.746 69906128 69964560 70019680 70072312 70124224 70176832 70231048 
3226.122 70287016 70343744 70399928 70454720 70508032 70560648 70614208 
3229.497 70670192 70729384 70792168 70857656 70924944 70993616 71063304 
3232.872 71134264 71206784 71280960 71356128 71431312 71505600 71578536 
3236.247 71650280 71721720 71794072 71867800 71943184 72019640 72096576 
3239.623 72173288 72249904 72326256 72402736 72479080 72554688 72628392 
3242.998 72699720 72768512 72835824 72903344 72973224 73046800 73124784 
3246.373 73206624 73291384 73377880 73465808 73555208 73646832 73741488 
3249.748 73839112 73939080 74040128 74140568 74239352 74335440 74428480 
3253.124 74518544 74605296 74688472 74767696 74842480 74912760 74979064 
3256.499 75042232 75103128 75162808 75221584 75279776 75337432 75394312 
3259.874 75450360 75505712 75560088 75613792 75666872 75719368 75771208 
3263.249 75822768 75873712 75923904 75972368 76018584 76061496 76100544 
3266.625 76135520 76166832 76195264 76221480 76246248 76270024 76292768 
3270.000 76314304 76334160 76352176 76368056 76381648 76392864 76402392 
3273.375 76410248 76417328 76424160 76431152 76438192 76444664 76450432 
3276.750 76454976 76458928 76463152 76469400 76479000 76492640 76510104 
3280.125 76529976 76550840 76571040 76590640 76610408 76632424 76659024 
3283.501 76691952 76731768 76777984 76829240 76884128 76941568 77000984 
3286.876 77062224 77125304 77189848 77255872 77322936 77391512 77462240 
3290.251 77536304 77614944 77698856 77788456 77883432 77983856 78089936 
3293.626 78202832 78324232 78455608 78597384 78749128 78908840 79074096 
3297.002 79242624 79413104 79584960 79759024 79936232 80117616 80303544 
3300.377 80494808 80691272 80894080 81104024 81322368 81550072 81787608 
3303.752 82034760 82290704 82554528 82825216 83102040 83383864 83670048 
3307.127 83959200 84250592 84543584 84838752 85137352 85440784 85750208 
3310.503 86065912 86387296 86712736 87041448 87372960 87708088 88048632 
3313.878 88396144 88751536 89114376 89482696 89854184 90226792 90599520 
3317.253 90972576 91347056 91723736 92103488 92485912 92870440 93256160 
3320.628 93642768 94029960 94417384 94804032 95188352 95568416 95942416 
3324.004 96309624 96670352 97025912 97377744 97726504 98071880 98411752 
3327.379 98744128 99066840 99378960 99680224 99970888 100251224 100520768 
3330.754 100778480 101022976 101253456 101469416 101670744 101857120 
3333.647 102027112 102178216 102307440 102412080 102491152 102544984 
3336.540 102575872 102586616 102579352 102554808 102512088 102449376 
3339.433 102364520 102256744 102126072 101973472 101799560 101604752 
3342.326 101388392 101149008 100885104 100595280 100278816 99935352 99564648 
3345.702 99166496 98741168 98289376 97812776 97314104 96796704 96263680 
3349.077 95718000 95161208 94594536 94018984 93436176 92847416 92254872 
3352.452 91659608 91062296 90462552 89860088 89254792 88648224 88043152 
3355.827 87443264 86852328 86272832 85705888 85151336 84608240 84076400 
3359.203 83556048 83048640 82555568 82077904 81615760 81167888 80733288 
3362.578 80310520 79899392 79500392 79114440 78742568 78384880 78041472 
3365.953 77711456 77394680 77091312 76801872 76526856 76265872 76017208 
3369.328 75778424 75545928 75316120 75086856 74856304 74623664 74388360 
3372.704 74149688 73906400 73657072 73400128 73134152 72858120 72571016 
3376.079 72272248 71960896 71636328 71298376 70947104 70582552 70204992 
3379.454 69813824 69407528 68984536 68542936 68081440 67600376 67101164 
3382.829 66586576 66059172 65521508 64975308 64421648 63861588 63296384 
3386.205 62727936 62158816 61591280 61027728 60469628 59917644 59372136 
3389.580 58833040 58300336 57773468 57252456 56736260 56224600 55716780 
3392.955 55212904 54713480 54219288 53731204 53249364 52773292 52301816 
3396.330 51834064 51369388 50908524 50452692 50003804 49562584 49128972 
3399.706 48701280 48277080 47853668 47429520 47004052 46578296 46153476 
3403.081 45730836 45310704 44892668 44475916 44059712 43644456 43231348 
3406.456 42822552 42420164 42025340 41638680 41259104 40885280 40515456 
3409.831 40148200 39782924 39419440 39058364 38700632 38347212 37998884 
3413.207 37656624 37320840 36992168 36671284 36358672 36054924 35760308 
3416.582 35475028 35198052 34927896 34662180 34398308 34133708 33867400 
3419.957 33599936 33333346 33070680 32815136 32568600 32331560 32102280 
3423.332 31878612 31657842 31437572 31216776 30995308 30773350 30551574 
3426.708 30330408 30110246 29891862 29676142 29464818 29258916 29059204 
3430.083 28865212 28675700 28488992 28303532 28119174 27936772 27757728 
3433.458 27583490 27414508 27249544 27086760 26923120 26756968 26587816 
3436.833 26417074 26246750 26079804 25917598 25760654 25607670 25456848 
3440.208 25306498 25155324 25003464 24851484 24700888 24552800 24408126 
3443.584 24266864 24128064 23990116 23851090 23708854 23561558 23408752 
3446.959 23250930 23090162 22929800 22773096 22622662 22479816 22344448 
3450.334 22214944 22089244 21965674 21842868 21720586 21598584 21476614 
3453.709 21354400 21231002 21105414 20977670 20847948 20717848 20588690 
3457.085 20462106 20338616 20217902 20098610 19979314 19858494 19735382 
3460.460 19609672 19481396 19351220 19219768 19088526 18959090 18833258 
3463.835 18713030 18599372 18492178 18390052 18290822 18191614 18090632 
3467.210 17986702 17880278 17772742 17665990 17561300 17459256 17360032 
3470.586 17262312 17165820 17069694 16973796 16877918 16781786 16685195 
3473.961 16587626 16489012 16390009 16291508 16195679 16104169 16018556 
3477.336 15939767 15867591 15800683 15737016 15674388 15610429 15543321 
3480.711 15472447 15397772 15321190 15244860 15171804 15103837 15042329 
3484.087 14986455 14934738 14884535 14833550 14780651 14726045 14671102 
3487.462 14618018 14568503 14523825 14483844 14447874 14414443 14382692 
3490.837 14352212 14323205 14296221 14272217 14251364 14234451 14221543 
3494.212 14213087 14208773 14208808 14212881 14220653 14232122 14247393 
3497.588 14267560 14294097 14328444 14371493 14423143 14481823 14544895 
3500.963 14609040 14671925 14732009 14789804 14847333 14908230 14976132 
3504.338 15054438 15145967 15251758 15372060 15505513 15649999 15802538 
3507.713 15960220 16120605 16282255 16445341 16610898 16780374 16955294 
3511.089 17135660 17320892 17509552 17700432 17893018 18087314 18284290 
3514.464 18484534 18687468 18891358 19093166 19289906 19479144 19659798 
3517.839 19831788 19995482 20150980 20296812 20430536 20548810 20648210 
3521.214 20725842 20780060 20809990 20815552 20796920 20754618 20689630 
3524.590 20602796 20495348 20367888 20220436 20052630 19863072 19651410 
3527.965 19418434 19166816 18900184 18623616 18341038 18055434 17768356 
3531.340 17480506 17192500 16905752 16621914 16342597 16068339 15798174 
3534.715 15529447 15258999 14984157 14703868 14419752 14135274 13854370 
3538.091 13581269 13318079 13065973 12824901 12594229 12373259 12161670 
3541.466 11958562 11763379 11574001 11388753 11205420 11022232 10838408 
3544.841 10653337 10466717 10278650 10089375 9899911 9711954 9528853 9353886 
3548.698 9190192 9038705 8898905 8767094 8639279 8511636 8381598 8249405 
3552.556 8117690 7989661 7868180 7754660 7648151 7546286 7446637 7346842 
3556.413 7246362 7145063 7044361 6945533 6849691 6757975 6671090 6590008 
3560.271 6515131 6446756 6384378 6326581 6271851 6218673 6166343 6114287 
3564.128 6062473 6009758 5953859 5890711 5815283 5723650 5614550 5490578 
3567.986 5357919 5224899 5098959 4984653 4883378 4793718 4712450 4636288 
3571.843 4562249 4488858 4415714 4343386 4272542 4204419 4139619 4079043 
3575.700 4022822 3970822 3921838 3873962 3825457 3774249 3719505 3661795 
3579.558 3602956 3546129 3493618 3447827 3409421 3378264 3353521 3334455 
3583.415 3320198 3310449 3304205 3299264 3291919 3277029 3248352 3201385 
3587.273 3133798 3047968 2950346 2850178 2756835 2678148 2617675 2576076 
3591.130 2550078 2534514 2522583 2507886 2485258 2451902 2408419 2357545 
3594.988 2304112 2253184 2208722 2173222 2147549 2130900 2122276 2120145 
3598.845 2123408 2130467 2140190 2151078 2161767 2171857 2181015 2190639 
3602.702 2201695 2215383 2231802 2249620 2265807 2276132 2276499 2262210 
3606.560 2230636 2179849 2111022 2026926 1933028 1835889 1741766 1655579 
3610.417 1579652 1513912 1456128 1403171 1351916 1300833 1250388 1202673 
3614.275 1161309 1129582 1109218 1100316 1100316 1105299 1109617 1107159 
3618.132 1092941 1062947 1016714 956572 888170 817788 752429 697501 656251 
3622.472 629937 618423 620314 634449 658906 692390 732515 775863 816925 
3626.811 847566 857559 837142 780776 690764 579204 465020 365158 290218 
3631.151 242343 217380 207833 205910 204783 200639 192153 180087 166828 
3635.490 154133 143494 135141 128877 124502 121618 120193 120127 120525 
3639.830 120657 118834 114493 107864 100308 94972 95303 105147 127485 163646 
3644.652 213037 273242 339823 407209 467839 514876 541184 542112 515009 
3648.991 461271 384856 293070 194739 99015 13916 -54303 -102769 -131058 
3653.331 -141525 -138378 -127182 -114761 -107109 -108235 -119266 -137020 
3657.188 -156099 -170606 -176469 -172726 -161332 -146229 -131754 -121551 
3661.046 -116947 -117411 -120823 -124036 -124433 -120193 -109891 -92599 
3664.903 -66925 -30548 18522 80920 155890 239757 328018 417192 507744 606710 
3669.725 729030 894910 1121543 1421454 1798057 2248221 2764538 3334054 
3673.583 3937386 4535830 5069156 5462057 5638583 5556587 5224496 4693257 
3677.440 4031350 3304339 2570343 1873357 1250188 729030 323873 33632 -157093 
3681.780 -271415 -334458 -366738 -380775 -382628 -374187 -357137 -334624 
3685.637 -312540 -297706 -297706 -316977 -357170 -415368 -485539 -561093 
3689.494 -635708 -705843 -769419 -825280 -872503 -909404 -935128 -949543 
3693.352 -953775 -949808 -940087 -927226 -913174 -899220 -886358 -874619 
3697.209 -863872 -853257 -842278 -831067 -820286 -811786 -807884 -810464 
3701.067 -820021 -835069 -851637 -865062 -870618 -865790 -850545 -826636 
3704.924 -797400 -765549 -733134 -701047 -668990 -636733 -605301 -576911 
3708.781 -555368 -545275 -550305 -572907 -612613 -666013 -726485 -786849 
3712.639 -839500 -878653 -901700 -908644 -902064 -885531 -863773 -840790 
3716.496 -819591 -801402 -785559 -770444 -754138 -735416 -714709 -693537 
3720.354 -674383 -659264 -648545 -641233 -635410 -628925 -620819 -612249 
3724.211 -605764 -605466 -614201 -633226 -660620 -692313 -721655 -742925 
3728.069 -752021 -747556 -731083 -706075 -676335 -645699 -615657 -586606 
3731.926 -556096 -522474 -485605 -448568 -417917 -401763 -407357 -437447 
3735.783 -487823 -548551 -605367 -646626 -665947 -663168 -642391 -609338 
3739.641 -569366 -525850 -479913 -433375 -388985 -352932 -334690 -344457 
3743.498 -389547 -466872 -561556 -649570 -709416 -732538 -722846 -692776 
3747.356 -656386 -626808 -611985 -614929 -632928 -660819 -693206 -726981 
3751.213 -761712 -797234 -831265 -859143 -874784 -873462 -854414 -821013 
3755.071 -779970 -738459 -703991 -680768 -670512 -671902 -682951 -701146 
3758.928 -724864 -753079 -783840 -813771 -838376 -852827 -854117 -842245 
3762.785 -820550 -794126 -768857 -750036 -740742 -741006 -748449 -759033 
3766.643 -769419 -777225 -781822 -784005 -785096 -787147 -792108 -801302 
3770.500 -815457 -834176 -855836 -877826 -897567 -912281 -920712 -922101 
3774.358 -917142 -906759 -892508 -874983 -855208 -833911 -812316 -791910 
3778.215 -775273 -763961 -758669 -758173 -759959 -761249 -760158 -756255 
3782.073 -751392 -748019 -748812 -754799 -765284 -778018 -789694 -797433 
3785.930 -800013 -797631 -791943 -784865 -777952 -771966 -767037 -763168 
3789.787 -760522 -759132 -759397 -761018 -762506 -761778 -756089 -743685 
3793.645 -723905 -697937 -668858 -640373 -616054 -598055 -586176 -578367 
3797.502 -571550 -563939 -555104 -547459 -545441 -553615 -575421 -610429 
3801.360 -652779 -693074 -720597 -729098 -717124 -688939 -651787 -614599 
3805.217 -585911 -571748 -575024 -593687 -622010 -651688 -675872 -690957 
3809.074 -696349 -693703 -685234 -672266 -655294 -633954 -607650 -577341 
3812.932 -544911 -515028 -492589 -482726 -488353 -508508 -535711 -559968 
3816.789 -570425 -560365 -529424 -483388 -433011 -390507 -368261 -375544 
3820.647 -413448 -474584 -543058 -602158 -639380 -650530 -639182 -613540 
3824.504 -582966 -555269 -535347 -524691 -521349 -521349 -520654 -516980 
3828.362 -509501 -499506 -489213 -480839 -476040 -475114 -476768 -479350 
3832.219 -479185 -473392 -459657 -436851 -406165 -370413 -334359 -303236 
3836.076 -281812 -273104 -277408 -291647 -311282 -331313 -348165 -360613 
3839.934 -369386 -376173 -383291 -391732 -402392 -415236 -430330 -447542 
3843.791 -466409 -485771 -504272 -519992 -530913 -535678 -533693 -524592 
3847.649 -508707 -484944 -451878 -407821 -351807 -284793 -212072 -142751 
3851.506 -90181 -69675 -93792 -165572 -273203 -393652 -501061 -577804 
3855.364 -620091 -633226 -628263 -614665 -599378 -585348 -572576 -558942 
3859.221 -542065 -520786 -495534 -468064 -441584 -418546 -401101 -390143 
3863.078 -385939 -388025 -395142 -404941 -414242 -419605 -417751 -407092 
3866.936 -388951 -366639 -346278 -333895 -334922 -350979 -378490 -409409 
3870.793 -435295 -449760 -451580 -444663 -435394 -431058 -436950 -454626 
3874.651 -481468 -511983 -539021 -556924 -562748 -556129 -539385 -515392 
3878.508 -488650 -463231 -442842 -429701 -424008 -423511 -423809 -420764 
3882.365 -410965 -393752 -372068 -351906 -340981 -346576 -371935 -413713 
3886.223 -462702 -505662 -531476 -534057 -513572 -475610 -428774 -384085 
3890.080 -349953 -332869 -334458 -352072 -379881 -411760 -442412 -468395 
3893.938 -487327 -497289 -496627 -483951 -458200 -420035 -371604 -316149 
3897.795 -258732 -204256 -156894 -119630 -93792 -79116 -74346 -78222 -89817 
3902.135 -108798 -135728 -170606 -213463 -263137 -316480 -369585 -418182 
3905.992 -458266 -487095 -504106 -510063 -507548 -499671 -489842 -480839 
3909.850 -474319 -470546 -468891 -467667 -465019 -459028 -448568 -433077 
3913.707 -412985 -389878 -366076 -344192 -326876 -315420 -309957 -308865 
3917.564 -309163 -308600 -305653 -300156 -293667 -287773 -283733 -281614 
3921.422 -280654 -279230 -276945 -274197 -273071 -275852 -284461 -299196 
3925.279 -317804 -336710 -351741 -359819 -359421 -351078 -336544 -317970 
3929.137 -297077 -275322 -253600 -233697 -217636 -208495 -208429 -218894 
3932.994 -238764 -265057 -293037 -318367 -337670 -349589 -353826 -352072 
3936.852 -345583 -335716 -323102 -308600 -292739 -277044 -263733 -254593 
3940.709 -251547 -255520 -265885 -281084 -298633 -316050 -330684 -340848 
3944.566 -345450 -343795 -336842 -325221 -310454 -294594 -279163 -266017 
3948.424 -255818 -248997 -244824 -242572 -241513 -240618 -239426 -237009 
3952.281 -232604 -225782 -216443 -205316 -193890 -183755 -176502 -172925 
3956.139 -172262 -173256 -173554 -171633 -166532 -158749 -149971 -142154 
3959.996 -137186 -135762 -137683 -141889 -146957 -151628 -154973 -156695 
3963.854 -156728 -155238 -152224 -147785 -142386 -136391 -130230 -124499 
3967.711 -119630 -115589 -112177 -108864 -105088 -100119 -93858 -85676 
3971.568 -76002 -65169 -53938 -43138 -34159 -27798 -24319 -23292 -23855 
3975.908 -24452 -23723 -21006 -16301 -10569 -4605 463 4108 6461 7620 8018 
3981.212 7620 6030 2982 -1656 -7256 -13054 -17560 -19581 -18753 -15572 
3986.034 -11132 -6560 -3313 -1292 -463 298 1822 4738 9078 14380 19483 23393 
3991.820 24917 23558 18986 11762 2915 -6461 -15075 -21271 -24783 -25247 
3996.642 -23657 -20973 -18687 -17825 -19051 -21801 -25843 -30184 -34424 
##END=
