
##TITLE=Z326a_2_e
##JCAMP-DX=5.01  $$ Nicolet v. 1
##DATATYPE=INFRARED SPECTRUM
##ORIGIN=UniL
##OWNER=Nicolet
##LONGDATE=2011/09/15
##TIME=15:48:27
##SPECTROMETER/DATA SYSTEM=Nicolet iS5
##DATA PROCESSING=
Ratio against background
%Transmittance->Absorbance
Truncated
ElementMultiply or ElementDivide
##COMMENTS=
Number of sample scans: 32
Collection length: 51.16 sec
Sample gain: 2.0
Background collected on: Jeu Sep 15 15:37:39 2011 (GMT+02:00);
Number of background scans: 32
Background gain: 2.0
Sample spacing:  1.000
Number of scan points: 12415
Resolution points: 8192
Number of FFT points: 65536
Apodization: N-B fort;
Phase correction: Mertz;
Laser frequency: 15798.0 cm-1
Number of rejected sample scans: 0
Number of rejected background scans: 0
Bench serial number: ASB1000141;
##RESOLUTION=4.000
##XUNITS=1/CM
##YUNITS=ABSORBANCE
##FIRSTX=649.893372
##LASTX=4000.122314
##FIRSTY=0.126320
##MAXX=4000.122314
##MINX=649.893372
##MAXY=0.310852
##MINY=-0.002176
##XFACTOR=1.000000
##YFACTOR=1.000000E-009
##NPOINTS=6950
##DELTAX=0.482117
##ZPD=6100
##XYDATA=(X++(Y..Y))
649.893 126320320 125633568 125053880 124636264 124391752 124294688 
652.786 124300248 124375032 124512312 124734856 125078096 125570368 
655.679 126215296 126990872 127862632 128804744 129814136 130910736 
658.571 132123336 133467720 134939264 136512080 138160176 139874048 
661.464 141672976 143594048 145673568 147917216 150290560 152721488 
664.357 155130704 157453888 159640848 161657952 163457632 164955168 
667.250 166035632 166597872 166625888 166209824 165497104 164605024 
670.142 163577664 162397856 161022000 159418432 157595056 155607904 
673.035 153542480 151494128 149531328 147681248 145939776 144288576 
675.928 142717712 141233008 139852992 138594368 137460576 136435776 
678.820 135491008 134594112 133723792 132870304 132033960 131214112 
681.713 130403192 129584192 128738504 127853512 126933336 125995664 
684.606 125068680 124177504 123334000 122535016 121767480 121016160 
687.498 120271896 119535112 118811632 118106272 117416512 116730592 
690.391 116031416 115306352 114551368 113775336 112995056 112230296 
693.284 111497280 110805576 110161808 109573968 109054072 108620320 
696.177 108292048 108083760 108001960 108042712 108195712 108447944 
699.069 108789664 109215272 109721448 110303136 110949416 111641696 
701.962 112358000 113077760 113786832 114481144 115164096 115841496 
704.855 116514192 117176000 117813256 118412240 118963896 119469712 
707.747 119940728 120395000 120850696 121321912 121819728 122355088 
710.640 122942784 123605664 124369912 125257384 126276448 127414184 
713.533 128632992 129873600 131070984 132163136 133102832 133867640 
716.425 134458256 134897232 135223536 135493328 135775376 136140160 
719.318 136659360 137387104 138344352 139507632 140800240 142102160 
722.211 143251616 144082656 144452848 144262528 143485776 142174368 
725.104 140457056 138504848 136508416 134644160 133031400 131732296 
727.996 130749840 130046160 129563152 129243880 129048008 128949624 
730.889 128933672 128988384 129096760 129237768 129391376 129543512 
733.782 129691464 129842416 130008024 130196648 130407992 130632624 
736.674 130857216 131070120 131266968 131451560 131632552 131818920 
739.567 132014200 132216856 132422312 132627352 132832272 133040664 
742.460 133256064 133477632 133698600 133908496 134097008 134260912 
745.352 134405552 134544016 134689920 134851664 135027344 135206496 
748.245 135374752 135520224 135639424 135737456 135824032 135907072 
751.138 135989728 136068128 136136448 136190480 136231376 136265520 
754.031 136302160 136348240 136405936 136473568 136548624 136631888 
756.923 136729104 136848752 136997168 137173392 137367824 137564368 
759.816 137745552 137900240 138027120 138132704 138227712 138321104 
762.709 138415760 138510224 138603360 138700880 138818784 138985856 
765.601 139238816 139612224 140133984 140813568 141636512 142556560 
768.494 143496448 144356720 145020080 145384832 145389312 145035200 
771.387 144399216 143623280 142888032 142348112 142097744 142132960 
774.279 142354464 142587200 142630880 142328656 141591152 140420400 
777.172 138886176 137094288 135140720 133079600 130921576 128640024 
780.065 126196864 123560872 120726688 117717264 114581648 111383152 
782.958 108190784 105075392 102096304 99301952 96726984 94388024 92288512 
786.332 90419872 88767960 87316360 86050800 84961960 84043912 83293624 
789.707 82709352 82289216 82032200 81938152 82009464 82251456 82671672 
793.082 83278408 84077928 85071160 86249872 87594728 89073536 90638712 
796.457 92234872 93799456 95271976 96609880 97796424 98854816 99847152 
799.832 100875776 102062312 103514008 105301792 107419408 109768672 
802.724 112139776 114241032 115752296 116358272 115847120 114155224 
805.617 111392016 107813696 103769216 99632416 95690360 92113032 88929928 
808.992 86055368 83336416 80615184 77791072 74836384 71802160 68783320 
812.367 65894208 63230000 60846176 58763044 56968764 55435440 54128560 
815.742 53016032 52071092 51269156 50589888 50015252 49530344 49124744 
819.116 48791620 48525808 48322448 48175296 48077240 48022540 48008812 
822.491 48038676 48118880 48258384 48465160 48743464 49092984 49509516 
825.866 49985812 50511716 51074712 51659488 52246544 52815312 53348032 
829.241 53834184 54277064 54697208 55135324 55645028 56291548 57143712 
832.616 58257440 59667668 61370412 63312060 65374852 67377864 69108800 
835.990 70328352 70829728 70486552 69273240 67283616 64702444 61783380 
839.365 58781064 55909692 53331024 51127676 49319348 47879936 46760140 
842.740 45903968 45258668 44783632 44444976 44214752 44071192 43995576 
846.115 43974164 43997852 44060264 44155728 44278224 44420128 44573716 
849.490 44733676 44898032 45068924 45251240 45450964 45672528 45918552 
852.865 46190804 46491108 46822472 47189804 47598228 48052332 48555044 
856.239 49108196 49714028 50378268 51109972 51923528 52836904 53869104 
859.614 55042040 56378876 57904064 59644556 61623508 63851224 66314860 
862.989 68966128 71716720 74431080 76951888 79116104 80776784 81842216 
866.364 82285896 82158848 81575296 80705672 79751056 78900176 78326976 
869.739 78166088 78499032 79366040 80763688 82653920 84962680 87584960 
873.113 90389392 93203304 95832176 98073784 99723280 100620472 100668800 
876.488 99851696 98236984 95964160 93225688 90219944 87139592 84147016 
879.863 81349152 78807208 76535192 74512848 72700384 71054760 69544480 
883.238 68153496 66884556 65752828 64779520 63981816 63367540 62933712 
886.613 62668720 62557340 62584780 62741452 63023196 63429728 63961776 
889.987 64619420 65401232 66305600 67333448 68490640 69787984 71242272 
893.362 72873672 74702248 76745528 79013392 81501696 84182008 86992944 
896.737 89836288 92562624 94991032 96929232 98186760 98626848 98184440 
900.112 96881064 94819944 92170552 89147616 85962184 82814944 79873544 
903.487 77250968 75019312 73209128 71818936 70827624 70204176 69917344 
906.862 69937504 70241792 70814680 71645744 72730192 74066776 75657296 
910.236 77504456 79609912 81968408 84563432 87359216 90294376 93287872 
913.611 96240440 99046360 101619904 103902872 105881976 107589376 109101872 
916.986 110525776 111970536 113538536 115294904 117249816 119345832 
919.879 121456256 123403152 124963704 125927296 126135768 125518576 
922.771 124129216 122148728 119883176 117695064 115976792 115096152 
925.664 115310592 116752872 119387048 123017816 127286496 131716728 
928.557 135814704 139084112 141133152 141733568 140813936 138459904 
931.450 134860112 130274592 124975760 119220896 113261264 107313720 
934.342 101568624 96197968 91332704 87070192 83474128 80570272 78358688 
937.717 76820896 75927768 75641592 75911872 76674088 77832496 79258616 
941.092 80804000 82294424 83562112 84473184 84933952 84913808 84442960 
944.467 83606376 82521472 81315976 80116656 79021304 78096168 77376936 
947.841 76869376 76560016 76423488 76432296 76557800 76773128 77054744 
951.216 77379200 77724936 78074824 78416704 78745832 79064952 79382664 
954.591 79709736 80055576 80427536 80828784 81260688 81723736 82218464 
957.966 82745792 83305504 83895680 84511984 85148880 85801560 86467712 
961.341 87147856 87845040 88562816 89303544 90067192 90852032 91656584 
964.716 92480504 93325744 94195936 95094304 96022552 96980176 97964992 
968.090 98975024 100010304 101073112 102167312 103296568 104462440 105664400 
971.465 106900856 108171528 109479096 110829192 112229096 113685392 
974.358 115201288 116776984 118409896 120098328 121843536 123650104 
977.251 125525344 127477184 129512712 131637528 133858920 136188256 
980.143 138642752 141246816 144027072 147008608 150210464 153641152 
983.036 157296800 161159072 165194256 169344656 173520272 177602976 
985.929 181433616 184825360 187596688 189576976 190646128 190754480 
988.821 189927904 188267056 185927840 183119152 180067424 176993792 
991.714 174113360 171596192 169564816 168094848 167210080 166897072 
994.607 167116304 167820704 168962496 170499472 172399456 174632608 
997.500 177169232 179980048 183032272 186292352 189726768 193294080 
1000.392 196940000 200593792 204156432 207511696 210541168 213130800 
1003.285 215200560 216714032 217684384 218170976 218273232 218126176 
1006.178 217874992 217673488 217671104 217986848 218711328 219895808 
1009.070 221552064 223661520 226186240 229084480 232314192 235838736 
1011.963 239626112 243639152 247835824 252170736 256594416 261060768 
1014.856 265525872 269933600 274207552 278233984 281849024 284863200 
1017.748 287075776 288309440 288461792 287523616 285600000 282889024 
1020.641 279680416 276320224 273146208 270492128 268631232 267742896 
1023.534 267922192 269164256 271386112 274436640 278132448 282284160 
1026.427 286692320 291173408 295552544 299648864 303295456 306339904 
1029.320 308656032 310168416 310851808 310728352 309849728 308284864 
1032.213 306105696 303376640 300160704 296515552 292488768 288115968 
1035.106 283413280 278379360 273001760 267274352 261211120 254858144 
1037.999 248291760 241609488 234924128 228341408 221956704 215855024 
1040.892 210098768 204730384 199763808 195177760 190911456 186866896 
1043.785 182930848 178985104 174936272 170739584 166404768 161998048 
1046.678 157622144 153409184 149491456 145981648 142973280 140524880 
1049.571 138661776 137380976 136654816 136439408 136677632 137312272 
1052.464 138286448 139545296 141039712 142716336 144510128 146345680 
1055.357 148125888 149737040 151066784 152002640 152452368 152357968 
1058.250 151696736 150490256 148801296 146739520 144447824 142088192 
1061.144 139842048 137877568 136338352 135342992 134965984 135243632 
1064.037 136175104 137726800 139833264 142396544 145298656 148392768 
1066.930 151512176 154496320 157186384 159449616 161194608 162364064 
1069.823 162937136 162919440 162334832 161218384 159610128 157558320 
1072.716 155114224 152332688 149277456 146017648 142633168 139222384 
1075.609 135890896 132756296 129942192 127557352 125696840 124431864 
1078.502 123798608 123799496 124396736 125516760 127040488 128809960 
1081.395 130647760 132350000 133723792 134618960 134938816 134671456 
1084.288 133888424 132742408 131433176 130179928 129207608 128699736 
1087.181 128794712 129576456 131064040 133215664 135927824 139055408 
1090.074 142408672 145772432 148943584 151728368 153970576 155567232 
1092.967 156459056 156632864 156111904 154949056 153217392 150999648 
1095.860 148390256 145481264 142360528 139116016 135826656 132564320 
1098.753 129393472 126358968 123484728 120766544 118173600 115652520 
1101.646 113139496 110580568 107941464 105222920 102460992 99726864 97114336 
1105.022 94719672 92640496 90956680 89723760 88977144 88728976 88973200 
1108.397 89688272 90841976 92393016 94288552 96470376 98869832 101404632 
1111.772 103985920 106509896 108860368 110925248 112595048 113779384 
1114.665 114422536 114502496 114035776 113067656 111668520 109920840 
1117.558 107906248 105707128 103393504 101019664 98627264 96241840 93877672 
1120.934 91543824 89248400 87003920 84830904 82754808 80806312 79017016 
1124.309 77413408 76017168 74844064 73903568 73202976 72748920 72547440 
1127.684 72604656 72923600 73501832 74327576 75378224 76620480 78006376 
1131.059 79477872 80968336 82401160 83703000 84809912 85675576 86284912 
1134.435 86656456 86843752 86921696 86979296 87104248 87361448 87790040 
1137.810 88393264 89139768 89965280 90781096 91491464 91993400 92196032 
1141.185 92031192 91451904 90439744 88999672 87157168 84952088 82434096 
1144.560 79664912 76708680 73633912 70512320 67408048 64380528 61481288 
1147.936 58747456 56206684 53875068 51759144 49858612 48168488 46681624 
1151.311 45388936 44280388 43345928 42574000 41954280 41477772 41137640 
1154.686 40929988 40853172 40906324 41089380 41401736 41843384 42415012 
1158.061 43119396 43960784 44944112 46073336 47350216 48772860 50334584 
1161.437 52023540 53822780 55706424 57639696 59580360 61474612 63263380 
1164.812 64887844 66288464 67414080 68224672 68691016 68799000 68550152 
1168.187 67961464 67062580 65893672 64503588 62940188 61251740 59484140 
1171.562 57676212 55864472 54081384 52354332 50708736 49166448 47744108 
1174.938 46454784 45306584 44302876 43444388 42729864 42157640 41726612 
1178.313 41435852 41285044 41273492 41401372 41669604 42081332 42641140 
1181.688 43355264 44230196 45271168 46481004 47859992 49404436 51105724 
1185.063 52946372 54899216 56920372 58949000 60913952 62730312 64313896 
1188.438 65592872 66508608 67028700 67147184 66885440 66286996 65412404 
1191.814 64336292 63132964 61875988 60634448 59464416 58412404 57514208 
1195.189 56791996 56257904 55913872 55752456 55756560 55899404 56146840 
1198.564 56453132 56765336 57028004 57180788 57168280 56945152 56477696 
1201.939 55752228 54775872 53578764 52207456 50721508 49188232 47669072 
1205.315 46218260 44878192 43674388 42619684 41715960 40957772 40335260 
1208.690 39837176 39451552 39165904 38967452 38844528 38786992 38788372 
1212.065 38846596 38963684 39144072 39392304 39711720 40102372 40560964 
1215.440 41080420 41651404 42261928 42897008 43541184 44177556 44789768 
1218.816 45364920 45892736 46367512 46786600 47150284 47461008 47723284 
1222.191 47945196 48138684 48319556 48508284 48726744 48995088 49330340 
1225.566 49742672 50234288 50799752 51427388 52100304 52797352 53496904 
1228.941 54176828 54816884 55402840 55926048 56385892 56788824 57148816 
1232.317 57486596 57826760 58201408 58647508 59204600 59917832 60831728 
1235.692 61986268 63417836 65152512 67206440 69586512 72289896 75304840 
1239.067 78608416 82168056 85938200 89859232 93866784 97888448 101849032 
1242.442 105679784 109311240 112677504 115720200 118384608 120624576 
1245.335 122406080 123703712 124502112 124794736 124582712 123877136 
1248.229 122698920 121081048 119062736 116684808 113986064 110996432 
1251.122 107739632 104238664 100520184 96623952 92606712 88536120 84493760 
1254.497 80566640 76832960 73365320 70218584 67424416 64993120 62911116 
1257.872 61145192 59643188 58341908 57173720 56066908 54958628 53799564 
1261.247 52555516 51213488 49779012 48273860 46728260 45177516 43656360 
1264.623 42192764 40808584 39519012 38331900 37250940 36275204 35400568 
1267.998 34620160 33925724 33309590 32765612 32290402 31883034 31543740 
1271.373 31272746 31068868 30929694 30852384 30834564 30875082 30973210 
1274.748 31127528 31333536 31583394 31864136 32158222 32446046 32705374 
1278.124 32913308 33049762 33097136 33044576 32889470 32638606 32307286 
1281.499 31915698 31486910 31041072 30592812 30152224 29724640 29314530 
1284.874 28928674 28576390 28269936 28023174 27848194 27754018 27747132 
1288.249 27831272 28009850 28286804 28666178 29151216 29742276 30435736 
1291.625 31222366 32085974 33004750 33946824 34872960 35738936 36495596 
1295.000 37100100 37522400 37750804 37796380 37690772 37482884 37225564 
1298.375 36971716 36767200 36644248 36624452 36717724 36922868 37227224 
1301.750 37605748 38023768 38435348 38790832 39045820 39162712 39119452 
1305.125 38910520 38545628 38046552 37442324 36768280 36059564 35350104 
1308.501 34671940 34050060 33502680 33040214 32665182 32375824 32167926 
1311.876 32038994 31988130 32016702 32126006 32316208 32585456 32931432 
1315.251 33352490 33848988 34422808 35076404 35809456 36617676 37491516 
1318.626 38417864 39382904 40372564 41374584 42376400 43362224 44312348 
1322.002 45200828 45995604 46664800 47178244 47514496 47666852 47647440 
1325.377 47490280 47245692 46981640 46771472 46679964 46760512 47040568 
1328.752 47519668 48170596 48948472 49802272 50682708 51554632 52399412 
1332.127 53212992 54002812 54782340 55567296 56371028 57204452 58073368 
1335.503 58977428 59908932 60851284 61781468 62669672 63483992 64195184 
1338.878 64777404 65212300 65489912 65609052 65576492 65404968 65113396 
1342.253 64723484 64258680 63744420 63203320 62654628 62112516 61584484 
1345.628 61072308 60574524 60087164 59605596 59123424 58631884 58118444 
1349.004 57568228 56968536 56312180 55603412 54859852 54114636 53412064 
1352.379 52800496 52332168 52052640 51997060 52187804 52627624 53296632 
1355.754 54148188 55116212 56116980 57057928 57857424 58446592 58779736 
1359.129 58839416 58634464 58199812 57588692 56875688 56149176 55498352 
1362.505 55012816 54759708 54771360 55039672 55517140 56128252 56775456 
1365.880 57359680 57787812 57977860 57877336 57466964 56767184 55832064 
1369.255 54741552 53587200 52448872 51393820 50467912 49695120 49087012 
1372.630 48647980 48381520 48292560 48384668 48655100 49089756 49663204 
1376.006 50343848 51098828 51902132 52738012 53599644 54489808 55418768 
1379.381 56404720 57471204 58647624 59963136 61435752 63059784 64790480 
1382.756 66544600 68193264 69580176 70552352 70964160 70712032 69756664 
1386.131 68145048 66021368 63602196 61151068 58897732 56994604 55509268 
1389.507 54429784 53697832 53232432 52954940 52793012 52681224 52566288 
1392.882 52401060 52148384 51787960 51318968 50761284 50146252 49507064 
1396.257 48866776 48235648 47615900 47010104 46428976 45896532 45445960 
1399.632 45110016 44913580 44866252 44963880 45193876 45541768 45994608 
1403.008 46541708 47175364 47889292 48676296 49528788 50437468 51392324 
1406.383 52383824 53403748 54446048 55507536 56585780 57678364 58782240 
1409.758 59892084 61002100 62107700 63205352 64292684 65365300 66413612 
1413.133 67422016 68370784 69239576 70016872 70703144 71313832 71874408 
1416.509 72417224 72974872 73574288 74235968 74970440 75774088 76630408 
1419.884 77509088 78372696 79180752 79897632 80499160 80974360 81333480 
1423.259 81608208 81850808 82117736 82454648 82884072 83400000 83977608 
1426.634 84584328 85195440 85796232 86384352 86966672 87555200 88166576 
1430.010 88819424 89539416 90356472 91297704 92383712 93619752 94995904 
1433.385 96490160 98079976 99752080 101503912 103346040 105292544 107351520 
1436.760 109510392 111739656 114003640 116266496 118495416 120650608 
1439.653 122683096 124519944 126068536 127236304 127931800 128083824 
1442.546 127652440 126626416 125028432 122912128 120367632 117510016 
1445.439 114462856 111359640 108320920 105451672 102845600 100570888 
1448.332 98665520 97129536 95930600 95017216 94339520 93869576 93606264 
1451.708 93571816 93791888 94276608 95001760 95910392 96908232 97877648 
1455.083 98697624 99249184 99460568 99343680 99020384 98676832 98484288 
1458.458 98556368 98930744 99603200 100556688 101771544 103224072 104873616 
1461.833 106660160 108487456 110218912 111702456 112779864 113335680 
1464.726 113338480 112853416 112016160 110973072 109851408 108732880 
1467.619 107657856 106644824 105692552 104779392 103854344 102830056 
1470.512 101587248 99988784 97933072 95402880 92500672 89420160 86376512 
1473.888 83530304 80952368 78650072 76607680 74818912 73300328 72078384 
1477.263 71165128 70544200 70165816 69963584 69867488 69824680 69808224 
1480.638 69815416 69861920 69971448 70170488 70484256 70940000 71573576 
1484.013 72426856 73545672 74968040 76710104 78751192 81020400 83403416 
1487.389 85732808 87798888 89380720 90247840 90210520 89171456 87155672 
1490.764 84322848 80916040 77207696 73419784 69689984 66092164 62643952 
1494.139 59344212 56209136 53280412 50630580 48346812 46499260 45119280 
1497.514 44192668 43679296 43528660 43696444 44149200 44856556 45785728 
1500.890 46899980 48154384 49500860 50893660 52277488 53588020 54744224 
1504.265 55625628 56076712 55920472 55004168 53288956 50912920 48167896 
1507.640 45360800 42700176 40263132 38037368 35982600 34070344 32292866 
1511.015 30665346 29211388 27945674 26870454 25972644 25231694 24625382 
1514.391 24133984 23740804 23426866 23173126 22962986 22787134 22648248 
1517.766 22557428 22526716 22559834 22647410 22767684 22895500 23013398 
1521.141 23124338 23252050 23430712 23684396 24014524 24404130 24828292 
1524.516 25267302 25712736 26171222 26658730 27193348 27784854 28431362 
1527.892 29123260 29851008 30610590 31405338 32244186 33136510 34087292 
1531.267 35097024 36161144 37271520 38419676 39596500 40792608 41996284 
1534.642 43195992 44379612 45536840 46654732 47719844 48719628 49636312 
1538.017 50450908 51143332 51693600 52085400 52309852 52374628 52301480 
1541.393 52122156 51868448 51560788 51203572 50787128 50298124 49731044 
1544.768 49099812 48438488 47791892 47198336 46673432 46209456 45781016 
1548.143 45360284 44929636 44493392 44075520 43711944 43432120 43247344 
1551.518 43150832 43125876 43157164 43238304 43374228 43575984 43851064 
1554.894 44196224 44594388 45016916 45431612 45801672 46088992 46262932 
1558.269 46313984 46273880 46212660 46214908 46335252 46582980 46941140 
1561.644 47382216 47882192 48422560 48993088 49591220 50218856 50880920 
1565.019 51581124 52317924 53083876 53865992 54647868 55414060 56150648 
1568.395 56847508 57499876 58110224 58686616 59238096 59773628 60298016 
1571.770 60811452 61309432 61782544 62217312 62591976 62879444 63052080 
1575.145 63089708 62994576 62796964 62548308 62295824 62061220 61834648 
1578.520 61584140 61268452 60849872 60306540 59633952 58845676 57963852 
1581.896 57012360 56008100 54959116 53869892 52747404 51603436 50454552 
1585.271 49315228 48192884 47086836 45992256 44907440 43839884 42806644 
1588.646 41830104 40931336 40122252 39404640 38773228 38221748 37744840 
1592.021 37338132 36993288 36692484 36406664 36102628 35747896 35322892 
1595.396 34826396 34275064 33695600 33113800 32548852 32009568 31498026 
1598.772 31017050 30572902 30177120 29841816 29574724 29375718 29238182 
1602.147 29153804 29116812 29125918 29182366 29283016 29415000 29555074 
1605.522 29670252 29726202 29696754 29567276 29337572 29018252 28624662 
1608.897 28170896 27667880 27126576 26561714 25994558 25452630 24960894 
1612.273 24535586 24178786 23879270 23616482 23367666 23114868 22848246 
1615.648 22568386 22284976 22014610 21775036 21580474 21440374 21357914 
1619.023 21330804 21350466 21402884 21470276 21533606 21578840 21602692 
1622.398 21614914 21635220 21684850 21777334 21912978 22081820 22270256 
1625.774 22468580 22672300 22881530 23096520 23313892 23526158 23725092 
1629.149 23906332 24073426 24236312 24408196 24598066 24806646 25024208 
1632.524 25233346 25413738 25545254 25614136 25615928 25557588 25455056 
1635.899 25329680 25201776 25084618 24983390 24896850 24819206 24741224 
1639.275 24651928 24542070 24406794 24249346 24080150 23914768 23766562 
1642.650 23641218 23533994 23429944 23308508 23147926 22933608 22663922 
1646.025 22353098 22028204 21721006 21459416 21259186 21124894 21052580 
1649.400 21032860 21051432 21086212 21107744 21073482 20936640 20667356 
1652.776 20283064 19860402 19493836 19242694 19105976 19046980 19021086 
1656.151 18994848 18951406 18887138 18808796 18725830 18644992 18566346 
1659.526 18483118 18385248 18263762 18114398 17938804 17743160 17536702 
1662.901 17329236 17129454 16945372 16783818 16649010 16541742 16457075 
1666.277 16384503 16307781 16208507 16071538 15889449 15666934 15419229 
1669.652 15168132 14932200 14722240 14540064 14381665 14239552 14104400 
1673.027 13965868 13810927 13626432 13403878 13145917 12869882 12602279 
1676.402 12368759 12182627 12041708 11931758 11834230 11734341 11625729 
1679.778 11513060 11408039 11322940 11261013 11212118 11151839 11047892 
1683.153 10871498 10614833 10302705 9986971 9718663 9521232 9388860 9297825 
1687.010 9223766 9147621 9059579 8957316 8842734 8719358 8590408 8460346 
1690.868 8335120 8222660 8130687 8063138 8016424 7978118 7929287 7848544 
1694.725 7721808 7552895 7366759 7200039 7081103 7016243 6988934 6969809 
1698.583 6922707 6816873 6639396 6403813 6150312 5923930 5752693 5637644 
1702.440 5562997 5508464 5456487 5395894 5319512 5225100 5114247 4992194 
1706.297 4865987 4743501 4631767 4534625 4452703 4383448 4322268 4264812 
1710.155 4209471 4157750 4114732 4085632 4073758 4078608 4096368 4120719 
1714.012 4145439 4166782 4182706 4191739 4190602 4173607 4134033 4070079 
1717.870 3987375 3899973 3823986 3771509 3746141 3743200 3753026 3765459 
1721.727 3773347 3774416 3771108 3768868 3772578 3784076 3802159 3823284 
1725.584 3844477 3864769 3884961 3906191 3928057 3947416 3959721 3961226 
1729.442 3951328 3934042 3915385 3900407 3888572 3871990 3835151 3761148 
1733.299 3639140 3474212 3290050 3120582 2991581 2910483 2868822 2850211 
1737.157 2838672 2821329 2792049 2750833 2702586 2655145 2615209 2587542 
1741.014 2573809 2574110 2587442 2612242 2645777 2684183 2723358 2760136 
1744.872 2793783 2825832 2859417 2897107 2939137 2982440 3021609 3050804 
1748.729 3065853 3065253 3050571 3025179 2992649 2956985 2922191 2892204 
1752.586 2871791 2864987 2873525 2895606 2925227 2954016 2972064 2972398 
1756.444 2954049 2922725 2888802 2861485 2846009 2840940 2840573 2836404 
1760.301 2821696 2793816 2754635 2710121 2666713 2629776 2601775 2583209 
1764.159 2573476 2572243 2578776 2591242 2606875 2621309 2630809 2633910 
1768.016 2632576 2631409 2634710 2643777 2654845 2660379 2650344 2618175 
1771.874 2564377 2498488 2434808 2385730 2357145 2346218 2345519 2347085 
1775.731 2346252 2343054 2340955 2344153 2354347 2369772 2385230 2395192 
1779.588 2396025 2388196 2376302 2365641 2360044 2359944 2362276 2362909 
1783.446 2358545 2348317 2334459 2320435 2309109 2302147 2299083 2299682 
1787.303 2304345 2314805 2333093 2359677 2392127 2424912 2449969 2459866 
1791.161 2450469 2422980 2383998 2342054 2304246 2273834 2249753 2229204 
1795.018 2210187 2192537 2177685 2167362 2162267 2161101 2160768 2158338 
1798.875 2152477 2143586 2133997 2126205 2120844 2116682 2111522 2103697 
1802.733 2093609 2084453 2079759 2082389 2092910 2108558 2125140 2138525 
1806.590 2146916 2151345 2155108 2161401 2171657 2185077 2198332 2207323 
1810.448 2209921 2206158 2198265 2189373 2181748 2175986 2171791 2168461 
1814.305 2166296 2167029 2172956 2185544 2204692 2227905 2251918 2273568 
1818.163 2291754 2307410 2323199 2341488 2363342 2388162 2414250 2439906 
1822.020 2463931 2486158 2506153 2523383 2536147 2543046 2544179 2542580 
1825.877 2543080 2551378 2570676 2600142 2634243 2664379 2682782 2684983 
1829.735 2673247 2655378 2642510 2642777 2658812 2687483 2722124 2755968 
1833.592 2784379 2806922 2825898 2845008 2867021 2892804 2922025 2953983 
1837.450 2989312 3030184 3079668 3140172 3212067 3293889 3382105 3473210 
1841.307 3564703 3654410 3740961 3822983 3898635 3966810 4028073 4085765 
1845.165 4143934 4206727 4275352 4346799 4415011 4471751 4510754 4528699 
1849.022 4526757 4509012 4480957 4446008 4404401 4353961 4291749 4216832 
1852.879 4131122 4039477 3946948 3857582 3772311 3689530 3606898 3523748 
1856.737 3441448 3363572 3293255 3231528 3176151 3123285 3068790 3011599 
1860.594 2953983 2901243 2858616 2829333 2812125 2802420 2794917 2785013 
1864.452 2771607 2755935 2740663 2726992 2713889 2698152 2676715 2648311 
1868.309 2615509 2583709 2558544 2543613 2538413 2539680 2542946 2546146 
1872.167 2549245 2554245 2563211 2576009 2589375 2598542 2598575 2587176 
1876.024 2565410 2537814 2509719 2484725 2463698 2445604 2427978 2409885 
1879.881 2392693 2378934 2371271 2369805 2371971 2373037 2368639 2356413 
1883.739 2337657 2316137 2295518 2278497 2264475 2251185 2235732 2217781 
1887.596 2198964 2183146 2174155 2173289 2178584 2186210 2191705 2193203 
1891.454 2191705 2190173 2191038 2195101 2200230 2202961 2200763 2193769 
1895.311 2185011 2179916 2182314 2193503 2210820 2229304 2244524 2254982 
1899.168 2262143 2270037 2282495 2301014 2322900 2343620 2358811 2366374 
1903.026 2367939 2367540 2369006 2374569 2383498 2392627 2398790 2400456 
1906.883 2398824 2396425 2395559 2396392 2396691 2393493 2384531 2370271 
1910.741 2354181 2340622 2332427 2330062 2330528 2330195 2326464 2320168 
1914.598 2314572 2313639 2319635 2330195 2339956 2341854 2331694 2310474 
1918.456 2284560 2261644 2247888 2243525 2243658 2240261 2226406 2199530 
1922.313 2163299 2125173 2092577 2070603 2058718 2053425 2050095 2047599 
1926.170 2047699 2054490 2071136 2096938 2126671 2152877 2168660 2170792 
1930.028 2161601 2146716 2132831 2123508 2118947 2115650 2110423 2101899 
1933.885 2091811 2083621 2080258 2080990 2082289 2078760 2066375 2046267 
1937.743 2024196 2007952 2004922 2017771 2043671 2075763 2106194 2129002 
1941.600 2142321 2147815 2148115 2145384 2139990 2131266 2120045 2109957 
1945.458 2105462 2111688 2130733 2159770 2192837 2222709 2244757 2259379 
1949.315 2271003 2284460 2303046 2324832 2343354 2350916 2342754 2319302 
1953.172 2286392 2251918 2221477 2196800 2173955 2146483 2109357 2063179 
1957.030 2011813 1963215 1923309 1893890 1872725 1855355 1839216 1825540 
1960.887 1819618 1826139 1846071 1874755 1902276 1919083 1920547 1909465 
1964.745 1894522 1887234 1895254 1919282 1952298 1985050 2009383 2024196 
1968.602 2033550 2042772 2055056 2067973 2074066 2064944 2037945 1996501 
1972.459 1951266 1914057 1892392 1888033 1896652 1912759 1934891 1968973 
1976.317 2024063 2107326 2217048 2339856 2453401 2537447 2577843 2574143 
1980.174 2537047 2482892 2425912 2374536 2330462 2290588 2254583 2225507 
1984.032 2208789 2209888 2228804 2258580 2286625 2300015 2290355 2259112 
1987.889 2215283 2171258 2137493 2117714 2108325 2102166 2093143 2080092 
1991.747 2067241 2061381 2066508 2081423 2099602 2112254 2113819 2104063 
1995.604 2088149 2074498 2069704 2075264 2086850 2098670 2105195 2105495 
1999.461 2103331 2104063 2111355 2124141 2136427 2139857 2129069 2103397 
2003.319 2067707 2031054 2001294 1983619 1977894 1981122 1990742 2005954 
2007.176 2028723 2060615 2102399 2150346 2198431 2241294 2276166 2304079 
2011.034 2329795 2357412 2388629 2421347 2451002 2472862 2486558 2495489 
2014.891 2503887 2516517 2533314 2550812 2562577 2565677 2561644 2558678 
2018.749 2566710 2592975 2638077 2695185 2751700 2794650 2817427 2819562 
2022.606 2807356 2788714 2770073 2753501 2738729 2724659 2712488 2707254 
2026.463 2714222 2736295 2771241 2811358 2846476 2870523 2883231 2890803 
2030.321 2903378 2928629 2968228 3016571 3064152 3103028 3132196 3157694 
2034.178 3189536 3237336 3304205 3384776 3467466 3540383 3594670 3628615 
2038.036 3646892 3654343 3656114 3653308 3644553 3628482 3606364 3582008 
2041.893 3561663 3550204 3548367 3552910 3558690 3561028 3558957 3555716 
2045.750 3556986 3568311 3591329 3623670 3659356 3693473 3721878 3743367 
2049.608 3759042 3769604 3775352 3775820 3771676 3766061 3764924 3775586 
2053.465 3803228 3849157 3907930 3969987 4024427 4062754 4081685 4083759 
2057.323 4073658 4056768 4035062 4008777 3976909 3940261 3904185 3875300 
2061.180 3861626 3867644 3891982 3927321 3964369 3993929 4012054 4019411 
2065.038 4020381 4020381 4022956 4027839 4033323 4037972 4041785 4047270 
2068.895 4057270 4073089 4092121 4109447 4117675 4112390 4092756 4063123 
2072.752 4030347 4001487 3981155 3969853 3965305 3964402 3964737 3966576 
2076.610 3970889 3979048 3990686 4003995 4016201 4026233 4034561 4043791 
2080.467 4057537 4077939 4104229 4133598 4161731 4184781 4201341 4212683 
2084.325 4220044 4225029 4227337 4224795 4215226 4197427 4172369 4143499 
2088.182 4114799 4088475 4064795 4041852 4017037 3989281 3960256 3933808 
2092.040 3915051 3907528 3911440 3924011 3940896 3956946 3968816 3976106 
2095.897 3979149 3978781 3975103 3967479 3956010 3942066 3929629 3923276 
2099.754 3927790 3945076 3973565 4009379 4047236 4083324 4116538 4147948 
2103.612 4179796 4212951 4247078 4279669 4308882 4334651 4358714 4385389 
2107.469 4418091 4457925 4502082 4545775 4583277 4611071 4629154 4640508 
2111.327 4649651 4659798 4671387 4681468 4687296 4686258 4679458 4670951 
2115.184 4666329 4670315 4684817 4708029 4735194 4761792 4783835 4799547 
2119.042 4809397 4814456 4815260 4812312 4805912 4797102 4788927 4785175 
2122.899 4789631 4804572 4829533 4861497 4896179 4929689 4959885 4986563 
2126.756 5010294 5031110 5047803 5057792 5058128 5047300 5026852 4999970 
2130.614 4972721 4950367 4936828 4934314 4943195 4962398 4990585 5025981 
2134.471 5066206 5107039 5143986 5172788 5191231 5201123 5205717 5210948 
2138.329 5220741 5236267 5254713 5272521 5285266 5291471 5293282 5294154 
2142.186 5297408 5303378 5308745 5307973 5296536 5272320 5237609 5198608 
2146.043 5162059 5132687 5111900 5097049 5083504 5067882 5047132 5020517 
2149.901 4986899 4943932 4887868 4815964 4728026 4626543 4518721 4412266 
2153.758 4312463 4219676 4131624 4044761 3961125 3890979 3851497 3864769 
2157.616 3947216 4101218 4309753 4542996 4764974 4945005 5066810 5128429 
2161.473 5138052 5109419 5054239 4982877 4902344 4819615 4740587 4671822 
2165.331 4616797 4574738 4542895 4515608 4488724 4461039 4435062 4414342 
2169.188 4401187 4393790 4385456 4369022 4337462 4289541 4229445 4166515 
2173.045 4110383 4068373 4043423 4032755 4031818 4035497 4039076 4039845 
2176.903 4034694 4018709 3987876 3939024 3871923 3792198 3709112 3632491 
2180.760 3569647 3522478 3486604 3454540 3420608 3382338 3344172 3313420 
2184.618 3297027 3298029 3314789 3340365 3366978 3390753 3409588 3426219 
2188.475 3442918 3460986 3478287 3491748 3498128 3497326 3493251 3491347 
2192.333 3497593 3514061 3539114 3567910 3595271 3617456 3634797 3650167 
2196.190 3667609 3689062 3715195 3744203 3772344 3797914 3819574 3836956 
2200.047 3849258 3855342 3853069 3841502 3821446 3796710 3773648 3758407 
2203.905 3754764 3762384 3777926 3796243 3813557 3828866 3844912 3864602 
2207.762 3890210 3919832 3948052 3968616 3976474 3970923 3956277 3940060 
2211.620 3930230 3932370 3947182 3971525 4000784 4029645 4054895 4074995 
2215.477 4090014 4098843 4101653 4097238 4085699 4068240 4047738 4026367 
2219.334 4006336 3987475 3967880 3946046 3922306 3898067 3877306 3863666 
2223.192 3858685 3860958 3866273 3869249 3865906 3855476 3839831 3822883 
2227.049 3808443 3798047 3791663 3787987 3785480 3785045 3788388 3797613 
2230.907 3813189 3833881 3855710 3873762 3885530 3890077 3890578 3890544 
2234.764 3893888 3902513 3916154 3932337 3948553 3964034 3978948 3994798 
2238.622 4013091 4034394 4057871 4082855 4108142 4134100 4161062 4189531 
2242.479 4218170 4245205 4267790 4284086 4294861 4303562 4314940 4333714 
2246.336 4362831 4401388 4446008 4491536 4533185 4567907 4594763 4613750 
2250.194 4624600 4627782 4622624 4609665 4591448 4572060 4556824 4550362 
2254.051 4553978 4565831 4581368 4594696 4601192 4599518 4591180 4579326 
2257.909 4567472 4557460 4548955 4540819 4531478 4520228 4508142 4496960 
2261.766 4487887 4482095 4478948 4477576 4477476 4478647 4481593 4486414 
2265.624 4492139 4496491 4496826 4491268 4479150 4463248 4447715 4436802 
2269.481 4434191 4440618 4454142 4471215 4487987 4501078 4508644 4510352 
2273.338 4506769 4499437 4489996 4480690 4474362 4473659 4480555 4495487 
2277.196 4517316 4542862 4568443 4592218 4613147 4632671 4653167 4676578 
2281.053 4703474 4732179 4760050 4784405 4803634 4818074 4828661 4837540 
2284.911 4845146 4850909 4853757 4852450 4847056 4839082 4831275 4826048 
2288.768 4825244 4828863 4835329 4843236 4851077 4858884 4867093 4877112 
2292.625 4888974 4902311 4915748 4927846 4938269 4947351 4956936 4968766 
2296.483 4984251 5003255 5024841 5047200 5068754 5088231 5105296 5119545 
2300.340 5130809 5138421 5142310 5142578 5140835 5139393 5140835 5147440 
2304.198 5159879 5177349 5197703 5218762 5238783 5257362 5275305 5293484 
2308.055 5312635 5332191 5351143 5368117 5382240 5393512 5402772 5411226 
2311.913 5419379 5427330 5434946 5441120 5446388 5451421 5457426 5466385 
2315.770 5478733 5494235 5511819 5530142 5548230 5565883 5583940 5603306 
2319.627 5625056 5649560 5675979 5702835 5728284 5749469 5763202 5766694 
2323.485 5756890 5732145 5692965 5641940 5584141 5525712 5472895 5430350 
2327.342 5400256 5381569 5370801 5364192 5357919 5349634 5338933 5326321 
2331.200 5312803 5299420 5286943 5276479 5269570 5268262 5274466 5288888 
2335.057 5311227 5338464 5367446 5394821 5418339 5437899 5454910 5471418 
2338.915 5489034 5508295 5528296 5547995 5566118 5582866 5597936 5612066 
2342.772 5624888 5635025 5640631 5640363 5633951 5624351 5615188 5612301 
2346.629 5620659 5643450 5681853 5735267 5801145 5875934 5956243 6038047 
2350.487 6117345 6190877 6256186 6312259 6359295 6399308 6433843 6464513 
2354.344 6491385 6513718 6530300 6540828 6546177 6548632 6551458 6557311 
2358.202 6567638 6582338 6599461 6616854 6632398 6644307 6652786 6657867 
2362.059 6659684 6659044 6656554 6653190 6649960 6648244 6648849 6651844 
2365.917 6656689 6662005 6667019 6671460 6675901 6681823 6690303 6701878 
2369.774 6715943 6731423 6746701 6761206 6774701 6787490 6799977 6812228 
2373.631 6823436 6832389 6839121 6843834 6848243 6854538 6864737 6880088 
2377.489 6900320 6924256 6950348 6977385 7005198 7034124 7064937 7098212 
2381.346 7133847 7171169 7209404 7247844 7286322 7325477 7365141 7405550 
2385.204 7445659 7484256 7520023 7552254 7580980 7606438 7629233 7649129 
2389.061 7665417 7676850 7682786 7683359 7680155 7675669 7672432 7672432 
2392.918 7675771 7681200 7686866 7690981 7692600 7692296 7691318 7691217 
2396.776 7693342 7698165 7706023 7717086 7731623 7750275 7773516 7801279 
2400.633 7832552 7866290 7901415 7937656 7975925 8018213 8066514 8121741 
2404.491 8183931 8250925 8320630 8390686 8459738 8528295 8597977 8670274 
2408.348 8746708 8827618 8912501 9000072 9089421 9179498 9270103 9360658 
2412.206 9450690 9539217 9625661 9708701 9788265 9864117 9935981 10003651 
2416.063 10066654 10123866 10174979 10219688 10258362 10291882 10321129 
2419.438 10346137 10366667 10382548 10393204 10399143 10401621 10402130 
2422.813 10402333 10403860 10407118 10413092 10422424 10436985 10458707 
2426.189 10490240 10533181 10587535 10652285 10724857 10802875 10884849 
2429.564 10971053 11062576 11161324 11268495 11383651 11505234 11630765 
2432.939 11758001 11885716 12014661 12146030 12282073 12424570 12574412 
2436.314 12731369 12894560 13062730 13234414 13408320 13582808 13756340 
2439.690 13927924 14097144 14264273 14431227 14599822 14772218 14949793 
2443.065 15132792 15320296 15511042 15703415 15895978 16088661 16281188 
2446.440 16473353 16665637 16858008 17050290 17242970 17436216 17630516 
2449.815 17825800 18021724 18216870 18410310 18600720 18786790 18968298 
2453.191 19144514 19314500 19477410 19632030 19777236 19912362 20037708 
2456.566 20153620 20260914 20359762 20449466 20528312 20594702 20646576 
2459.941 20683132 20704260 20710378 20702244 20680908 20646750 20600470 
2463.316 20543390 20477458 20405914 20332402 20260566 20193742 20134286 
2466.692 20083966 20043816 20014810 19998294 19995586 20008114 20037016 
2470.067 20083340 20147510 20229704 20329762 20447624 20582402 20732482 
2473.442 20895960 21069622 21250452 21435118 21620524 21804126 21983554 
2476.817 22156466 22320658 22474616 22616902 22746874 22864206 22968750 
2480.193 23059692 23135764 23195074 23236180 23258586 23263410 23253306 
2483.568 23231878 23203112 23169210 23131186 23088484 23039706 22983806 
2486.943 22920964 22852438 22780150 22706060 22630410 22552716 22470742 
2490.318 22382262 22285008 22178226 22061740 21936294 21802662 21661062 
2493.694 21510976 21351580 21182294 21002326 20812458 20613428 20406574 
2497.069 20193674 19976160 19754904 19531232 19305596 19077828 18847930 
2500.444 18615454 18380132 18142310 17903238 17664780 17429490 17199774 
2503.819 16976966 16761709 16554132 16353194 16159052 15972560 15794875 
2507.195 15627878 15473133 15330423 15198224 15074334 14955383 14839104 
2510.570 14724502 14611781 14502618 14399270 14303617 14217434 14141607 
2513.945 14075787 14019557 13972232 13932337 13899048 13871782 13850127 
2517.320 13834393 13825157 13823173 13828680 13841747 13861485 13886561 
2520.696 13915914 13948280 13982977 14020002 14059119 14099574 14141264 
2524.071 14183439 14225754 14267937 14310226 14352451 14393345 14431296 
2527.446 14463427 14486893 14499946 14501863 14493984 14479048 14459589 
2530.821 14437461 14413656 14387316 14357314 14322588 14283277 14240443 
2534.197 14196037 14151740 14108473 14066614 14025684 13984927 13944723 
2537.572 13905548 13868463 13834358 13803368 13775014 13748406 13722962 
2540.947 13698443 13675840 13656657 13641545 13631458 13625304 13621098 
2544.322 13617235 13611526 13603115 13592038 13578808 13563698 13547187 
2547.698 13529002 13508936 13486993 13463444 13439145 13415393 13393523 
2551.073 13374695 13359797 13349410 13343669 13342576 13345412 13350708 
2554.448 13356824 13362121 13364785 13364205 13360481 13354330 13347018 
2557.823 13339638 13332121 13324297 13314901 13302670 13286510 13265876 
2561.198 13240460 13210469 13176245 13138438 13097628 13055081 13012402 
2564.574 12971262 12933507 12900260 12872443 12849609 12831180 12816301 
2567.949 12804630 12795723 12789444 12786203 12785998 12788864 12794632 
2571.324 12803060 12813946 12826846 12840873 12855309 12868961 12881078 
2574.699 12891249 12900090 12908862 12918863 12931664 12948390 12969112 
2578.075 12993385 13020937 13050916 13083150 13117502 13153465 13190522 
2581.450 13227309 13263007 13296452 13327713 13357371 13386928 13417923 
2584.825 13451893 13489659 13531531 13577338 13626740 13679157 13734350 
2588.200 13791295 13849786 13908593 13966723 14024178 14080989 14137705 
2591.576 14195079 14253693 14313445 14373274 14432221 14489188 14543868 
2594.951 14596840 14648928 14701400 14754838 14808728 14862111 14913579 
2598.326 14961967 15007205 15050253 15092721 15136806 15184533 15237070 
2601.701 15294795 15357334 15423864 15492877 15563137 15633510 15703175 
2605.077 15772128 15840717 15910070 15981635 16056376 16135324 16218895 
2608.452 16306749 16398266 16493211 16590999 16691772 16795150 16900826 
2611.827 17007872 17115152 17221078 17324270 17424006 17519832 17611674 
2615.202 17699570 17783580 17863670 17939772 18012604 18082824 18151432 
2618.578 18219498 18287262 18354484 18420162 18483014 18542348 18598128 
2621.953 18651286 18703276 18756170 18811044 18868414 18928044 18988996 
2625.328 19050028 19110166 19168686 19225274 19279618 19332166 19382884 
2628.703 19432570 19482090 19532306 19584054 19637992 19693912 19751228 
2632.079 19808966 19865812 19921138 19974424 20025462 20074770 20122660 
2635.454 20169238 20215126 20260566 20305978 20351950 20398760 20446652 
2638.829 20495730 20545614 20596058 20646958 20698770 20751492 20805818 
2642.204 20861992 20919916 20979098 21039086 21099604 21160550 21222374 
2645.580 21285076 21349352 21415102 21481730 21548894 21616274 21683944 
2648.955 21752530 21823044 21896288 21972890 22052884 22135476 22219548 
2652.330 22303880 22387496 22469836 22550762 22630690 22710424 22790730 
2655.705 22872624 22956804 23043864 23133842 23226532 23321094 23416516 
2659.081 23511538 23605112 23696572 23785460 23871988 23956398 24039386 
2662.456 24121094 24202434 24283718 24365368 24447452 24530114 24612898 
2665.831 24695522 24777144 24857378 24935802 25012204 25086726 25159818 
2669.206 25232152 25304110 25376852 25450734 25526698 25605138 25686194 
2672.582 25769268 25853942 25939122 26024038 26108408 26192268 26276002 
2675.957 26360386 26445772 26532338 26619802 26707846 26795628 26883180 
2679.332 26970714 27058724 27148198 27239878 27334402 27432650 27535192 
2682.707 27642596 27755644 27874692 27999814 28130946 28267282 28407872 
2686.083 28552292 28700300 28852216 29008900 29171344 29339840 29514500 
2689.458 29694874 29879828 30068520 30260170 30454464 30651440 30851426 
2692.833 31054738 31261816 31473122 31689276 31910386 32136920 32368682 
2696.208 32605388 32846584 33091094 33338248 33587548 33838852 34092344 
2699.583 34348500 34607672 34869908 35134996 35402408 35671524 35941384 
2702.959 36211416 36480428 36748192 37013708 37276248 37535260 37789948 
2706.334 38039320 38282940 38519412 38747976 38967820 39178376 39379640 
2709.709 39571888 39755760 39932120 40101612 40264804 40421984 40573040 
2713.084 40717996 40856304 40987228 41109628 41222012 41322576 41409796 
2716.460 41482844 41541648 41587008 41620224 41643204 41657572 41664388 
2719.835 41664904 41660344 41652100 41642472 41634120 41630144 41633828 
2723.210 41647980 41674564 41714864 41769508 41838424 41920776 42015960 
2726.585 42122844 42239980 42366828 42502480 42646476 42799220 42960544 
2729.961 43130488 43308660 43494012 43684904 43879724 44076544 44273412 
2733.336 44468836 44661472 44850088 45033564 45210940 45381764 45546112 
2736.711 45704624 45857492 46005844 46149940 46289580 46424732 46555612 
2740.086 46682436 46806268 46929032 47052160 47177544 47306504 47439796 
2743.462 47578152 47722064 47872020 48028904 48193328 48365332 48544188 
2746.837 48728896 48917244 49106896 49295668 49480924 49660568 49832188 
2750.212 49993580 50142536 50277812 50398288 50503680 50594876 50672544 
2753.587 50737636 50790632 50831640 50859984 50874700 50874624 50858644 
2756.963 50825528 50774316 50704116 50614052 50503680 50373056 50222496 
2760.338 50052656 49864412 49658452 49435624 49196580 48942500 48675076 
2763.713 48396740 48111036 47821780 47532680 47247652 46969824 46701772 
2767.088 46445824 46203852 45977704 45769344 45580404 45412112 45265104 
2770.464 45139504 45034664 44949624 44883004 44833300 44798436 44776580 
2773.839 44765412 44762512 44766076 44773900 44784624 44796708 44808504 
2777.214 44818236 44823820 44822756 44812472 44790980 44756488 44708044 
2780.589 44645612 44569824 44481716 44383388 44277416 44166660 44054172 
2783.965 43943444 43836768 43736092 43642292 43554920 43472512 43393268 
2787.340 43314552 43234132 43149516 43058880 42960360 42853196 42736916 
2790.715 42611972 42479608 42341548 42200324 42058444 41918700 41783736 
2794.090 41656148 41538076 41431408 41337228 41256076 41187948 41132544 
2797.466 41089560 41058968 41041232 41037300 41048592 41075868 41119648 
2800.841 41179352 41253784 41341200 41439644 41547412 41663332 41786580 
2804.216 41916364 42051876 42192180 42336108 42482092 42628896 42774904 
2807.591 42918772 43058732 43192884 43319096 43435236 43539612 43630788 
2810.967 43707732 43770140 43817964 43851064 43869424 43873204 43862720 
2814.342 43838820 43802904 43756836 43703368 43644784 43584300 43525032 
2817.717 43470792 43425676 43394444 43381664 43391696 43427652 43491376 
2821.092 43583056 43701868 43845784 44012772 44200628 44407244 44630592 
2824.468 44868308 45117628 45374888 45636200 45897632 46155168 46405524 
2827.843 46646688 46877316 47097472 47308056 47511276 47709120 47904424 
2831.218 48099856 48297556 48499616 48707876 48924328 49151756 49393372 
2834.593 49653288 49936444 50248052 50593092 50976744 51404112 51880140 
2837.969 52411188 53004540 53669108 54416680 55260392 56216452 57303532 
2841.344 58541788 59954120 61566044 63403076 65492652 67860728 70527904 
2844.719 73506344 76791952 80359432 84149712 88068152 91986232 95731624 
2848.094 99113664 101938152 104017960 105214352 105447280 104709512 
2850.987 103064496 100638808 97606056 94147736 90450144 86682512 82976680 
2854.363 79439200 76144608 73136312 70436600 68047992 65958464 64144632 
2857.738 62576784 61222936 60049040 59024876 58123744 57321604 56599788 
2861.113 55942668 55337536 54775272 54248908 53753740 53287680 52850148 
2864.488 52441848 52065524 51724692 51424848 51172296 50973876 50836220 
2867.864 50763780 50758340 50817820 50936764 51105464 51311436 51540644 
2871.239 51777396 52006064 52212352 52383452 52509928 52587192 52615616 
2874.614 52600244 52550840 52479908 52399788 52322412 52257120 52210408 
2877.989 52186308 52187840 52216424 52273972 52362292 52482300 52634132 
2881.365 52817144 53028912 53266140 53524788 53800204 54087240 54380964 
2884.740 54676276 54968328 55253240 55528244 55792616 56047644 56296448 
2888.115 56544604 56798112 57063484 57347392 57655664 57994144 58368964 
2891.490 58786752 59256440 59788876 60396928 61096752 61905448 62840008 
2894.865 63915828 65142460 66520460 68036712 69663096 71353040 73040496 
2898.241 74650936 76102400 77315808 78231872 78813640 79056200 78984936 
2901.616 78655080 78141576 77523432 76884176 76297312 75820680 75502080 
2904.991 75375152 75463128 75783672 76349376 77170416 78256664 79618264 
2908.366 81266920 83216768 85482584 88077968 91010040 94275336 97851000 
2911.742 101688000 105714400 109824400 113885360 117756024 121279976 
2914.635 124311848 126735312 128465488 129465920 129747392 129366248 
2917.528 128409864 126981184 125193016 123144552 120918928 118581560 
2920.421 116173832 113721432 111237664 108727904 106196248 103649520 
2923.314 101098736 98561440 96060256 93618848 91262088 89011584 86882480 
2926.689 84885080 83023128 81294248 79691504 78204336 76819744 75522664 
2930.064 74298288 73132704 72013304 70930448 69876360 68845048 67831720 
2933.440 66832148 65842540 64860188 63883460 62912880 61950652 61000616 
2936.815 60067112 59153948 58264492 57401200 56566568 55764056 54998412 
2940.190 54275600 53602868 52986684 52432160 51941864 51515312 51148812 
2943.565 50835588 50566700 50330976 50115980 49909532 49700544 49480736 
2946.941 49246864 49001172 48752212 48512692 48299116 48128172 48013252 
2950.316 47964220 47984572 48071580 48216800 48407296 48627376 48859064 
2953.691 49085048 49289580 49458680 49582420 49653808 49668964 49627024 
2957.066 49528828 49377148 49175948 48930780 48648796 48338000 48007072 
2960.442 47665408 47320656 46979828 46647976 46328620 46024336 45736356 
2963.817 45466048 45213988 44980456 44765156 44567476 44386292 44220844 
2967.192 44070456 43935044 43815288 43712204 43627052 43561148 43516132 
2970.567 43493316 43494488 43521332 43574960 43655700 43762220 43890872 
2973.943 44035328 44186984 44334984 44466780 44570156 44633384 44646564 
2977.318 44603424 44501244 44342324 44132808 43882880 43606024 43316640 
2980.693 43029352 42757720 42512020 42299180 42122152 41979460 41866080 
2984.068 41773268 41691524 41609468 41516820 41405600 41269960 41107628 
2987.444 40919392 40708792 40480760 40240632 39993368 39742072 39487620 
2990.819 39229324 38965388 38693968 38414172 38127144 37836000 37545596 
2994.194 37261012 36987228 36727064 36481000 36246968 36020976 35798412 
2997.569 35574776 35346796 35112940 34873248 34629488 34383968 34139732 
3000.945 33899496 33665668 33439546 33222202 33013758 32813956 32622390 
3004.320 32438692 32262708 32094572 31934456 31782310 31638130 31501018 
3007.695 31370182 31244868 31124538 31008936 30898490 30793942 30695428 
3011.070 30603192 30516310 30433674 30353718 30275020 30196338 30117062 
3014.446 30037132 29956786 29876564 29797526 29720632 29647086 29578696 
3017.821 29516628 29462052 29415532 29376568 29344022 29316302 29291594 
3021.196 29268202 29245518 29223156 29202032 29182932 29167198 29156072 
3024.571 29150544 29151642 29160396 29177866 29204974 29242150 29289328 
3027.947 29344980 29406384 29469606 29529892 29582064 29621970 29646518 
3031.322 29654322 29645524 29621758 29585542 29539574 29486344 29428190 
3034.697 29367102 29304924 29243568 29184384 29128576 29076740 29028880 
3038.072 28984424 28942594 28903034 28865816 28831432 28800912 28775208 
3041.448 28754674 28739486 28729150 28722708 28719166 28717928 28718070 
3044.823 28719308 28721186 28723486 28726246 28730070 28736018 28745256 
3048.198 28759134 28778430 28803106 28832354 28864824 28898784 28932996 
3051.573 28966750 28999690 29031960 29063596 29094348 29123756 29151358 
3054.948 29176872 29200864 29224360 29248706 29275290 29305136 29338456 
3058.324 29375470 29416312 29460812 29509750 29563550 29622822 29687458 
3061.699 29756894 29830032 29905634 29983092 30061736 30141818 30223688 
3065.074 30307172 30391988 30477246 30561812 30644578 30724838 30802230 
3068.449 30876790 30948622 31017444 31083034 31144756 31201964 31254764 
3071.825 31303764 31349812 31394296 31438358 31483136 31529128 31576588 
3075.200 31625408 31675376 31726666 31779102 31832938 31888060 31944226 
3078.575 32001116 32057970 32113910 32168142 32220382 32270346 32318496 
3081.950 32365542 32412558 32460398 32509786 32561030 32613960 32668684 
3085.326 32725238 32783582 32844260 32907628 32973934 33042896 33114124 
3088.701 33186794 33260510 33334922 33410418 33487718 33567680 33650808 
3092.076 33737136 33826496 33918056 34010816 34104388 34198232 34291948 
3095.451 34385616 34478944 34571680 34663612 34754632 34844884 34934756 
3098.827 35024756 35115024 35206316 35298456 35391908 35486784 35583408 
3102.202 35681956 35782580 35885096 35988972 36093588 36198808 36304308 
3105.577 36410628 36518300 36627844 36739068 36851408 36963236 37073468 
3108.952 37180804 37284516 37385116 37483860 37582012 37681232 37782932 
3112.328 37887840 37996428 38108804 38224172 38341784 38460800 38579596 
3115.703 38697192 38812860 38926172 39037448 39147736 39257908 39368540 
3119.078 39479928 39591524 39702428 39811356 39917736 40021016 40121704 
3122.453 40220492 40318752 40417732 40518512 40621900 40728368 40837812 
3125.829 40949688 41063628 41178768 41294776 41411396 41528632 41646340 
3129.204 41764548 41882644 41999644 42114812 42227456 42337532 42445812 
3132.579 42553824 42662888 42774320 42889000 43006888 43127704 43251116 
3135.954 43377124 43505732 43637272 43771236 43906852 44042404 44176268 
3139.330 44306548 44432608 44554444 44672968 44790096 44907076 45025072 
3142.705 45145052 45267092 45391328 45517776 45646248 45775936 45906360 
3146.080 46036348 46165008 46292196 46418836 46546576 46677788 46814464 
3149.455 46957312 47106224 47258920 47412224 47563288 47709192 47848564 
3152.831 47981164 48107888 48229908 48349220 48467788 48586616 48707248 
3156.206 48830216 48954996 49081112 49207528 49333272 49458124 49582860 
3159.581 49708456 49836464 49967968 50102520 50239272 50376108 50511124 
3162.956 50643128 50772192 50899548 51026712 51155448 51285932 51417800 
3166.332 51549596 51679940 51807708 51933272 52057420 52181564 52306488 
3169.707 52432424 52558768 52683952 52806408 52924848 53038948 53148876 
3173.082 53255880 53360920 53465236 53569428 53673912 53778300 53881856 
3176.457 53983860 54083488 54180396 54275000 54368156 54461332 54555812 
3179.833 54652600 54751928 54853196 54954788 55055204 55152744 55246428 
3183.208 55336032 55421776 55504564 55585596 55665700 55746464 55828148 
3186.583 55911688 55997360 56085080 56174140 56264240 56354504 56444524 
3189.958 56534188 56623796 56713268 56802720 56891664 56979076 57063936 
3193.333 57145296 57222592 57296272 57366980 57436144 57505168 57575528 
3196.709 57647564 57722148 57798868 57877224 57955972 58034132 58110376 
3200.084 58183864 58254600 58322848 58389812 58456488 58523556 58591044 
3203.459 58658132 58723748 58786488 58846092 58902628 58957048 59010716 
3206.834 59064468 59118940 59173960 59229212 59284276 59339620 59395612 
3210.210 59452488 59510512 59568996 59626960 59683332 59737468 59789328 
3213.585 59839868 59890220 59941264 59993188 60045084 60095648 60143560 
3216.960 60187632 60227976 60265848 60302660 60340464 60380744 60425032 
3220.335 60474004 60528548 60588960 60654720 60725624 60799752 60875068 
3223.711 60949256 61020104 61086228 61147408 61204548 61259180 61313512 
3227.086 61369304 61427624 61489000 61553252 61619308 61686100 61752136 
3230.461 61816884 61879580 61940752 62000944 62061256 62122652 62185468 
3233.836 62249360 62314220 62379208 62444356 62510200 62577396 62646748 
3237.212 62718628 62792256 62866540 62940076 63012512 63083732 63155152 
3240.587 63228116 63303552 63381264 63459792 63536720 63610440 63679956 
3243.962 63746452 63812116 63879856 63951796 64028888 64110264 64194104 
3247.337 64278504 64362348 64445204 64527848 64611272 64695864 64781480 
3250.713 64867264 64951828 65034532 65115132 65193356 65269744 65344228 
3254.088 65415828 65483824 65547860 65607668 65664248 65719172 65773912 
3257.463 65830128 65888272 65948204 66009140 66070244 66130316 66188896 
3260.838 66245468 66299812 66351460 66400684 66447168 66491188 66533164 
3264.214 66573172 66611184 66646836 66679672 66709192 66735776 66760116 
3267.589 66783024 66806332 66830404 66855600 66881344 66906736 66930240 
3270.964 66951268 66969404 66984900 66998160 67010224 67021900 67033888 
3274.339 67046956 67061068 67076228 67091456 67106112 67118912 67129824 
3277.715 67138872 67147576 67157784 67171200 67188992 67211656 67238232 
3281.090 67267328 67298232 67330424 67364280 67400960 67441400 67486024 
3284.465 67534760 67587016 67641840 67698952 67758432 67820176 67884560 
3287.840 67951232 68019664 68089656 68161440 68236296 68316456 68404136 
3291.216 68500960 68607576 68722648 68843920 68968920 69095936 69224232 
3294.591 69354896 69489416 69629256 69775536 69928240 70086992 70251384 
3297.966 70421280 70596624 70777624 70964472 71156152 71352256 71552168 
3301.341 71755720 71963712 72177480 72398200 72626712 72863024 73106472 
3304.717 73356072 73611144 73871440 74137152 74408736 74685760 74967568 
3308.092 75253224 75541784 75832992 76127704 76427200 76732752 77044976 
3311.467 77363712 77687920 78016368 78348488 78684464 79025440 79372128 
3314.842 79724792 80083112 80445520 80810384 81176560 81543360 81911304 
3318.218 82281008 82652712 83026144 83400120 83773392 84144928 84514400 
3321.593 84882104 85248616 85613752 85977328 86338064 86695256 87048168 
3324.968 87397024 87742720 88086336 88427824 88766984 89102296 89432176 
3328.343 89754480 90068208 90372176 90665128 90946016 91213488 91465896 
3331.719 91702288 91922392 92125976 92313344 92484024 92636152 92768272 
3335.094 92877984 92964456 93027992 93071096 93095888 93104768 93098192 
3338.469 93074384 93030904 92964496 92872488 92754200 92610232 92441632 
3341.844 92249952 92036280 91800320 91542024 91260904 90956360 90627808 
3345.219 90274432 89894928 89488192 89054216 88594384 88111864 87611792 
3348.595 87098744 86577224 86049432 85515704 84974768 84425176 83866144 
3351.970 83298640 82724744 82146720 81567224 80987544 80408360 79830136 
3355.345 79253680 78680216 78111792 77551000 76999992 76460272 75933416 
3358.720 75420320 74922048 74439488 73973264 73523224 73088400 72667096 
3362.096 72257184 71857240 71466776 71086560 70717688 70361584 70018824 
3365.471 69689048 69371304 69064392 68767640 68481168 68205712 67941312 
3368.846 67688424 67445584 67211088 66982120 66756092 66530384 66303052 
3372.221 66072024 65835832 65593176 65343112 65085264 64819752 64547068 
3375.597 64267516 63980816 63686288 63382336 63067600 62741184 62402500 
3378.972 62051776 61689536 61315156 60928172 60526680 60109120 59674436 
3382.347 59222564 58754624 58273012 57780244 57279108 56772096 56261336 
3385.722 55748764 55236720 54727160 54221688 53721564 53227412 52738500 
3389.098 52254352 51774372 51297792 50825008 50356388 49892508 49434172 
3392.473 48982148 48536924 48098928 47668552 47245028 46827784 46414852 
3395.848 46004592 45595272 45186304 44777868 44371388 43968260 43569828 
3399.223 43176192 42786712 42399888 42014132 41629232 41245112 40863112 
3402.599 40484464 40109968 39739240 39371768 39005948 38640868 38276968 
3405.974 37914812 37556396 37203004 36855808 36514592 36179040 35848352 
3409.349 35521520 35198592 34879316 34563644 34251324 33941416 33633372 
3412.724 33326834 33022374 32721772 32427338 32142132 31868164 31606842 
3416.100 31357824 31119412 30888210 30660864 30433708 30203760 29969140 
3419.475 29729574 29486344 29242256 29000468 28764728 28537926 28321498 
3422.850 28115110 27916982 27724456 27533920 27342798 27149256 26952664 
3426.225 26754078 26554880 26357782 26165030 25978484 25799084 25626754 
3429.601 25460150 25297120 25135698 24974018 24811102 24647546 24484786 
3432.976 24324504 24168384 24017114 23870062 23726072 23583596 23440610 
3436.351 23296726 23151910 23006620 22861482 22717372 22574110 22431280 
3439.726 22288358 22144750 22000702 21856912 21714420 21574242 21437346 
3443.102 21304006 21173734 21045206 20916994 20787014 20654186 20517300 
3446.477 20376812 20234114 20091148 19950624 19814688 19684586 19560762 
3449.852 19442656 19328738 19217758 19108436 18999866 18891048 18781702 
3453.227 18671038 18558392 18443392 18326142 18207370 18088386 17971058 
3456.603 17856696 17745852 17638280 17532804 17427836 17322030 17214908 
3459.978 17106224 16997190 16888044 16779790 16672455 16565802 16459381 
3463.353 16353503 16248167 16144402 16042760 15943686 15846971 15751584 
3466.728 15656078 15558638 15458334 15354725 15248326 15140718 15033582 
3470.104 14928908 14827928 14731152 14637791 14546711 14456164 14364198 
3473.479 14269786 14172860 14074418 13976647 13882250 13793928 13713592 
3476.854 13642263 13579014 13522781 13470554 13419495 13366767 13309913 
3480.229 13247737 13179763 13107531 13032648 12957983 12886470 12819782 
3483.604 12759484 12705507 12656482 12610465 12565373 12518889 12469817 
3486.980 12417887 12363441 12308047 12253853 12202494 12156149 12116489 
3490.355 12084156 12059150 12040856 12027605 12017318 12008087 11998448 
3493.730 11987275 11974842 11962173 11950899 11942998 11940069 11943610 
3497.105 11954339 11972663 11998311 12031012 12069915 12114137 12162453 
3500.481 12213228 12265066 12316943 12368622 12420922 12475444 12534849 
3503.856 12601767 12678589 12766412 12865173 12973209 13088101 13207054 
3507.231 13327303 13447552 13567185 13687603 13810927 13939488 14075752 
3510.606 14221064 14375260 14537529 14706267 14879701 15055981 15234153 
3513.982 15413290 15592295 15769931 15944682 16114244 16277369 16432986 
3517.357 16580328 16720317 16853082 16979306 17098056 17207772 17305790 
3520.732 17389518 17455912 17502962 17529284 17534286 17518140 17481436 
3524.107 17424904 17349064 17254416 17140656 17007286 16854150 16681613 
3527.483 16490493 16283389 16063286 15833294 15596554 15354999 15110458 
3530.858 14863516 14615824 14368342 14122815 13880334 13641203 13404527 
3534.233 13168390 12930333 12688653 12442914 12194145 11945006 11698429 
3537.608 11456957 11222591 10996574 10779540 10572257 10375592 10190073 
3540.984 10015485 9851067 9694369 9541927 9390723 9237507 9080285 8918453 
3544.841 8752117 8581924 8409536 8236403 8065265 7899289 7741674 7595580 
3548.698 7462412 7341787 7231268 7127077 7024291 6919441 6810209 6697234 
3552.556 6582170 6468751 6360068 6258371 6164662 6078366 5998201 5922452 
3556.413 5849402 5777439 5705655 5633380 5560245 5486350 5412367 5338799 
3560.271 5266552 5196395 5128764 5063826 5001579 4941754 4883445 4825780 
3564.128 4766515 4703038 4632269 4551199 4458327 4354062 4241390 4125469 
3567.986 4012021 3905857 3809613 3723683 3646057 3574324 3505910 3438943 
3571.843 3372387 3306209 3240975 3177386 3115609 3056043 2998120 2941639 
3575.700 2886000 2830601 2775475 2720624 2666513 2613908 2563577 2515951 
3579.558 2471196 2429177 2389062 2350416 2312806 2276399 2242193 2211653 
3583.415 2185177 2162700 2143020 2122509 2096672 2060383 2009516 1941847 
3587.273 1859082 1766218 1670846 1581181 1503704 1442231 1397321 1366341 
3591.130 1344604 1327255 1308909 1285679 1255406 1218057 1175794 1132007 
3594.988 1090816 1055839 1029633 1013061 1006485 1008976 1019404 1036807 
3598.845 1060223 1089088 1122373 1159282 1198586 1238791 1278667 1316985 
3602.702 1352481 1383725 1408855 1425543 1430629 1420457 1392035 1342610 
3606.560 1271223 1179448 1071218 952886 832528 717945 615171 526553 451586 
3610.899 387178 328913 273044 217247 161260 106870 56961 14612 -18024 -40222 
3615.721 -53375 -59935 -63712 -69012 -80176 -100119 -129965 -169016 -213761 
3620.061 -259925 -303534 -341610 -373061 -397890 -417354 -432250 -443239 
3623.918 -449859 -451779 -448436 -440922 -431356 -424074 -424537 -438969 
3627.776 -471969 -524791 -593157 -668229 -738823 -796209 -836722 -861623 
3631.633 -874983 -882423 -888672 -896906 -908016 -921142 -933177 -941013 
3635.490 -942633 -937343 -926763 -913538 -900708 -890954 -885630 -885068 
3639.348 -888573 -895418 -904908 -916778 -930235 -944319 -956883 -965148 
3643.205 -966074 -957511 -939162 -912446 -880836 -848991 -821774 -803584 
3647.063 -798061 -807189 -831960 -872767 -928350 -996455 -1072581 -1150148 
3650.920 -1221225 -1279307 -1319742 -1341346 -1346201 -1339298 -1327010 
3654.295 -1315745 -1311418 -1317001 -1332427 -1353732 -1374343 -1387224 
3657.671 -1387489 -1373451 -1347225 -1313895 -1279043 -1248946 -1227635 
3661.046 -1216533 -1214254 -1217161 -1220928 -1221390 -1215872 -1203052 
3664.421 -1182268 -1152891 -1113697 -1063393 -1001348 -927490 -843336 
3667.796 -749739 -645832 -525585 -377464 -184616 70614 400178 808095 1291196 
3672.136 1842677 2453801 3112372 3798816 4470445 5058395 5475042 5632306 
3675.993 5483699 5043076 4375515 3566173 2695318 1832029 1026146 316346 
3679.851 -270521 -724103 -1050171 -1268306 -1404102 -1484086 -1529223 
3683.226 -1551774 -1558476 -1552599 -1536751 -1515554 -1495610 -1484053 
3686.601 -1487586 -1510568 -1553226 -1611825 -1679064 -1747349 -1809287 
3689.977 -1861187 -1901700 -1931653 -1952467 -1965463 -1972027 -1973215 
3693.352 -1969784 -1962594 -1952995 -1942209 -1932379 -1924957 -1921757 
3696.727 -1923241 -1929344 -1938679 -1949697 -1961307 -1973446 -1986903 
3700.102 -2003361 -2024007 -2048378 -2074562 -2098634 -2115879 -2123100 
3703.478 -2118188 -2101569 -2075386 -2042508 -2005670 -1967179 -1928816 
3706.853 -1892331 -1859043 -1831361 -1811069 -1800609 -1801434 -1814731 
3710.228 -1840302 -1877551 -1924528 -1978096 -2034165 -2086862 -2130717 
3713.603 -2161281 -2175853 -2174600 -2160292 -2137311 -2111659 -2088379 
3716.979 -2071561 -2062856 -2061371 -2064307 -2068626 -2071166 -2070506 
3720.354 -2066252 -2059525 -2051412 -2043036 -2034923 -2027832 -2021962 
3723.729 -2018400 -2018202 -2022160 -2030438 -2041948 -2053886 -2062921 
3727.104 -2065197 -2057975 -2040200 -2013024 -1978624 -1940526 -1901865 
3730.479 -1865476 -1833341 -1806185 -1784011 -1766885 -1755335 -1751639 
3733.855 -1759163 -1781008 -1819120 -1871448 -1932742 -1994324 -2046927 
3737.230 -2084455 -2103877 -2106515 -2095007 -2072650 -2041420 -2003130 
3740.605 -1958767 -1911036 -1863761 -1824135 -1800477 -1800939 -1830008 
3743.980 -1884083 -1950719 -2011177 -2050093 -2061371 -2048576 -2020346 
3747.356 -1986804 -1956656 -1935842 -1926606 -1927827 -1936667 -1949861 
3750.731 -1965167 -1981757 -1999535 -2017675 -2033967 -2046004 -2051643 
3754.106 -2050720 -2044058 -2034626 -2024897 -2016883 -2011606 -2008539 
3757.481 -2006791 -2006065 -2006230 -2008440 -2013552 -2021731 -2031032 
3760.857 -2038452 -2040299 -2034000 -2018895 -1996764 -1970873 -1945672 
3764.232 -1925254 -1912421 -1907473 -1908726 -1912652 -1916281 -1917271 
3767.607 -1915126 -1911201 -1907704 -1907374 -1912487 -1923967 -1941186 
3770.982 -1962726 -1985913 -2008506 -2028789 -2045509 -2058173 -2066714 
3774.358 -2071298 -2071726 -2067901 -2059657 -2047257 -2031262 -2013453 
3777.733 -1996039 -1981790 -1972984 -1971203 -1976183 -1986540 -2000195 
3781.108 -2014739 -2028657 -2041024 -2051511 -2060250 -2066714 -2070242 
3784.483 -2070374 -2066681 -2059162 -2048840 -2036671 -2024370 -2012661 
3787.859 -2002305 -1993499 -1986738 -1982384 -1981098 -1983143 -1988750 
3791.234 -1996798 -2005406 -2012068 -2013816 -2009792 -1999898 -1986342 
3794.609 -1972423 -1961538 -1956129 -1956590 -1960780 -1964804 -1965200 
3797.984 -1959526 -1948707 -1936073 -1927530 -1928882 -1944650 -1975326 
3801.360 -2015729 -2056227 -2086565 -2099755 -2094182 -2074265 -2046631 
3804.735 -2020181 -2002536 -1998743 -2009957 -2032812 -2059887 -2082971 
3808.110 -2096359 -2098107 -2090292 -2076772 -2061470 -2047191 -2034626 
3811.485 -2022523 -2009133 -1992774 -1973412 -1952929 -1934754 -1922944 
3814.861 -1920305 -1927233 -1940098 -1952632 -1958372 -1953655 -1938250 
3818.236 -1916248 -1894739 -1881411 -1883192 -1904405 -1943726 -1994060 
3821.611 -2043630 -2081157 -2099228 -2096161 -2075189 -2042706 -2006032 
3824.986 -1971137 -1943297 -1925319 -1917633 -1918623 -1925616 -1936073 
3828.362 -1947684 -1959163 -1970114 -1980141 -1988816 -1995313 -1997985 
3831.737 -1995709 -1986804 -1970609 -1947157 -1917534 -1883654 -1847858 
3835.112 -1813346 -1783714 -1761902 -1750979 -1752167 -1765466 -1788598 
3838.487 -1818163 -1849970 -1880685 -1907572 -1930004 -1947487 -1960780 
3841.863 -1970378 -1977470 -1982747 -1986969 -1990630 -1994027 -1996896 
3845.238 -1998513 -1997523 -1992378 -1981395 -1963352 -1937162 -1902986 
3848.613 -1861517 -1814500 -1765202 -1717185 -1675764 -1646684 -1636286 
3851.988 -1650051 -1690748 -1755665 -1835056 -1914862 -1981395 -2027008 
3855.364 -2050918 -2057546 -2052929 -2042508 -2030405 -2018532 -2007484 
3858.739 -1996699 -1985056 -1971862 -1956492 -1939504 -1921295 -1903448 
3862.114 -1887283 -1874582 -1867654 -1867654 -1875407 -1889757 -1907803 
3865.489 -1925254 -1937855 -1942440 -1938415 -1927991 -1914961 -1904603 
3868.865 -1901040 -1905889 -1917073 -1928915 -1935150 -1931356 -1916809 
3872.240 -1894508 -1870458 -1851388 -1842546 -1846670 -1863200 -1887580 
3875.615 -1914170 -1937426 -1954084 -1962792 -1964639 -1961802 -1956920 
3878.990 -1952566 -1950587 -1951346 -1954216 -1956755 -1956920 -1952797 
3882.365 -1943924 -1931653 -1918557 -1908825 -1906384 -1914038 -1931653 
3885.741 -1955205 -1978195 -1993038 -1994522 -1981197 -1955304 -1921658 
3889.116 -1887118 -1858680 -1841721 -1839082 -1850563 -1872173 -1898302 
3892.491 -1922878 -1941813 -1952566 -1954842 -1949334 -1937393 -1920173 
3895.866 -1898830 -1874285 -1847429 -1818955 -1789984 -1761935 -1736260 
3899.242 -1715270 -1700419 -1693422 -1695204 -1705534 -1723521 -1747448 
3902.617 -1775201 -1804470 -1833011 -1859274 -1882335 -1901964 -1918557 
3905.992 -1932940 -1945672 -1956953 -1966387 -1973083 -1975985 -1974270 
3909.367 -1967476 -1955931 -1940823 -1923571 -1905724 -1888471 -1872008 
3912.743 -1856304 -1840830 -1825521 -1810772 -1798101 -1789159 -1785826 
3916.118 -1788697 -1797507 -1810310 -1824168 -1836310 -1844196 -1846703 
3919.493 -1843008 -1833506 -1819021 -1800345 -1779061 -1757117 -1736953 
3922.868 -1721574 -1713356 -1713719 -1722498 -1737613 -1755698 -1773089 
3926.244 -1786816 -1795461 -1799487 -1799850 -1798662 -1797309 -1796649 
3929.619 -1796946 -1798002 -1799751 -1802424 -1806449 -1812158 -1819120 
3932.994 -1826643 -1833506 -1838554 -1840929 -1840665 -1838059 -1833803 
3936.369 -1828721 -1822980 -1816744 -1809749 -1801896 -1793152 -1784308 
3939.745 -1775960 -1769261 -1764872 -1763717 -1765598 -1770251 -1776686 
3943.120 -1783648 -1789522 -1792558 -1791964 -1787674 -1780315 -1771736 
3946.495 -1764311 -1759823 -1759988 -1764839 -1773254 -1783384 -1792690 
3949.870 -1799520 -1802787 -1802787 -1800246 -1796847 -1793977 -1792888 
3953.246 -1793977 -1797309 -1802226 -1807571 -1811960 -1813874 -1812059 
3956.621 -1806020 -1796088 -1783912 -1771241 -1760351 -1752761 -1749197 
3959.996 -1749065 -1750913 -1752827 -1753190 -1750913 -1746227 -1739923 
3963.371 -1733521 -1728703 -1726326 -1727185 -1730914 -1736788 -1743553 
3966.747 -1749659 -1753916 -1755566 -1754147 -1750385 -1745204 -1739527 
3970.122 -1734148 -1729099 -1723884 -1717449 -1709000 -1697943 -1684741 
3973.497 -1670516 -1657313 -1646948 -1640412 -1637970 -1638960 -1641931 
3976.872 -1645595 -1648532 -1650348 -1650777 -1649853 -1648136 -1645661 
3980.248 -1642624 -1639224 -1635329 -1631368 -1627406 -1623742 -1620738 
3983.623 -1618692 -1617701 -1618131 -1619814 -1623016 -1627142 -1631698 
3986.998 -1635923 -1639158 -1641337 -1642723 -1643713 -1645298 -1647938 
3990.373 -1651965 -1657214 -1662891 -1668502 -1673552 -1677942 -1681441 
3993.749 -1684510 -1686854 -1688603 -1689329 -1688867 -1687382 -1685368 
3997.124 -1683421 -1682266 -1682233 -1683355 -1685104 -1686721 -1687646 
4000.499 -1687481 
##END=
