
##TITLE=Z326a_3_c
##JCAMP-DX=5.01  $$ Nicolet v. 1
##DATATYPE=INFRARED SPECTRUM
##ORIGIN=UniL
##OWNER=Nicolet
##LONGDATE=2011/09/15
##TIME=16:23:40
##SPECTROMETER/DATA SYSTEM=Nicolet iS5
##DATA PROCESSING=
Ratio against background
%Transmittance->Absorbance
Truncated
ElementMultiply or ElementDivide
##COMMENTS=
Number of sample scans: 32
Collection length: 51.16 sec
Sample gain: 2.0
Background collected on: Jeu Sep 15 16:15:34 2011 (GMT+02:00);
Number of background scans: 32
Background gain: 2.0
Sample spacing:  1.000
Number of scan points: 12415
Resolution points: 8192
Number of FFT points: 65536
Apodization: N-B fort;
Phase correction: Mertz;
Laser frequency: 15798.0 cm-1
Number of rejected sample scans: 0
Number of rejected background scans: 0
Bench serial number: ASB1000141;
##RESOLUTION=4.000
##XUNITS=1/CM
##YUNITS=ABSORBANCE
##FIRSTX=649.893372
##LASTX=4000.122314
##FIRSTY=0.118553
##MAXX=4000.122314
##MINX=649.893372
##MAXY=0.298232
##MINY=-0.000988
##XFACTOR=1.000000
##YFACTOR=1.000000E-009
##NPOINTS=6950
##DELTAX=0.482117
##ZPD=6100
##XYDATA=(X++(Y..Y))
649.893 118552920 117883272 117309072 116863392 116544304 116322232 
652.786 116159720 116035696 115957800 115960616 116087512 116372912 
655.679 116826496 117431896 118157904 118975576 119873040 120852752 
658.571 121923600 123085688 124325576 125620024 126952648 128326816 
661.464 129772080 131329640 133036208 134897360 136883296 138931424 
664.357 140974576 142960928 144851216 146619168 148225568 149594960 
667.250 150623312 151213744 151340672 151069680 150516400 149772368 
670.142 148868976 147789600 146501552 144990784 143283776 141451168 
673.035 139582848 137769760 136067232 134488592 133018032 131632056 
675.928 130318072 129081456 127936512 126892464 125941784 125059144 
678.820 124210176 123365208 122512160 121656496 120813416 119994456 
681.713 119197920 118408584 117605784 116774680 115916256 115047480 
684.606 114195176 113382528 112618800 111899320 111209072 110534072 
687.498 109868224 109216424 108589216 107995592 107435016 106897088 
690.391 106364216 105821512 105261344 104686696 104107176 103534240 
693.284 102976704 102439816 101929016 101455400 101035936 100694712 
696.177 100454872 100330912 100325488 100428608 100622976 100890656 
699.069 101220408 101609480 102060800 102577384 103156336 103787224 
701.962 104453792 105139376 105831024 106523272 107215192 107905608 
704.855 108589264 109254984 109888016 110477400 111020312 111525344 
707.747 112007976 112485688 112970816 113468824 113981456 114514224 
710.640 115082760 115716832 116452712 117322608 118341576 119496144 
713.533 120741392 122004600 123205928 124269856 125140368 125792936 
716.425 126232576 126491920 126621664 126690504 126777856 126962232 
719.318 127321808 127916856 128775464 129882928 131171808 132527904 
722.211 133789344 134781344 135344928 135356832 134769280 133617104 
725.104 132022288 130160288 128232928 126430336 124881920 123654024 
727.996 122747576 122119408 121704464 121441048 121287336 121218392 
730.889 121222240 121289488 121406120 121553120 121712928 121873240 
733.782 122032600 122197504 122376784 122573976 122784984 122998944 
736.674 123205264 123399720 123587824 123781824 123994648 124232008 
739.567 124489536 124753400 125007752 125242128 125455592 125656264 
742.460 125854728 126058520 126268120 126477552 126679736 126872448 
745.352 127061008 127255992 127466648 127694488 127929744 128155080 
748.245 128352064 128508792 128625720 128713680 128788248 128861264 
751.138 128936616 129009960 129074944 129128160 129174504 129224840 
754.031 129291936 129382624 129495560 129620624 129745152 129861088 
756.923 129968568 130075440 130192760 130328984 130485520 130657080 
759.816 130835000 131012920 131188928 131365376 131544440 131724624 
762.709 131899448 132060584 132203880 132335800 132475976 132657752 
765.601 132921320 133303480 133833320 134521712 135355920 136294272 
768.494 137265056 138174656 138911152 139377360 139515088 139330688 
771.387 138905952 138386944 137953904 137753568 137860048 138236192 
774.279 138743248 139163296 139261136 138865504 137895264 136384752 
777.172 134449584 132249880 129929904 127578688 125227584 122855496 
780.065 120416984 117866800 115182016 112369368 109462984 106513744 
782.958 103579992 100721992 97990040 95425328 93058008 90904112 88970432 
786.332 87255304 85752104 84452424 83348296 82433776 81704136 81155424 
789.707 80783320 80583872 80554160 80694744 81011576 81516568 82225032 
793.082 83154000 84314920 85708432 87317976 89108728 91024544 92987936 
796.457 94912528 96705336 98279072 99573360 100563664 101278392 101795376 
799.832 102242784 102773888 103527800 104608696 106041064 107752920 
802.724 109559048 111187456 112331560 112682232 112023968 110281784 
805.617 107545104 104048904 100120824 96117632 92315104 88878168 85836000 
808.992 83105248 80535208 77968160 75300552 72498224 69603864 66705056 
812.367 63910716 61313668 58970448 56904544 55108768 53559424 52225728 
815.742 51079152 50095080 49251096 48528512 47910716 47384176 46940364 
819.116 46574756 46285192 46069872 45924924 45844128 45820560 45848732 
822.491 45926984 46057900 46248260 46506008 46837712 47246728 47731604 
825.866 48286044 48897292 49546912 50211264 50861064 51467076 52005052 
829.241 52461324 52840008 53166104 53486636 53862500 54365416 55069308 
832.616 56032908 57293364 58848256 60646944 62576480 64463308 66102536 
835.990 67262408 67739848 67408048 66234856 64303712 61786592 58925360 
839.365 55966528 53121656 50554748 48353924 46544956 45106344 43990628 
842.740 43140368 42499448 42023552 41676132 41428712 41260960 41157824 
846.115 41108972 41109192 41154508 41240300 41360880 41507448 41670920 
849.490 41844624 42025452 42214672 42416508 42636568 42878612 43144760 
852.865 43435236 43750164 44090992 44460940 44864600 45307100 45793828 
856.239 46330020 46922572 47581036 48317336 49146300 50084224 51146016 
859.614 52348876 53711104 55253656 57001552 58978380 61195888 63643284 
862.989 66274336 69001896 71690808 74183216 76314064 77932432 78941064 
866.364 79305984 79069840 78340472 77284216 76102000 74985680 74116128 
869.739 73635520 73632624 74154368 75202360 76742368 78705120 80991816 
873.113 83480472 86011344 88405248 90475040 92029112 92914424 93034568 
876.488 92364408 90957176 88933432 86466024 83736504 80924776 78184656 
879.863 75619032 73287968 71206632 69357544 67704064 66207148 64838028 
883.238 63583016 62445156 61438080 60580124 59884404 59354812 58985060 
886.613 58762284 58672048 58702924 58849812 59114348 59501504 60016128 
889.987 60660244 61432280 62328676 63346564 64486600 65754600 67161840 
893.362 68723232 70453424 72366800 74470568 76760472 79211248 81768248 
896.737 84343848 86804176 88986336 90716656 91823608 92183376 91736664 
900.112 90502136 88571304 86095360 83267448 80278784 77313240 74527000 
903.487 72028048 69888344 68141984 66792032 65822720 65206444 64913780 
906.862 64915700 65189816 65720596 66498952 67520824 68786392 70297312 
910.236 72055696 74061264 76307424 78777328 81437704 84232888 87091040 
913.611 89924032 92638080 95157032 97428456 99438528 101214256 102822296 
916.986 104356960 105916432 107594776 109451728 111496896 113675104 
919.879 115863736 117889576 119534496 120591688 120905848 120407936 
922.771 119150968 117312760 115194200 113150064 111564792 110798008 
925.664 111102504 112609904 115288464 118952392 123256800 127740160 
928.557 131919696 135302528 137488272 138229184 137422704 135120672 
931.450 131483136 126751992 121198552 115095888 108724880 102337720 96159512 
934.824 90391600 85182696 80638400 76821920 73752368 71421152 69800632 
938.199 68855072 68541232 68804360 69575584 70752424 72196800 73749304 
941.574 75223392 76440832 77261816 77591520 77404264 76738920 75692392 
944.949 74392848 72977064 71577880 70295392 69196528 68316176 67659032 
948.324 67210888 66945664 66834696 66848220 66958068 67139296 67367688 
951.698 67621168 67882776 68140080 68388504 68630320 68873432 69128224 
955.073 69403720 69707144 70041720 70408112 70805504 71232864 71689008 
958.448 72172040 72679504 73208072 73753976 74315192 74891536 75485288 
961.823 76099752 76737384 77398840 78082320 78784088 79501104 80232624 
965.198 80980352 81748616 82541384 83361424 84208472 85080920 85976000 
968.573 86892600 87831984 88797312 89791920 90818456 91877600 92969544 
971.947 94094816 95256416 96458752 97707784 99008440 100363400 101772592 
975.322 103234496 104748480 106316472 107943544 109636400 111401992 
978.215 113246304 115174072 117191576 119309240 121542776 123914960 
981.108 126450600 129172952 132100744 135243216 138599312 142154656 
984.000 145881488 149729744 153618784 157441376 161050992 164273488 
986.893 166938432 168883040 169989104 170203568 169541456 168089184 
989.786 165985664 163422160 160608032 157750016 155049856 152668048 
992.678 150721088 149282640 148378768 148001472 148119264 148691952 
995.571 149677824 151038592 152743856 154764800 157073312 159642512 
998.464 162443952 165448896 168629424 171949824 175361824 178801616 
1001.356 182178592 185386128 188313824 190854272 192928560 194495456 
1004.249 195556896 196158176 196382944 196351456 196197568 196066960 
1007.142 196103600 196423600 197116800 198235904 199796544 201786944 
1010.035 204177936 206936368 210028528 213423616 217092896 221001536 
1012.927 225109024 229373504 233750976 238203040 242693840 247175856 
1015.820 251579312 255796848 259669040 263009632 265619424 267318672 
1018.713 267997328 267632448 266308432 264200832 261575136 258755888 
1021.605 256065968 253829984 252318896 251714912 252120912 253542848 
1024.498 255910272 259087024 262904224 267185472 271742240 276398080 
1027.391 280981152 285310176 289216480 292544096 295163456 296996320 
1030.284 298013600 298231968 297697376 296472288 294624160 292215648 
1033.177 289311968 285977024 282265376 278219968 273861440 269188544 
1036.070 264185904 258839808 253154880 247165376 240935440 234551344 
1038.963 228115696 221727216 215478368 209455536 203726608 198343056 
1041.856 193330288 188678000 184336272 180216272 176211568 172209184 
1044.750 168118160 163894112 159544336 155130592 150749824 146527552 
1047.643 142590608 139047232 135988816 133473128 131525920 130145448 
1050.536 129306136 128965336 129068208 129559680 130385984 131495728 
1053.429 132843392 134379456 136043424 137763712 139447488 140985616 
1056.322 142269856 143191792 143661936 143622992 143050512 141961312 
1059.215 140411104 138500016 136360752 134144736 132023632 130157608 
1062.108 128684688 127719920 127336872 127573360 128431872 129883784 
1065.001 131869960 134299824 137063712 140023472 143021632 145905328 
1067.894 148523632 150749072 152493184 153699072 154344400 154431616 
1070.787 153981472 153025936 151602400 149756640 147536880 144994128 
1073.680 142187200 139179696 136045280 132875648 129770976 126842992 
1076.573 124209864 121975512 120230336 119041552 118443016 118436568 
1079.466 118987256 120027216 121447184 123102056 124828128 126436416 
1082.359 127746912 128617480 128955024 128745336 128051968 127015992 
1085.252 125824320 124684688 123812536 123386464 123543432 124369112 
1088.146 125886176 128056856 130781752 133918496 137278784 140648080 
1091.039 143823408 146610640 148854512 150453392 151350352 151535984 
1093.932 151037776 149914544 148244784 146116000 143625264 140865168 
1096.825 137920992 134875536 131800008 128757272 125801696 122968904 
1099.718 120273912 117705928 115230744 112794336 110334872 107802776 
1102.611 105169256 102440312 99655712 96889224 94234744 91788280 89646080 
1105.986 87886944 86565944 85718200 85356408 85475072 86054400 87063792 
1109.361 88464584 90207704 92238432 94493120 96894192 99357216 101783104 
1112.737 104059728 106078680 107733432 108935680 109629320 109790176 
1115.630 109429512 108586112 107322920 105715368 103840160 101777032 
1118.523 99596072 97353160 95092856 92843560 90620992 88434728 86291912 
1121.898 84202800 82184232 80257936 78449576 76785784 75288296 73974280 
1125.273 72855880 71940680 71235480 70748064 70487408 70463752 70684896 
1128.648 71153152 71861896 72792760 73916728 75189160 76554712 77949872 
1132.024 79300088 80533776 81588016 82416424 83002272 83361184 83542552 
1135.399 83616304 83666960 83778288 84013712 84412736 84980688 85690232 
1138.774 86481752 87271512 87968208 88472624 88696632 88574064 88058856 
1142.149 87132264 85798616 84081864 82019312 79658464 77057328 74276928 
1145.525 71381592 68438816 65508680 62646860 59901708 57308372 54893236 
1148.900 52672844 50654224 48838300 47221240 45796404 44555472 43488668 
1152.275 42586568 41839044 41237204 40774188 40445188 40247316 40179092 
1155.650 40239172 40425912 40737068 41170860 41727120 42407816 43217148 
1159.026 44159472 45239104 46457624 47813236 49300160 50907816 52621116 
1162.401 54416752 56262428 58119012 59935484 61655812 63224092 64583548 
1165.776 65685600 66491768 66973648 67117288 66923052 66406088 65593952 
1169.151 64524196 63242680 61794576 60225576 58578912 56891324 55197176 
1172.527 53527264 51908032 50364276 48917576 47584620 46378792 45308240 
1175.902 44376708 43584996 42932232 42417276 42039724 41799316 41696740 
1179.277 41732228 41906584 42221172 42679264 43285156 44044676 44963992 
1182.652 46047476 47298044 48715400 50296080 52031196 53903728 55887044 
1186.028 57938104 59998056 61997960 63855060 65487832 66825116 67807776 
1189.403 68400760 68594392 68404840 67871264 67050396 66014120 64835684 
1192.778 63587928 62339848 61147176 60056496 59102924 58308408 57684952 
1196.153 57234652 56950968 56818280 56812388 56902388 57047724 57201160 
1199.529 57313512 57330792 57203432 56890492 56361448 55603636 54623816 
1202.904 53449272 52122756 50698532 49237476 47795108 46420160 45150716 
1206.279 44009840 43009704 42152528 41434212 40846548 40379040 40020620 
1209.654 39758376 39579656 39472452 39426988 39437036 39501012 39621072 
1213.030 39801700 40047360 40361296 40744092 41193484 41704252 42269340 
1216.405 42879084 43521112 44181920 44846192 45498536 46126136 46718480 
1219.780 47268564 47772992 48230648 48643608 49015748 49355284 49674312 
1223.155 49988376 50317172 50681256 51099124 51586052 52150924 52795444 
1226.531 53514032 54294560 55118924 55963396 56802572 57609276 58357976 
1229.906 59029052 59609244 60094168 60487792 60803296 61062696 61294852 
1233.281 61538972 61841676 62252916 62828824 63622832 64681180 66043780 
1236.656 67738112 69780048 72175560 74921544 78005664 81404136 85082648 
1240.031 88992232 93067776 97238000 101421576 105533368 109494144 113222960 
1243.407 116642768 119686456 122292384 124412752 126016136 127084968 
1246.300 127615992 127616120 127102776 126102104 124649064 122788672 
1249.193 120568112 118031744 115216880 112146856 108835336 105291696 
1252.086 101530696 97580496 93490328 89324504 85165288 81103184 77221752 
1255.461 73599680 70298048 67352944 64778708 62564000 60677196 59066896 
1258.836 57670344 56420340 55245452 54083412 52885028 51616012 50262744 
1262.212 48828956 47333884 45804948 44274516 42774904 41332308 39967976 
1265.587 38696828 37526664 36460964 35498288 34633760 33860096 33168658 
1268.962 32552280 32005538 31525816 31112934 30767374 30489190 30277010 
1272.337 30128534 30041214 30013270 30044126 30133258 30279000 30476430 
1275.713 30717228 30988298 31272676 31551756 31804416 32008782 32145306 
1279.088 32196510 32151050 32006394 31769476 31455812 31085738 30682058 
1282.463 30263154 29841816 29424822 29015170 28615496 28231604 27873454 
1285.838 27554822 27290964 27095048 26976848 26942792 26996416 27140896 
1289.214 27380170 27718452 28159336 28703556 29347568 30082190 30891766 
1292.589 31755396 32643284 33518892 34341508 35065556 35651056 36069612 
1295.964 36309208 36378412 36305320 36133632 35911296 35686956 35503432 
1299.339 35391692 35373108 35458880 35649436 35933828 36288892 36681740 
1302.715 37068776 37402520 37641156 37749392 37706744 37508096 37162716 
1306.090 36690396 36118256 35478872 34805644 34130912 33485894 32894760 
1309.465 32375180 31936880 31582114 31308428 31111652 30989222 30940652 
1312.840 30967268 31070222 31249068 31501446 31824558 32216314 32676936 
1316.216 33208896 33814428 34493364 35241136 36047900 36900756 37786660 
1319.591 38693388 39611416 40531864 41443292 42330080 43170008 43934092 
1322.966 44592296 45115276 45480980 45681216 45724948 45641796 45477120 
1326.341 45293564 45158692 45133216 45266760 45584528 46085308 46742428 
1329.717 47511792 48343888 49190492 50017892 50807948 51558216 52277560 
1333.092 52981632 53688944 54416040 55176480 55978776 56825604 57711136 
1336.467 58621268 59535440 60426252 61263492 62019020 62666228 63184468 
1339.842 63560964 63790204 63875056 63826008 63659356 63394948 63054188 
1343.218 62659068 62228328 61777424 61316796 60851896 60383984 59912088 
1346.593 59433872 58945780 58442536 57916296 57356048 56748988 56085308 
1349.968 55361024 54583804 53773164 52963588 52199200 51527844 51000928 
1353.343 50663308 50549576 50681664 51061672 51669488 52458336 53363504 
1356.719 54303684 55190668 55947908 56511356 56838864 56914252 56745248 
1360.094 56363672 55818312 55179004 54529248 53954484 53540192 53350616 
1363.469 53415436 53726444 54237492 54877372 55554828 56177916 56659768 
1366.844 56922408 56913648 56610092 56024160 55199584 54205848 53125248 
1370.219 52031796 50989600 50045112 49225080 48546520 48020760 47658420 
1373.595 47471392 47468992 47651620 48006292 48507360 49122704 49819556 
1376.970 50573696 51372260 52212576 53101208 54051552 55083340 56220188 
1380.345 57489396 58916708 60514796 62270124 64127504 65992592 67725480 
1383.720 69161048 70141664 70521240 70199776 69144424 67411720 65156400 
1387.096 62605104 60029484 57663760 55661300 54088068 52929564 52125372 
1390.471 51593436 51255392 51039980 50883676 50735360 50549760 50291500 
1393.846 49940568 49495364 48973132 48401556 47809608 47217436 46632852 
1397.221 46056796 45491172 44945400 44442076 44012296 43686956 43489616 
1400.597 43428936 43500788 43693072 43992352 44386508 44866288 45426020 
1403.972 46061068 46766596 47536708 48363408 49237288 50149488 51091708 
1407.347 52058052 53045572 54051964 55075516 56113512 57161624 58215044 
1410.722 59269920 60323520 61373044 62413020 63431800 64410768 65327244 
1414.098 66158332 66890812 67525432 68078920 68579752 69063232 69565560 
1417.473 70116272 70737920 71441504 72223456 73065856 73937904 74802256 
1420.848 75619904 76357672 76993384 77517688 77940800 78291856 78618424 
1424.223 78970912 79389112 79891544 80470960 81103664 81760128 82417832 
1427.599 83063968 83696200 84319544 84943544 85580664 86246240 86962544 
1430.974 87756752 88654760 89677688 90833448 92117216 93514040 95009304 
1434.349 96598336 98286880 100091696 102030048 104107856 106305720 108584880 
1437.724 110901552 113215640 115493368 117695280 119771440 121646104 
1440.617 123220672 124396080 125074208 125179800 124672288 123543432 
1443.510 121821080 119564560 116869904 113856456 110650248 107386736 
1446.404 104188080 101161888 98406352 95995520 93972656 92341664 91070760 
1449.779 90106088 89392720 88896344 88609336 88547664 88733000 89174224 
1453.154 89849328 90708080 91666568 92621472 93467976 94102752 94461616 
1456.529 94549672 94464656 94359648 94378016 94617608 95113232 95864320 
1459.905 96858288 98078648 99503944 101095984 102798824 104523512 106144376 
1463.280 107522656 108515368 109021368 109018984 108576800 107827832 
1466.173 106910944 105944432 105000952 104112784 103290600 102527240 
1469.066 101798680 101054208 100211200 99156832 97760568 95922912 93622296 
1472.441 90950640 88089176 85243336 82570632 80143992 77975568 76054192 
1475.816 74376136 72958208 71826120 70992136 70441472 70128304 69991840 
1479.192 69968096 70010368 70097152 70229288 70424440 70705712 71097144 
1482.567 71619528 72295688 73157096 74242736 75596120 77254016 79230696 
1485.942 81502104 83990712 86574032 89073624 91268672 92928464 93816072 
1489.317 93739912 92606872 90451784 87448696 83855096 79956824 75984760 
1492.693 72081200 68321992 64724056 61284932 58018948 54966748 52201368 
1496.068 49812012 47871980 46415184 45428628 44870736 44687660 44830728 
1499.443 45262344 45949012 46856312 47947272 49177320 50498616 51865392 
1502.818 53222244 54504680 55632672 56487392 56916176 56744416 55819592 
1506.194 54098800 51713864 48949472 46108780 43400264 40903448 38609396 
1509.569 36481360 34493076 32637894 30932434 29400500 28057564 26906798 
1512.944 25936132 25126254 24456180 23907590 23464670 23109938 22825092 
1516.319 22593726 22405392 22260420 22167242 22135268 22166718 22251528 
1519.695 22367890 22491436 22604964 22711576 22834626 23007354 23253518 
1523.070 23574780 23954926 24369574 24800296 25238824 25691958 26175586 
1526.445 26707670 27297564 27942990 28633722 29358416 30111062 30892904 
1529.820 31710804 32573636 33487290 34454588 35474920 36544576 37659300 
1533.196 38812140 39993076 41186928 42377092 43546460 44681196 45766952 
1536.571 46789368 47736340 48591724 49340060 49965700 50454404 50794356 
1539.946 50978272 51011696 50912288 50708180 50429540 50096908 49715920 
1543.321 49277076 48766484 48175780 47515456 46815720 46118912 45462256 
1546.697 44861332 44309592 43783440 43257336 42717576 42172788 41651884 
1550.072 41194760 40831368 40570892 40401768 40301704 40250772 40239432 
1553.447 40272108 40361804 40519388 40744712 41022332 41323528 41614392 
1556.822 41855720 42006944 42035600 41931508 41728180 41499396 41333260 
1560.198 41286140 41367004 41556816 41825728 42145988 42495688 42861348 
1563.573 43238192 43628884 44041960 44486784 44968548 45484588 46024708 
1566.948 46572544 47112652 47631352 48120920 48581056 49018016 49442380 
1570.323 49861956 50281832 50701512 51117504 51523108 51909116 52263884 
1573.698 52568904 52801728 52939412 52966584 52887684 52731088 52543288 
1577.074 52364016 52211116 52074412 51925692 51730024 51456816 51089100 
1580.449 50624252 50073664 49454744 48785168 48076724 47333180 46556312 
1583.824 45749612 44920336 44079440 43235668 42392800 41548500 40699108 
1587.199 39844732 38995508 38170372 37393168 36686752 36065148 35532808 
1590.575 35086860 34721396 34429768 34203500 34029884 33886316 33740612 
1593.950 33557516 33303830 32959242 32522284 32009422 31448544 30868998 
1597.325 30295910 29745222 29226168 28746710 28316086 27945358 27644998 
1600.700 27420262 27269724 27186186 27161954 27191196 27272194 27404168 
1604.076 27582784 27793968 28015222 28214632 28358846 28421032 28383040 
1607.451 28239136 27993312 27656440 27240760 26758870 26226268 25662536 
1610.826 25092516 24545682 24047372 23613230 23245686 22934552 22661792 
1614.201 22407416 22155664 21897854 21634174 21372360 21126042 20910180 
1617.577 20737310 20615722 20548566 20533246 20561732 20620726 20694148 
1620.952 20764976 20821772 20861992 20895402 20938726 21009698 21118458 
1624.327 21263466 21435534 21623448 21820710 22025940 22240994 22467010 
1627.702 22700402 22932700 23154252 23358994 23548756 23731636 23918934 
1631.078 24118468 24330778 24546944 24751536 24927134 25056676 25129168 
1634.453 25141736 25101048 25021472 24921170 24817452 24722108 24639726 
1637.828 24569700 24506906 24442792 24366700 24269492 24145894 23998204 
1641.203 23836144 23674144 23525178 23395254 23280574 23167918 23038868 
1644.579 22874160 22660920 22398450 22100820 21793952 21508190 21269626 
1647.954 21092370 20979828 20926696 20922174 20951382 20992034 21014950 
1651.329 20979932 20843290 20579972 20210716 19812886 19477100 19257346 
1654.704 19149258 19115014 19110616 19103900 19078278 19030192 18965598 
1658.080 18893262 18820108 18747140 18669308 18578622 18467388 18331672 
1661.455 18172264 17993608 17803048 17608810 17419110 17242210 17084960 
1664.830 16951642 16842542 16752239 16669942 16579708 16464749 16312046 
1668.205 16117167 15886974 15638869 15394477 15171392 14978498 14815654 
1671.581 14676929 14554112 14437530 14316972 14180735 14016512 13817118 
1674.956 13585304 13336939 13095818 12884423 12713422 12579767 12470159 
1678.331 12368248 12261964 12147767 12032340 11927842 11845228 11785644 
1681.706 11737064 11673274 11562840 11378821 11116927 10805729 10498420 
1685.082 10244519 10064213 9947711 9869201 9803346 9731166 9643548 9539657 
1688.939 9423329 9300161 9175505 9054877 8944328 8849970 8777339 8727573 
1692.796 8695120 8666623 8623022 8544954 8420683 8255787 8076809 7919738 
1696.654 7810691 7754087 7732668 7717254 7674152 7575923 7412425 7199466 
1700.511 6976779 6785740 6649960 6567739 6522093 6492596 6462932 6422274 
1704.369 6364405 6288255 6196658 6096343 5995682 5903004 5825122 5765217 
1708.226 5722509 5692831 5670272 5648955 5625694 5600990 5578435 5562292 
1712.083 5555378 5557258 5564675 5572595 5576422 5573233 5561923 5541753 
1715.941 5510343 5463802 5398981 5317029 5226508 5142042 5077705 5041803 
1719.798 5034026 5046831 5068922 5089405 5101608 5103720 5099127 5093696 
1723.656 5092925 5099261 5111733 5127323 5143550 5159410 5175538 5192807 
1727.513 5210714 5226341 5236133 5237106 5229426 5216415 5203135 5192304 
1731.371 5181775 5161757 5117064 5032215 4900065 4730404 4549692 4391715 
1735.228 4279268 4215728 4189632 4182673 4179027 4166883 4141626 4104362 
1739.085 4060881 4018575 3982927 3956846 3940395 3932437 3932236 3938389 
1742.943 3949590 3963566 3977611 3989883 4000249 4010582 4024194 4043323 
1746.800 4068340 4096235 4121723 4138682 4142094 4129450 4101085 4059143 
1750.658 4007372 3949657 3890578 3835552 3789323 3755767 3735848 3727393 
1754.515 3724619 3720040 3706205 3679271 3641112 3599214 3563133 3539982 
1758.373 3531197 3531798 3533468 3526420 3504607 3466798 3417703 3365408 
1762.230 3317661 3279733 3252725 3234833 3223683 3217307 3214203 3212901 
1766.087 3211199 3207060 3198648 3186465 3174282 3167140 3169075 3180591 
1769.945 3196579 3208695 3206826 3184062 3141073 3086509 3034121 2995184 
1773.802 2974466 2969028 2971463 2974433 2974433 2972431 2972031 2977702 
1777.660 2990580 3007896 3024512 3034321 3034155 3025146 3012400 3001824 
1781.517 2997086 2998220 3001123 3001490 2995852 2984108 2969295 2956418 
1785.375 2949312 2949712 2956818 2969062 2985576 3007062 3034788 3069257 
1789.232 3108234 3146347 3175951 3189102 3181058 3152421 3109636 3061616 
1793.089 3017438 2982240 2956518 2938604 2925927 2917188 2912218 2911017 
1796.947 2912651 2914819 2914352 2908515 2896407 2879262 2860217 2842474 
1800.804 2827799 2816327 2806455 2797385 2789415 2784412 2785246 2793450 
1804.662 2808690 2828533 2849511 2868355 2883865 2897007 2909716 2923426 
1808.519 2937670 2949846 2956485 2954650 2943808 2926194 2905813 2886734 
1812.376 2870990 2858950 2849611 2842174 2837504 2838005 2846409 2864920 
1816.234 2893271 2928196 2965492 3001223 3033654 3063451 3092783 3123819 
1820.091 3157227 3191505 3224384 3253860 3279166 3300833 3319831 3336759 
1823.949 3350683 3360633 3366510 3369883 3374791 3385444 3404378 3430460 
1827.806 3458581 3480725 3489944 3482395 3460619 3432598 3409054 3397833 
1831.664 3401640 3417636 3439945 3463090 3484333 3504140 3525485 3551908 
1835.521 3585082 3624673 3668645 3715128 3764089 3817735 3878643 3948954 
1839.378 4028842 4115200 4203951 4290812 4373306 4450694 4524011 4594495 
1843.236 4663650 4732313 4800887 4870477 4942525 5018003 5096244 5174834 
1847.093 5248776 5312501 5361643 5393680 5408811 5409146 5396565 5371807 
1850.951 5333432 5279162 5207763 5120986 5023802 4923188 4825210 4733519 
1854.808 4647373 4563487 4478212 4390376 4302056 4218605 4144837 4083558 
1858.666 4033256 3989047 3944808 3895994 3841335 3782539 3723215 3666205 
1862.523 3612745 3562932 3516633 3475381 3442817 3423113 3418939 3429926 
1866.380 3450666 3472910 3488141 3491648 3483364 3468501 3454340 3446992 
1870.238 3448562 3457346 3469703 3482663 3494954 3506678 3518436 3529293 
1874.095 3536408 3536274 3525819 3504875 3476316 3445289 3416434 3392223 
1877.953 3371486 3350783 3326776 3298530 3268116 3239906 3218376 3205257 
1881.810 3198815 3194075 3185831 3171112 3150318 3127223 3106365 3091448 
1885.667 3082538 3077366 3072494 3065286 3055242 3043898 3033153 3024345 
1889.525 3017538 3010999 3004059 2997753 2994817 2998487 3010732 3029950 
1893.382 3051839 3070659 3081971 3084641 3081637 3078067 3079468 3088044 
1897.240 3102561 3118846 3133064 3143109 3150085 3156426 3165371 3177286 
1901.097 3190904 3202887 3210865 3214971 3218309 3224785 3237603 3256698 
1904.955 3278365 3297328 3308980 3311484 3306676 3298262 3290050 3283372 
1908.812 3277029 3268216 3254728 3237770 3220779 3208629 3205124 3210231 
1912.669 3220913 3232997 3242944 3250289 3257733 3267848 3281569 3296226 
1916.527 3305140 3300299 3277497 3238204 3190437 3144744 3110503 3091081 
1920.384 3083906 3081304 3076165 3063718 3044131 3021175 2999788 2982907 
1924.242 2970096 2959153 2948345 2938303 2932265 2935034 2949045 2973098 
1928.099 3001457 3026580 3042796 3048936 3048068 3046300 3049470 3058379 
1931.957 3069658 3076565 3073629 3059013 3036357 3012066 2993216 2982940 
1935.814 2979404 2977602 2971931 2959687 2941706 2922291 2905213 2892170 
1939.671 2881430 2869589 2854247 2836237 2819428 2810457 2813592 2828966 
1943.529 2851979 2876927 2899375 2919890 2942340 2973065 3015236 3066888 
1947.386 3120148 3163835 3189469 3192940 3176552 3147748 3115609 3085975 
1951.244 3061816 3042963 3028682 3019273 3016738 3022410 3034822 3048469 
1955.101 3054775 3044732 3014569 2966426 2909049 2854480 2811958 2785680 
1958.958 2772508 2766105 2759936 2752000 2744698 2742631 2749399 2763904 
1962.816 2780377 2793350 2798819 2798252 2797151 2802620 2817761 2840873 
1966.673 2863252 2876660 2876260 2863553 2846343 2833402 2829567 2833169 
1970.531 2837304 2833235 2816560 2789881 2762971 2746798 2749599 2772708 
1974.388 2809657 2854214 2901844 2954383 3019373 3104263 3208695 3324238 
1978.246 3433466 3519472 3570449 3585015 3570549 3539882 3503939 3468200 
1982.103 3432999 3396430 3357762 3320298 3291018 3276195 3277897 3291819 
1985.960 3308279 3316125 3308446 3284942 3251991 3218910 3193474 3177653 
1989.818 3168508 3160965 3151319 3139972 3132363 3134232 3149250 3175217 
1993.675 3205424 3232229 3250255 3258568 3261272 3263609 3268349 3274492 
1997.533 3277363 3271654 3255062 3230894 3205992 3188334 3183094 3187600 
2001.390 3194876 3195110 3181558 3152788 3114608 3074863 3043564 3026680 
2005.248 3025746 3039593 3066054 3103028 3149350 3201886 3255229 3300333 
2009.105 3329981 3339931 3333220 3318829 3309314 3314856 3338929 3376428 
2012.962 3416835 3450265 3471273 3481560 3488975 3501535 3523146 3551775 
2016.820 3579102 3596374 3599214 3589725 3575694 3566741 3569747 3584915 
2020.677 3607299 3628148 3640978 3643083 3637136 3626243 3614716 3603791 
2024.535 3593868 3585850 3583211 3590962 3614716 3655847 3709380 3764156 
2028.392 3808075 3831708 3832945 3819106 3801624 3793334 3802226 3828967 
2032.250 3869182 3916823 3967713 4021852 4081618 4148517 4220010 4290544 
2036.107 4351886 4398811 4429940 4449724 4464855 4480321 4497261 4511758 
2039.964 4517784 4510586 4489360 4459833 4429840 4406810 4393890 4390108 
2043.822 4390443 4390544 4388970 4388870 4396635 4418995 4458327 4513264 
2047.679 4577919 4645163 4706655 4757001 4790971 4805175 4796666 4765343 
2051.537 4713823 4650253 4585788 4534257 4507405 4511323 4544268 4598614 
2055.394 4662210 4724308 4777604 4820017 4852015 4875303 4890046 4895642 
2059.251 4891922 4880496 4866557 4856639 4857007 4869573 4892291 4918295 
2063.109 4939207 4949931 4948892 4939274 4926539 4915280 4906533 4898892 
2066.966 4889074 4875135 4858448 4843605 4833956 4832213 4835631 4838311 
2070.824 4833185 4815997 4786649 4751072 4717943 4694262 4684415 4688233 
2074.681 4701664 4720120 4740855 4762864 4787286 4814389 4843236 4871013 
2078.539 4894336 4911426 4923657 4934180 4947518 4966018 4989211 5013646 
2082.396 5034797 5048741 5054574 5053770 5049077 5042238 5033288 5020182 
2086.253 5000775 4974565 4944133 4914475 4890985 4876274 4869673 4866088 
2090.111 4858884 4842600 4815830 4781356 4745746 4715331 4695234 4687162 
2093.968 4690042 4700727 4716972 4736635 4758509 4781222 4802763 4820453 
2097.826 4832850 4839752 4844309 4851009 4864010 4885221 4913905 4945977 
2101.683 4976911 5003724 5026685 5048440 5073112 5103351 5139292 5178992 
2105.541 5218662 5255685 5289559 5321658 5354297 5389051 5425183 5460580 
2109.398 5492155 5518531 5539941 5559171 5579006 5600285 5622102 5640832 
2113.255 5652078 5653320 5645364 5631199 5616598 5606394 5603507 5608139 
2117.113 5618376 5631669 5646203 5661309 5676684 5692227 5707099 5719790 
2120.970 5729056 5735167 5739363 5744534 5752961 5765519 5781669 5799063 
2124.828 5815618 5830126 5843827 5857999 5873818 5890745 5905725 5914458 
2128.685 5913349 5900989 5879762 5854507 5830864 5813604 5804940 5805074 
2132.542 5812831 5827707 5850476 5881106 5919261 5961450 6001863 6034116 
2136.400 6053200 6058912 6055249 6050075 6049739 6058307 6074805 6095033 
2140.257 6112910 6124570 6129006 6128603 6126183 6123259 6118588 6110087 
2144.115 6094562 6072318 6045741 6018964 5995077 5974316 5952179 5922586 
2147.972 5880233 5823879 5756218 5683666 5610958 5540511 5471049 5397404 
2151.830 5316057 5227649 5135202 5044786 4960555 4881870 4803735 4720891 
2155.687 4633240 4551199 4496357 4497027 4575810 4741927 4980597 5258200 
2159.544 5533565 5768977 5941430 6047152 6094260 6097889 6072889 6031428 
2163.402 5980699 5927222 5876538 5833215 5799500 5774249 5751450 5723180 
2167.259 5683331 5630024 5567393 5503430 5445918 5400054 5364830 5334841 
2171.117 5303009 5265076 5220338 5172218 5126216 5085985 5052228 5022562 
2174.974 4992965 4960924 4926740 4892861 4861799 4834726 4810670 4785912 
2178.832 4759916 4734055 4713154 4703909 4710641 4732548 4763701 4793684 
2182.689 4812479 4814590 4800519 4774924 4744507 4714326 4685554 4656583 
2186.546 4625605 4591582 4558934 4533654 4521166 4524882 4542929 4568376 
2190.404 4593524 4611808 4620347 4620247 4616128 4611808 4610401 4613984 
2194.261 4623227 4638800 4662109 4693559 4731945 4774555 4815629 4848396 
2198.119 4869070 4876040 4871616 4861330 4850139 4841963 4837708 4835932 
2201.976 4834692 4833319 4832515 4833721 4838311 4846118 4855232 4863273 
2205.833 4869338 4873895 4880094 4890549 4906667 4927042 4946748 4959985 
2209.691 4961628 4949797 4925802 4893732 4859520 4827154 4800251 4781389 
2213.548 4772244 4775024 4791138 4820151 4858750 4900233 4936526 4960019 
2217.406 4967124 4958879 4940547 4919233 4900535 4887030 4877480 4868165 
2221.263 4855969 4840321 4823100 4808057 4798408 4794555 4793550 4791104 
2225.121 4782696 4766080 4742798 4716872 4693224 4676008 4666865 4665056 
2228.978 4668841 4675606 4682807 4688502 4690511 4687061 4677013 4661138 
2232.835 4642349 4625806 4617601 4622356 4641948 4674535 4715063 4757504 
2236.693 4796901 4831476 4861765 4890247 4918630 4947652 4976441 5003624 
2240.550 5028160 5050887 5072743 5095137 5118371 5140634 5159544 5173358 
2244.408 5181943 5187878 5195557 5209071 5230164 5257865 5287614 5314212 
2248.265 5333667 5344300 5346950 5345072 5341784 5339671 5339939 5343193 
2252.123 5350103 5362045 5380328 5405154 5435114 5466419 5493732 5512692 
2255.980 5520880 5518195 5507255 5491685 5473566 5453568 5430954 5404684 
2259.837 5375028 5344233 5315654 5293282 5279397 5273326 5272622 5274299 
2263.695 5276043 5277619 5280839 5288184 5301231 5319277 5339973 5359831 
2267.552 5376235 5388078 5396062 5402101 5407603 5412602 5416427 5417836 
2271.410 5416225 5412501 5409112 5408441 5412099 5420016 5430149 5440382 
2275.267 5448904 5454910 5459909 5465445 5473364 5484035 5497121 5511416 
2279.125 5526417 5542190 5559674 5580147 5604011 5630594 5658321 5685143 
2282.982 5709584 5730802 5749033 5764612 5777708 5787982 5794799 5797888 
2286.839 5797620 5794564 5790165 5785162 5779621 5772805 5763941 5753163 
2290.697 5741848 5732984 5729929 5735502 5750477 5773645 5801683 5831334 
2294.554 5859645 5885405 5908781 5931017 5952952 5974887 5996488 6016343 
2298.412 6034015 6049067 6061902 6073124 6082902 6090900 6096477 6099334 
2302.269 6099838 6099367 6100140 6103937 6111834 6123730 6138248 6153841 
2306.126 6168998 6183013 6196356 6209598 6223009 6237127 6251513 6266068 
2309.984 6280860 6296088 6312427 6330077 6348435 6366456 6382831 6396786 
2313.841 6408488 6419383 6431489 6446756 6466463 6490477 6517788 6546546 
2317.699 6575442 6603700 6631422 6659347 6688418 6719443 6752927 6788298 
2321.556 6823739 6855918 6880121 6890759 6882410 6851744 6798731 6727486 
2325.414 6645687 6562659 6487517 6426915 6383033 6354016 6335221 6321370 
2329.271 6308796 6296694 6286373 6280893 6282641 6292256 6308325 6328934 
2333.128 6351158 6374257 6397794 6422106 6447530 6473560 6498448 6520546 
2336.986 6538911 6553678 6566561 6579479 6594314 6611976 6632297 6654334 
2340.843 6676843 6699489 6721563 6742393 6760936 6775239 6782745 6782274 
2344.701 6773826 6760162 6745961 6737783 6741182 6760398 6797351 6851576 
2348.558 6920889 7001561 7089219 7179119 7266207 7346134 7415695 7472896 
2352.416 7517967 7552827 7579598 7600672 7617566 7631695 7644037 7655941 
2356.273 7669734 7687069 7708822 7734321 7761069 7785525 7804349 7816123 
2360.130 7821217 7822195 7822060 7822904 7825771 7829482 7832519 7833935 
2363.988 7834070 7834407 7836803 7842606 7851918 7863760 7876143 7887615 
2367.845 7897804 7907286 7916734 7926385 7935597 7942617 7946092 7945451 
2371.703 7941435 7936373 7932897 7932762 7937115 7945350 7956249 7968804 
2375.560 7982775 7998638 8017268 8039444 8064894 8093080 8122484 8152295 
2379.417 8182445 8213678 8247345 8284662 8326743 8373356 8424028 8477983 
2383.275 8534411 8592334 8650906 8708642 8763646 8814025 8857951 8894576 
2387.132 8924203 8947879 8967058 8983023 8996385 9006872 9014449 9019118 
2390.990 9021655 9023617 9026323 9030924 9037183 9043780 9048922 9050716 
2394.847 9048381 9041851 9032447 9022094 9012623 9006060 9004368 9009239 
2398.705 9022636 9045945 9079541 9122918 9173948 9229925 9287467 9344271 
2402.562 9398950 9452011 9504874 9559506 9617971 9681731 9751531 9827681 
2406.419 9909946 9997786 10089952 10185223 10282110 10379325 10476560 
2409.795 10574089 10673237 10774886 10879278 10985461 11091263 11193724 
2413.170 11290224 11379433 11461142 11536673 11607010 11673173 11734749 
2416.545 11790819 11839985 11881392 11915173 11942385 11964250 11981587 
2419.920 11994734 12003318 12006929 12006247 12002330 11997562 11994462 
2423.296 11995007 12000423 12010641 12025323 12044366 12068179 12097852 
2426.671 12135092 12181331 12237016 12302218 12376430 12459144 12550197 
2430.046 12649728 12757813 12874013 12997516 13126587 13259283 13394446 
2433.421 13531462 13670608 13812980 13959469 14110766 14267423 14428898 
2436.797 14595161 14766219 14941733 15121848 15306430 15495521 15688781 
2440.172 15886664 16089624 16298147 16512245 16731301 16953880 17177848 
2443.547 17401518 17623752 17845614 18068868 18295798 18528620 18768244 
2446.922 19013678 19262298 19511166 19757158 19998224 20232932 20461134 
2450.298 20683236 20899506 21110318 21316394 21518566 21717418 21913536 
2453.673 22106922 22296832 22481456 22658510 22825406 22979336 23118326 
2457.048 23240164 23343470 23427356 23490970 23533784 23556032 23558166 
2460.423 23541024 23504752 23449948 23376476 23284910 23176236 23052144 
2463.799 22915864 22771140 22621404 22470498 22321458 22176830 22039256 
2467.174 21912108 21799284 21704982 21633198 21586814 21566998 21573406 
2470.549 21603772 21655594 21726126 21813220 21914792 22029180 22154306 
2473.924 22288078 22428560 22573690 22722294 22873112 23025312 23177144 
2477.300 23326444 23470022 23604132 23726036 23833134 23924184 23998624 
2480.675 24056896 24099028 24125474 24136402 24132654 24115036 24085754 
2484.050 24046914 24000936 23950094 23895724 23838420 23778460 23715504 
2487.425 23649230 23579364 23505802 23427914 23345814 23258972 23167392 
2490.801 23070664 22968716 22861448 22748864 22630726 22506824 22377064 
2494.176 22241098 22098450 21948526 21789876 21621114 21440756 21248156 
2497.551 21043468 20828378 20605578 20378062 20148724 19919402 19690688 
2500.926 19462684 19234902 19007204 18780562 18556422 18337272 18124830 
2504.302 17920608 17725212 17538358 17359962 17189810 17027926 16874576 
2507.677 16729476 16592378 16462306 16338399 16220270 16108124 16002674 
2511.052 15904777 15815252 15733751 15659479 15590990 15526700 15465751 
2514.427 15408106 15354347 15305435 15262431 15225779 15195891 15173073 
2517.802 15157152 15148060 15145590 15149021 15157084 15169024 15183675 
2521.178 15201038 15221764 15246747 15277292 15314050 15356201 15401995 
2524.553 15449271 15495349 15538032 15576565 15610326 15639385 15664151 
2527.928 15684487 15700152 15711008 15717020 15717845 15714204 15706060 
2531.303 15693763 15677547 15657658 15634095 15607029 15576703 15543183 
2534.679 15506543 15466781 15423932 15379097 15333477 15288617 15246782 
2538.054 15209342 15177465 15151011 15129499 15112345 15099136 15089291 
2541.429 15082738 15078965 15077112 15075671 15073065 15067816 15059617 
2544.804 15048606 15036326 15024458 15014065 15006108 14999729 14993589 
2548.180 14986112 14975789 14961350 14943003 14921673 14899109 14877643 
2551.555 14860019 14848533 14844659 14848327 14857859 14870546 14882375 
2554.930 14889816 14890639 14884295 14871711 14855493 14838487 14822750 
2558.305 14809757 14799369 14790695 14782433 14773041 14760974 14745103 
2561.681 14724091 14697081 14663562 14624049 14579741 14532732 14485591 
2565.056 14440715 14399784 14363993 14333341 14307726 14286906 14270779 
2568.431 14259309 14252494 14249892 14250919 14254720 14260643 14268108 
2571.806 14277011 14287591 14299713 14313650 14329163 14346150 14364677 
2575.182 14384953 14407148 14431604 14458152 14485899 14514129 14542188 
2578.557 14569907 14597903 14627373 14659210 14694272 14732078 14771807 
2581.932 14812088 14851893 14890605 14928565 14966494 15005079 15044970 
2585.307 15086272 15129155 15173759 15220632 15270221 15323249 15380093 
2588.683 15440275 15503144 15567979 15634164 15701422 15769931 15839480 
2592.058 15909348 15978198 16044032 16105268 16161149 16212016 16259551 
2595.433 16306059 16353743 16403634 16455974 16509939 16564425 16618367 
2598.808 16671663 16724518 16777310 16830590 16884084 16937826 16991538 
2602.184 17045604 17100780 17158650 17220560 17287548 17360340 17438390 
2605.559 17520934 17606878 17695324 17785548 17877344 17970988 18066798 
2608.934 18165458 18267392 18372666 18480594 18589862 18698502 18804228 
2612.309 18905306 19000696 19090778 19176304 19259216 19340480 19420652 
2615.685 19499000 19574418 19645690 19712186 19774670 19834320 19892764 
2619.060 19951180 20009882 20068108 20124812 20178782 20229462 20277474 
2622.435 20323860 20369866 20416610 20464364 20512750 20561246 20609294 
2625.810 20656548 20703738 20751006 20799006 20848020 20897768 20947662 
2629.186 20997076 21045624 21093100 21139746 21186190 21233646 21282780 
2632.561 21334772 21389622 21447440 21507250 21567590 21627104 21684570 
2635.936 21739118 21790922 21840988 21890258 21940162 21991780 22045216 
2639.311 22100646 22157652 22216060 22275626 22336702 22399148 22462926 
2642.687 22527904 22593410 22659244 22724668 22789928 22854952 22920196 
2646.062 22985832 23052214 23119970 23189238 23260858 23335184 23412738 
2649.437 23493560 23577090 23662280 23747944 23832958 23916694 23998870 
2652.812 24079974 24160818 24242302 24325242 24410508 24498634 24589826 
2656.188 24684370 24781704 24881624 24983318 25085988 25189136 25292554 
2659.563 25396210 25499994 25603734 25707146 25808824 25908134 26004126 
2662.938 26096764 26186672 26274874 26362780 26450984 26539982 26629384 
2666.313 26718452 26806588 26893614 26980092 27066624 27154088 27243440 
2669.688 27334754 27428060 27523012 27619292 27716794 27815128 27914298 
2673.064 28014056 28114262 28214632 28315166 28415830 28516802 28617830 
2676.439 28718600 28818296 28916774 29013930 29110256 29207066 29305810 
2679.814 29408016 29514466 29625056 29739330 29856652 29976702 30099912 
2683.189 30227772 30361996 30504084 30655070 30815176 30983566 31159316 
2686.565 31341332 31528950 31721604 31918694 32119476 32323278 32529284 
2689.940 32736920 32946338 33158146 33373386 33592988 33817612 34047584 
2693.315 34282732 34522636 34767308 35016708 35270964 35530184 35794128 
2696.690 36062376 36334356 36609568 36887876 37169576 37455288 37745056 
2700.066 38039172 38337148 38638152 38941216 39245464 39550184 39854936 
2703.441 40158884 40461300 40761012 41056564 41346448 41629232 41903736 
2706.816 42169140 42424108 42668336 42900920 43121444 43329964 43526352 
2710.191 43711136 43884860 44047320 44198608 44338580 44467036 44583888 
2713.567 44689496 44784148 44868384 44942128 45005044 45056168 45094212 
2716.942 45118252 45127332 45121416 45101088 45067600 45022944 44969284 
2720.317 44908984 44844868 44779772 44716452 44657728 44606356 44564720 
2723.692 44534872 44518684 44517032 44530872 44560132 44604672 44663716 
2727.068 44736252 44821836 44919752 45029924 45152260 45286356 45431796 
2730.443 45587360 45751672 45922936 46099456 46279816 46463008 46648308 
2733.818 46834576 47020996 47205948 47387796 47565324 47737264 47902984 
2737.193 48062660 48216540 48365184 48508988 48648836 48784944 48918024 
2740.569 49048876 49178284 49307288 49437368 49569456 49705484 49846684 
2743.944 49994436 50149900 50313748 50485892 50665280 50850412 51039720 
2747.319 51230936 51422200 51611720 51798040 51979508 52154324 52320916 
2750.694 52477176 52621636 52753124 52871144 52975496 53066464 53144720 
2754.070 53210484 53263896 53305176 53333684 53348932 53350132 53336380 
2757.445 53306672 53260336 53196704 53115252 53015624 52897492 52760460 
2760.820 52604472 52429620 52236304 52025860 51800164 51561648 51313116 
2764.195 51057456 50797448 50535652 50274876 50017224 49765412 49521808 
2767.571 49288692 49068020 48861436 48670108 48494908 48336408 48194956 
2770.946 48071096 47964884 47876492 47805392 47750652 47711044 47684784 
2774.321 47670108 47664780 47666372 47672696 47680756 47688188 47691592 
2777.696 47688744 47676984 47654172 47618896 47569612 47505844 47427524 
2781.072 47334992 47230104 47114680 46991648 46863956 46734536 46605996 
2784.447 46480340 46358848 46242364 46130924 46023932 45920244 45818132 
2787.822 45715192 45608560 45495884 45374960 45244880 45105680 44958628 
2791.197 44805748 44649540 44492584 44337148 44185184 44038408 43898312 
2794.573 43766216 43643904 43532652 43433808 43348636 43277580 43221064 
2797.948 43179232 43151420 43137036 43135648 43146404 43168872 43202616 
2801.323 43246832 43300788 43363756 43434868 43513132 43597928 43688676 
2804.698 43785056 43886692 43993084 44103280 44215704 44328268 44438516 
2808.073 44544236 44643516 44734928 44817724 44891308 44955208 45009012 
2811.449 45051868 45082708 45101088 45106416 45098844 45078660 45046976 
2814.824 45004784 44953780 44895796 44832892 44768208 44705028 44647008 
2818.199 44598608 44564356 44548384 44555176 44588364 44650348 44742676 
2821.574 44865300 45016840 45194284 45394308 45613088 45847144 46093564 
2824.950 46349592 46612232 46878720 47145408 47408232 47663708 47908420 
2828.325 48140424 48358888 48564008 48757324 48940236 49114464 49281824 
2831.700 49444384 49604928 49766196 49931908 50106088 50293064 50496944 
2835.075 50721768 50971416 51249468 51559896 51906612 52293968 52727460 
2838.451 53212920 53758200 54373080 55068444 55858140 56758048 57785240 
2841.826 58959096 60300300 61829836 63570356 65543704 67768272 70256208 
2845.201 73008032 76006664 79208864 82541704 85903464 89154328 92137160 
2848.576 94687568 96642744 97876032 98306664 97912808 96733280 94861944 
2851.952 92435696 89602944 86520368 83334088 80160776 77097880 74216360 
2855.327 71560176 69155296 67009532 65117212 63462132 62021084 60768960 
2858.702 59677400 58720788 57876388 57122812 56442452 55820836 55245188 
2862.077 54706412 54198076 53716656 53261308 52833008 52434328 52068176 
2865.453 51738204 51448720 51204432 51010540 50872240 50793312 50775660 
2868.828 50818008 50915640 51059884 51239328 51440888 51649744 51851724 
2872.203 52034108 52185860 52299724 52372384 52405060 52402928 52374368 
2875.578 52329776 52278980 52231444 52194528 52173528 52172184 52193332 
2878.954 52238660 52309516 52406404 52529264 52677032 52848616 53041980 
2882.329 53255840 53487836 53735888 53996956 54266664 54540036 54811692 
2885.704 55077096 55332984 55578592 55815524 56047608 56280272 56519280 
2889.079 56770468 57039944 57332268 57652596 58006336 58399252 58839340 
2892.455 59336616 59902696 60552504 61302220 62167992 63164576 64301288 
2895.830 65579192 66985792 68495176 70063672 71630160 73125016 74472368 
2899.205 75598256 76447080 76983776 77202872 77126968 76805832 76307576 
2902.580 75704856 75073744 74481304 73980560 73614952 73415192 73402048 
2905.956 73591128 73993016 74616352 75469088 76559616 77897624 79495104 
2909.331 81363696 83514680 85953224 88675984 91664072 94878232 98261336 
2912.706 101730040 105179728 108497328 111556520 114236640 116438104 
2915.599 118084488 119137448 119597552 119502864 118918800 117925568 
2918.492 116613040 115062072 113340928 111504352 109587656 107612176 
2921.385 105588552 103520320 101410072 99262472 97087400 94901560 92727664 
2924.760 90590056 88514632 86523920 84633768 82854608 81189904 79637688 
2928.136 78192232 76844784 75585752 74404528 73290240 72232528 71221152 
2931.511 70247176 69302384 68379896 67473872 66579780 65694272 64815372 
2934.886 63942692 63077368 62221788 61379192 60552736 59744688 58956972 
2938.261 58190988 57448400 56731916 56046060 55396216 54789288 54231448 
2941.637 53727568 53280412 52889856 52552824 52263212 52012708 51790832 
2945.012 51585004 51383264 51174348 50950064 50707732 50450236 50186828 
2948.387 49930756 49698052 49504464 49361892 49278004 49254580 49288692 
2951.762 49372436 49495588 49645896 49809668 49973024 50123084 50247160 
2955.138 50335256 50379864 50376292 50322864 50220340 50071844 49881656 
2958.513 49655328 49399756 49121440 48827804 48525768 48221096 47918668 
2961.888 47622296 47334292 47056668 46790844 46538240 46300344 46078568 
2965.263 45873992 45687400 45518772 45367864 45233920 45116380 45014340 
2968.639 44927648 44856368 44801412 44764272 44747008 44752116 44781648 
2972.014 44836752 44917436 45021652 45145568 45282608 45424804 45562520 
2975.389 45684784 45779876 45837244 45846888 45801780 45698812 45539080 
2978.764 45328140 45075464 44793880 44496728 44197732 43909712 43642220 
2982.140 43402572 43194604 43018268 42870420 42744668 42632768 42524956 
2985.515 42411724 42285632 42141208 41976320 41791984 41591056 41377940 
2988.890 41156584 40929880 40698780 40462028 40216712 39959004 39685760 
2992.265 39395528 39089724 38772432 38450732 38132204 37824396 37532624 
2995.641 37258920 37002164 36758256 36522156 36288172 36052440 35812732 
2999.016 35568912 35322104 35074752 34829444 34588404 34353840 34127184 
3002.391 33909388 33700684 33500888 33309556 33125852 32949268 32779262 
3005.766 32616034 32459612 32310036 32167106 32030292 31899116 31773042 
3009.142 31651996 31536326 31426244 31322174 31223504 31129306 31038154 
3012.517 30948302 30858682 30769044 30679640 30591638 30506464 30425358 
3015.892 30349348 30279356 30215624 30158474 30107866 30062980 30022714 
3019.267 29985650 29950148 29914932 29879580 29844654 29810832 29779180 
3022.643 29750542 29724888 29701756 29680718 29661808 29646270 29636336 
3026.018 29634920 29644816 29668302 29705516 29755050 29813566 29876314 
3029.393 29937760 29992146 30034468 30060636 30068236 30056518 30026834 
3032.768 29981850 29925262 29861086 29792948 29723684 29655208 29588948 
3036.144 29525530 29465846 29410354 29359480 29313536 29272206 29235028 
3039.519 29201040 29169926 29140942 29113976 29089210 29066962 29047726 
3042.894 29031784 29019598 29011202 29006704 29005570 29007164 29010670 
3046.269 29015348 29020874 29027746 29036850 29049674 29067068 29089316 
3049.645 29115712 29144662 29174286 29203026 29230490 29257108 29283762 
3053.020 29311374 29340442 29370294 29399648 29427196 29452054 29474392 
3056.395 29495244 29516098 29538652 29564082 29592706 29624558 29659396 
3059.770 29697462 29738976 29784574 29834788 29889660 29949368 30013484 
3063.146 30081586 30153714 30229512 30308736 30390746 30474404 30558256 
3066.521 30641202 30722454 30801696 30879102 30955064 31029258 31101080 
3069.896 31169246 31232300 31289342 31339944 31384822 31425104 31462722 
3073.271 31498774 31534902 31571992 31610798 31651958 31695940 31743064 
3076.646 31792934 31844952 31897690 31949862 32000508 32049268 32096214 
3080.022 32142312 32188446 32235372 32283514 32333058 32383356 32434016 
3083.397 32484322 32533888 32582528 32630354 32678008 32726594 32777224 
3086.772 32831218 32889254 32951734 33017728 33086088 33155140 33223774 
3090.147 33291310 33358212 33425234 33493732 33564600 33638492 33715440 
3093.523 33795228 33877504 33962160 34049160 34138760 34230888 34325548 
3096.898 34422488 34521312 34621452 34722080 34822228 34920932 35017140 
3100.273 35110208 35200208 35287960 35375048 35463664 35555428 35651344 
3103.648 35751528 35855156 35960932 36067776 36174896 36282084 36389224 
3107.024 36496280 36602572 36707412 36809860 36909376 37006352 37101436 
3110.399 37196288 37291700 37388764 37487436 37587864 37690052 37794100 
3113.774 37900388 38009556 38121244 38234664 38348188 38460108 38569276 
3117.149 38675280 38778732 38881020 38983692 39087332 39192008 39296896 
3120.525 39400680 39502572 39602344 39700576 39798320 39896780 39996784 
3123.900 40098264 40201044 40304796 40409224 40514004 40619356 40725528 
3127.275 40832680 40940876 41049936 41159608 41269488 41378848 41487436 
3130.650 41594484 41700132 41804824 41909612 42016216 42126132 42240600 
3134.026 42359924 42483264 42609084 42735452 42861204 42985564 43108164 
3137.401 43229556 43349884 43468928 43586464 43702196 43816244 43929472 
3140.776 44043284 44159064 44277376 44397956 44519676 44641060 44760896 
3144.151 44878448 44994384 45110312 45227448 45347044 45469724 45595236 
3147.527 45723216 45853588 45986028 46120792 46257848 46396528 46535584 
3150.902 46673876 46809848 46942876 47072732 47200072 47325420 47449440 
3154.277 47572348 47693812 47813864 47932360 48050040 48167596 48285896 
3157.652 48405260 48525920 48647132 48768300 48888616 49008184 49127044 
3161.028 49245568 49364712 49484452 49605444 49727776 49851404 49976664 
3164.403 50103596 50231944 50361448 50491432 50620976 50749476 50876376 
3167.778 51001748 51125328 51247456 51367936 51486624 51603436 51718416 
3171.153 51831376 51943204 52053948 52164228 52273824 52382516 52489588 
3174.529 52594556 52696596 52795628 52891540 52984624 53075148 53164232 
3177.904 53252544 53341176 53430872 53521864 53613552 53705256 53795480 
3181.279 53883432 53968552 54051440 54133216 54215308 54299028 54384980 
3184.654 54472940 54562460 54652524 54742684 54832936 54923128 55013268 
3188.030 55102976 55191832 55279092 55364596 55448352 55531068 55613688 
3191.405 55696628 55779772 55862360 55942780 56020088 56093716 56163812 
3194.780 56231804 56299128 56366880 56435736 56505432 56575784 56646292 
3198.155 56716816 56787728 56859180 56931404 57003824 57075156 57144356 
3201.531 57209740 57270716 57327276 57380172 57430584 57480168 57530664 
3204.906 57583400 57639468 57699332 57762528 57828052 57893920 57957944 
3208.281 58018268 58073976 58124920 58172496 58218380 58263844 58309960 
3211.656 58356652 58403156 58448868 58493640 58537960 58583308 58631396 
3215.031 58683124 58738732 58797264 58857056 58916444 58974012 59029160 
3218.407 59082080 59133524 59184740 59236464 59289368 59343684 59399448 
3221.782 59456436 59514312 59572528 59630988 59689224 59747048 59804768 
3225.157 59862152 59919432 59976524 60033364 60089788 60146072 60202588 
3228.532 60259832 60318688 60379072 60440912 60503488 60565764 60627168 
3231.908 60687676 60747960 60809012 60872172 60938200 61006872 61077800 
3235.283 61149696 61221564 61292948 61363696 61434036 61504120 61573716 
3238.658 61642028 61708592 61773144 61836024 61897956 61960360 62023952 
3242.033 62089084 62155528 62222476 62289360 62356256 62423616 62492676 
3245.409 62564692 62639816 62718056 62798688 62880516 62963092 63046216 
3248.784 63130088 63214972 63301020 63386940 63471524 63552944 63629628 
3252.159 63701296 63767864 63830764 63891256 63950412 64009076 64067328 
3255.534 64124816 64181776 64237476 64292296 64346248 64399280 64451700 
3258.910 64503208 64553752 64603312 64652072 64699984 64747520 64794904 
3262.285 64842412 64889656 64936676 64982468 65026372 65067248 65104164 
3265.660 65136416 65163672 65186352 65205680 65223084 65240368 65259084 
3269.035 65280376 65304368 65330440 65357672 65384284 65408708 65429620 
3272.411 65446688 65460176 65471188 65481476 65492496 65505364 65520236 
3275.786 65535992 65551908 65566436 65579460 65591908 65605664 65623008 
3279.161 65645748 65674572 65708412 65745504 65783472 65820524 65856116 
3282.536 65891160 65927380 65966868 66010684 66059136 66111296 66166164 
3285.912 66222348 66279316 66337636 66398136 66461728 66529692 66602380 
3289.287 66679828 66761740 66847680 66937120 67029828 67125488 67224080 
3292.662 67325896 67431688 67542384 67659536 67784000 67916208 68056288 
3296.037 68203192 68356080 68513880 68675880 68841480 69010592 69182536 
3299.413 69356952 69533432 69712080 69893600 70079904 70273344 70475840 
3302.788 70689384 70914104 71149128 71392920 71643088 71898176 72157096 
3306.163 72419184 72684520 72953160 73225256 73500968 73780680 74064888 
3309.538 74353920 74648056 74947016 75250072 75556256 75865104 76176664 
3312.914 76492008 76812552 77139704 77474120 77815328 78161616 78510832 
3316.289 78861152 79211488 79561712 79912488 80264352 80617856 80972936 
3319.664 81329128 81685616 82042488 82399440 82756096 83111512 83464976 
3323.039 83814624 84160008 84501040 84838872 85175320 85511952 85849040 
3326.415 86185864 86519640 86847272 87165512 87472968 87768752 88053664 
3329.790 88328408 88593128 88847672 89090784 89321296 89538072 89739848 
3333.165 89925904 90094704 90244776 90374056 90481528 90567112 90631568 
3336.540 90677288 90706448 90720736 90720408 90704768 90671576 90618624 
3339.916 90544176 90446960 90326160 90181192 90011712 89817184 89597200 
3343.291 89352016 89082368 88788856 88472216 88132440 87769040 87381424 
3346.666 86969704 86535128 86080288 85608584 85123280 84627320 84121920 
3350.041 83607544 83084512 82553128 82014624 81470680 80923104 80373072 
3353.417 79821176 79267408 78711352 78153680 77595880 77040192 76489792 
3356.792 75947072 75413864 74891344 74380192 73881056 73394672 72922232 
3360.167 72464048 72020184 71589680 71170952 70762376 70363152 69973312 
3363.542 69594064 69226872 68873160 68533584 68207968 67895560 67595656 
3366.917 67307672 67031184 66765948 66511036 66264884 66025460 65790220 
3370.293 65557188 65325284 65093724 64862304 64630344 64396820 64159764 
3373.668 63917472 63668564 63411816 63147412 62875464 62596032 62309056 
3377.043 62013900 61709204 61394608 61069256 60732676 60384516 60023548 
3380.418 59648436 59257388 58849204 58423588 57981876 57526920 57061704 
3383.794 56589784 56114188 55636440 55157748 54678868 54199952 53721752 
3387.169 53245016 52770372 52298380 51829324 51363720 50901968 50444652 
3390.544 49992280 49545612 49104636 48669516 48239608 47814716 47394852 
3393.919 46979792 46570108 46165672 45766072 45370544 44978104 44588000 
3397.295 44200228 43814956 43432856 43054344 42679044 42305972 41933516 
3400.670 41560352 41185724 40810368 40435588 40063348 39695492 39332916 
3404.045 38975428 38622580 38273060 37926420 37582516 37242172 36905948 
3407.420 36574564 36248440 35927240 35610632 35298420 34989916 34684932 
3410.796 34383176 34084032 33786704 33490724 33196054 32903444 32614246 
3414.171 32330200 32053870 31786342 31528808 31280796 31041500 30809060 
3417.546 30581258 30356062 30131552 29906308 29679938 29453258 29227550 
3420.921 29005216 28788166 28577700 28374304 28177014 27984160 27794180 
3424.297 27605768 27418250 27231588 27046454 26862664 26680152 26498280 
3427.672 26316378 26134730 25954318 25776336 25602784 25434678 25271834 
3431.047 25113404 24957628 24803314 24649264 24496494 24345742 24198546 
3434.422 24055740 23917078 23781470 23647482 23513566 23379098 23243868 
3437.798 23108506 22973082 22837978 22702534 22566048 22428280 22289160 
3441.173 22150084 22012240 21877678 21747548 21622298 21501262 21382662 
3444.548 21264440 21144304 21020340 20891544 20757956 20620968 20482982 
3447.923 20347262 20216618 20093126 19977858 19869732 19766730 19665970 
3451.299 19564748 19461400 19355412 19247196 19138108 19029462 18922022 
3454.674 18815646 18709884 18603420 18495566 18386078 18274924 18162730 
3458.049 18050286 17938114 17826524 17715618 17604946 17493994 17382240 
3461.424 17269690 17156442 17043296 16931796 16823392 16719388 16620364 
3464.800 16525736 16434088 16343594 16251950 16158329 16062323 15964929 
3468.175 15867729 15772371 15679678 15589959 15502835 15416757 15330800 
3471.550 15244276 15156775 15068365 14979664 14890845 14802317 14714562 
3474.925 14628093 14543045 14460720 14380946 14304439 14231472 14161804 
3478.301 14095227 14031124 13968742 13907293 13845270 13781854 13716670 
3481.676 13649717 13581885 13515021 13450731 13390653 13334922 13283744 
3485.051 13235405 13188575 13142263 13095989 13050130 13005949 12964025 
3488.426 12925246 12889508 12856572 12825515 12795894 12767366 12739796 
3491.802 12713388 12688653 12665352 12644167 12625406 12609953 12598015 
3495.177 12590340 12586895 12587544 12592421 12601085 12614729 12634309 
3498.552 12661054 12695749 12737852 12785656 12836300 12886710 12934770 
3501.927 12979592 13022610 13066758 13115932 13173923 13243091 13324399 
3505.302 13417205 13519738 13629509 13744439 13862511 13982566 14104434 
3508.678 14228801 14356663 14489702 14628950 14774412 14925102 15079343 
3512.053 15234736 15389980 15544351 15698366 15853362 16010650 16170161 
3515.428 16330933 16490251 16645119 16792980 16932794 17064214 17187950 
3518.803 17304652 17413452 17512346 17598356 17668130 17718758 17748648 
3522.179 17757656 17746922 17717860 17672132 17610812 17534596 17442734 
3525.554 17334410 17208048 17062766 16897554 16713327 16511796 16296772 
3528.929 16072260 15842229 15609227 15374944 15139312 14901612 14661712 
3532.304 14419889 14177209 13934971 13693895 13454012 13214569 12974540 
3535.680 12733723 12493107 12255114 12022632 11798208 11583495 11377971 
3539.055 11180532 10989063 10802196 10618941 10439870 10265146 10095174 
3542.430 9929573 9767288 9606826 9447575 9289227 9132258 8977747 8826368 
3546.288 8678522 8534444 8393860 8257239 8125117 7998334 7877256 7761845 
3550.145 7650781 7542308 7435076 7328072 7221566 7117376 7017051 6922034 
3554.002 6832760 6748148 6665706 6583953 6500970 6415751 6328732 6240892 
3557.860 6153336 6067009 5982950 5901728 5824383 5751685 5683935 5621867 
3561.717 5564910 5512088 5462325 5413810 5364360 5312300 5254947 5189655 
3565.575 5113979 5026785 4927846 4820554 4710306 4603034 4504861 4419597 
3569.432 4347870 4287633 4235501 4186988 4138682 4087505 4032855 3974668 
3573.290 3914382 3853236 3792900 3734511 3678736 3625642 3574926 3525885 
3577.147 3477519 3429291 3380668 3331784 3283306 3235967 3190537 3147181 
3581.004 3105898 3065954 3027314 2989646 2953382 2918755 2885966 2854214 
3584.862 2821863 2786246 2744631 2694851 2636976 2572343 2505520 2441572 
3588.719 2385264 2339623 2305811 2282428 2267139 2256281 2245857 2232235 
3592.577 2212652 2184978 2148881 2106261 2059617 2012878 1970039 1933893 
3596.434 1906236 1887833 1877916 1875920 1880113 1889797 1903275 1919782 
3600.292 1937953 1956525 1975364 1993838 2012312 2031187 2050462 2069205 
3604.149 2085652 2096472 2097604 2085418 2056388 2008784 1942746 1861245 
3608.006 1769312 1673540 1580982 1496656 1423681 1361455 1307380 1257665 
3611.864 1208786 1158252 1105996 1054112 1005455 963545 930339 905967 888237 
3616.203 873894 858589 838072 809124 770220 722193 668164 612749 561852 
3620.543 519487 488736 470028 462233 463129 470294 481837 496996 515308 
3624.883 536572 559430 580996 595993 597353 577313 531032 459779 372122 
3629.222 282891 208562 159138 136533 135572 147305 162917 175281 180087 
3633.562 176839 167458 155095 142798 132523 124237 117177 110085 102296 
3637.901 93547 84135 74657 65477 56894 48510 40491 33433 28396 26640 29755 
3643.205 38867 54310 75817 101965 130501 158343 181977 196794 199512 186849 
3648.027 157680 113432 57623 -4340 -65600 -119829 -161697 -188657 -199520 
3652.367 -196539 -182497 -162425 -141558 -125361 -118636 -124499 -142651 
3656.224 -169513 -198593 -222934 -236943 -238797 -229657 -213397 -195082 
3660.082 -178953 -167659 -162227 -161399 -162425 -162723 -160140 -153780 
3663.939 -143082 -127812 -107473 -80773 -46219 -3247 47748 104815 166000 
3668.279 230873 303216 392517 513483 683230 914301 1212674 1576758 2000029 
3672.618 2473328 2984375 3515964 4035296 4491168 4819917 4957874 4870310 
3676.476 4565831 4088943 3498495 2851412 2198198 1577357 1021729 556843 
3680.333 194739 -65269 -237009 -341146 -399611 -430727 -445225 -448469 
3684.190 -442643 -429900 -414242 -401564 -398353 -410601 -440724 -488154 
3688.048 -547625 -611621 -673490 -727808 -772164 -806429 -830802 -845949 
3691.905 -852529 -851736 -845453 -836127 -826470 -818037 -811290 -805668 
3695.763 -799814 -792571 -783277 -772065 -759761 -748250 -738625 -732638 
3699.620 -731744 -737235 -749540 -768327 -791182 -814631 -834639 -847205 
3703.478 -849884 -842245 -825511 -802096 -774744 -745339 -715569 -686326 
3707.335 -658304 -633127 -612944 -600602 -599113 -610231 -634252 -669454 
3711.192 -711897 -755792 -795515 -826305 -845552 -852529 -849222 -838607 
3715.050 -824056 -809207 -796540 -787246 -781094 -776464 -771073 -762903 
3718.907 -751657 -737996 -724368 -713154 -706472 -704553 -706075 -708589 
3722.765 -709945 -708854 -705546 -702171 -701477 -705380 -714543 -727610 
3726.622 -741403 -751326 -754237 -747985 -732538 -710441 -685234 -660786 
3730.479 -640935 -627436 -620620 -617874 -616782 -614731 -612249 -612249 
3734.337 -619562 -638553 -670744 -712625 -756519 -792306 -811687 -811323 
3738.194 -792439 -759199 -717785 -674019 -632101 -594812 -565825 -548585 
3742.052 -548750 -573039 -626444 -707861 -805866 -899584 -964950 -987562 
3745.909 -967264 -916844 -853488 -793729 -751194 -733001 -740642 -768923 
3749.767 -809769 -853753 -893996 -927689 -953378 -969843 -975529 -968289 
3753.624 -947328 -915025 -875611 -835565 -800277 -774479 -760025 -756387 
3757.481 -760885 -770973 -784170 -799186 -815061 -830240 -842344 -848297 
3761.339 -846015 -835300 -818566 -800443 -786056 -779341 -781888 -792273 
3765.196 -805999 -817739 -823328 -820947 -812018 -799748 -787808 -779242 
3769.054 -775736 -777125 -782087 -788801 -795382 -800376 -803419 -804312 
3772.911 -803055 -800343 -796408 -791744 -786519 -780797 -773983 -766641 
3776.769 -759364 -753609 -751227 -754138 -762506 -774843 -787478 -796044 
3780.626 -797168 -789462 -774281 -755725 -738790 -727775 -725757 -733001 
3784.483 -747423 -765384 -782748 -796606 -805337 -808810 -807421 -802394 
3788.341 -795151 -786386 -777423 -769584 -763432 -759364 -756916 -754965 
3792.198 -752219 -747291 -740080 -731083 -721655 -713353 -706770 -701774 
3796.056 -696746 -689402 -678088 -662241 -643582 -625782 -613937 -613374 
3799.913 -627833 -658304 -700881 -746828 -784931 -805073 -803154 -780863 
3803.771 -745405 -705546 -671736 -651721 -650199 -667072 -696812 -730554 
3807.628 -758008 -773057 -773818 -762969 -745075 -724500 -704289 -685168 
3811.485 -666476 -647122 -627039 -607385 -591602 -583595 -587069 -602786 
3815.343 -627833 -654367 -673192 -675772 -659065 -625947 -583959 -544084 
3819.200 -517245 -513075 -536638 -585514 -649405 -712195 -759463 -782087 
3823.058 -779705 -758405 -727808 -697309 -673688 -660587 -657279 -660356 
3826.915 -664855 -666311 -662936 -655393 -645832 -637296 -632101 -631043 
3830.772 -633226 -636435 -637825 -634616 -625021 -608411 -585812 -559968 
3834.630 -534222 -512744 -500036 -498844 -510130 -531939 -559869 -587830 
3838.487 -610231 -623764 -628164 -625782 -619826 -614201 -610959 -611257 
3842.345 -614731 -620554 -626973 -632598 -636072 -636799 -633987 -627701 
3846.202 -618139 -605863 -591040 -573734 -553052 -528067 -497917 -463099 
3850.060 -426093 -392924 -372233 -374418 -409178 -480542 -583065 -698764 
3853.917 -803882 -878554 -913802 -913240 -887184 -848164 -805403 -765351 
3857.774 -730653 -701609 -677129 -655922 -637163 -620819 -607220 -596996 
3861.632 -590312 -587334 -587367 -590014 -594547 -599411 -602257 -600569 
3865.489 -591933 -575951 -553912 -530350 -510891 -502452 -509799 -534884 
3869.347 -574495 -620190 -660984 -688377 -698731 -694265 -681297 -667402 
3873.204 -658404 -657312 -662936 -671273 -677327 -676699 -667436 -650430 
3877.062 -628925 -606657 -587168 -573502 -567480 -568903 -576348 -586705 
3880.919 -595705 -599709 -596466 -585514 -569267 -552589 -541403 -541569 
3884.776 -556692 -585911 -622771 -657610 -679908 -683315 -667072 -635410 
3888.634 -596003 -557552 -528067 -512711 -512744 -525122 -544249 -563740 
3892.491 -578896 -587268 -588856 -584521 -575223 -561556 -544051 -522805 
3896.349 -499208 -475014 -452143 -433011 -418844 -410005 -405702 -404411 
3900.206 -405305 -407887 -412687 -421492 -435659 -456181 -482660 -513207 
3904.063 -545011 -574396 -597955 -613738 -621017 -620256 -613275 -601694 
3907.921 -588029 -573602 -559538 -546566 -534586 -523599 -513638 -504470 
3911.778 -496163 -488452 -481170 -473823 -466376 -459127 -452507 -447807 
3915.636 -446053 -447708 -452507 -459127 -465449 -469884 -471374 -469851 
3919.493 -466111 -461245 -455619 -449396 -442412 -434103 -425166 -417023 
3923.351 -411793 -411396 -416460 -425828 -436619 -444960 -447476 -442743 
3927.208 -431356 -415798 -399611 -386204 -377398 -374054 -375345 -380510 
3931.065 -388157 -397592 -408085 -419108 -429271 -437447 -442180 -443140 
3934.923 -440724 -436421 -431820 -428576 -426854 -426093 -424835 -421889 
3938.780 -416295 -408714 -400670 -394281 -391203 -392758 -398816 -408483 
3942.638 -420135 -432283 -443603 -452871 -459425 -462503 -461907 -457638 
3946.495 -449859 -439565 -428046 -416527 -406165 -397691 -391335 -387098 
3950.353 -384582 -383555 -383456 -383655 -383158 -381073 -376636 -369684 
3954.210 -361077 -351840 -343795 -338133 -335286 -335087 -335981 -336577 
3958.067 -335551 -332472 -327803 -322539 -317970 -314858 -313533 -313268 
3961.925 -313169 -312176 -309626 -305355 -299825 -293700 -287640 -282309 
3965.782 -278137 -274991 -272706 -270852 -269296 -267640 -265885 -263865 
3969.640 -261514 -258633 -255123 -250553 -245056 -238499 -231147 -223398 
3973.497 -215483 -207601 -199686 -191306 -182596 -173388 -164181 -155635 
3977.354 -148547 -143347 -140233 -138743 -138378 -138577 -139074 -140134 
3981.212 -142386 -146162 -151727 -158285 -165274 -171368 -176204 -179516 
3985.069 -182033 -185047 -189087 -194088 -199586 -204123 -206409 -205084 
3988.927 -200480 -193492 -185610 -178622 -174018 -172362 -173985 -177992 
3992.784 -183325 -188988 -193393 -195612 -195049 -191306 -185113 -177230 
3996.642 -169215 -162227 -157291 -154774 -154509 -155702 -158285 -161697 
4000.499 -166267 
##END=
