
##TITLE=Z326a_3_b
##JCAMP-DX=5.01  $$ Nicolet v. 1
##DATATYPE=INFRARED SPECTRUM
##ORIGIN=UniL
##OWNER=Nicolet
##LONGDATE=2011/09/15
##TIME=16:20:24
##SPECTROMETER/DATA SYSTEM=Nicolet iS5
##DATA PROCESSING=
Ratio against background
%Transmittance->Absorbance
Truncated
ElementMultiply or ElementDivide
##COMMENTS=
Number of sample scans: 32
Collection length: 51.15 sec
Sample gain: 2.0
Background collected on: Jeu Sep 15 16:15:34 2011 (GMT+02:00);
Number of background scans: 32
Background gain: 2.0
Sample spacing:  1.000
Number of scan points: 12415
Resolution points: 8192
Number of FFT points: 65536
Apodization: N-B fort;
Phase correction: Mertz;
Laser frequency: 15798.0 cm-1
Number of rejected sample scans: 0
Number of rejected background scans: 0
Bench serial number: ASB1000141;
##RESOLUTION=4.000
##XUNITS=1/CM
##YUNITS=ABSORBANCE
##FIRSTX=649.893372
##LASTX=4000.122314
##FIRSTY=0.114134
##MAXX=4000.122314
##MINX=649.893372
##MAXY=0.298892
##MINY=-0.001733
##XFACTOR=1.000000
##YFACTOR=1.000000E-009
##NPOINTS=6950
##DELTAX=0.482117
##ZPD=6100
##XYDATA=(X++(Y..Y))
649.893 114134112 113468872 112897376 112450872 112128280 111903528 
652.786 111744112 111632744 111578416 111616120 111788304 112126176 
655.679 112636056 113295672 114067576 114916824 115827608 116802512 
658.571 117855112 118993752 120214560 121502544 122845872 124248416 
661.464 125736576 127347096 129110800 131027160 133057640 135129056 
664.357 137160992 139087344 140854400 142425792 143762640 144811872 
667.250 145517072 145850112 145845248 145586960 145165344 144624096 
670.142 143952608 143106560 142040480 140737328 139224432 137573728 
673.035 135875184 134218304 132657664 131206096 129848968 128565448 
675.928 127346024 126198248 125137288 124171416 123289984 122464016 
678.820 121655968 120834600 119989128 119129824 118279704 117459288 
681.713 116675104 115917248 115165776 114401840 113618416 112823896 
684.606 112036704 111275472 110549112 109855672 109184984 108527360 
687.498 107880000 107248096 106641184 106065856 105519264 104990144 
690.391 104461168 103919704 103361384 102793328 102228440 101680832 
693.284 101159968 100668976 100209664 99787528 99414992 99113416 98906320 
696.659 98811672 98837544 98978728 99219912 99542360 99930680 100376752 
700.034 100879496 101440536 102059552 102730864 103443616 104184248 
702.926 104939560 105700920 106461536 107215096 107952848 108662496 
705.819 109330248 109947088 110511424 111031776 111522856 112001160 
708.712 112479256 112963808 113459024 113972408 114520264 115130528 
711.604 115836256 116664872 117627944 118711152 119872304 121044928 
714.497 122157248 123141824 123949200 124557992 124973024 125224184 
717.390 125358240 125439344 125543120 125745400 126122400 126733008 
720.282 127604424 128721488 130017328 131379320 132648496 133654104 
723.175 134241328 134290432 133755176 132670120 131154776 129380928 
726.068 127546560 125838576 124384248 123248312 122430016 121883640 
728.961 121541064 121337112 121227760 121187688 121207264 121281864 
731.853 121403096 121557152 121729904 121910352 122096064 122291416 
734.746 122502720 122731528 122972208 123212352 123439952 123648824 
737.639 123843160 124034064 124235760 124456968 124697272 124947656 
740.531 125195760 125433208 125658736 125878376 126099928 126327856 
743.424 126559408 126786232 126998768 127193184 127373424 127550464 
746.317 127735184 127932192 128136384 128334480 128511104 128655944 
749.209 128768640 128857656 128936040 129013312 129092200 129168080 
752.102 129234504 129288464 129334688 129384416 129450920 129542616 
754.995 129659760 129793808 129932848 130067752 130195480 130319912 
757.888 130447936 130585240 130732192 130885064 131038096 131188928 
760.780 131339504 131495056 131659880 131833416 132009264 132177592 
763.673 132331968 132475304 132623136 132805240 133059488 133422720 
766.566 133925944 134584080 135389312 136303840 137258560 138160480 
769.458 138895648 139363520 139501520 139311088 138869152 138318064 
772.351 137835376 137568224 137594608 137885264 138312224 138670560 
775.244 138737520 138349040 137425744 135996208 134165184 132077800 
778.136 129863456 127599584 125309112 122967232 120529232 117953392 
781.029 115221808 112346928 109368392 106341488 103327712 100389776 97578968 
784.404 94937224 92494728 90268072 88264296 86482320 84915664 83555808 
787.779 82394320 81424200 80640080 80037808 79613376 79363536 79286056 
791.154 79380880 79652224 80108728 80762488 81627400 82713240 84021352 
794.528 85537768 87231128 89049864 90920816 92761544 94482616 95999528 
797.903 97254992 98226728 98944272 99485816 99978272 100573608 101408728 
801.278 102585856 104128232 105961976 107899152 109663400 110942024 
804.171 111417840 110867632 109209432 106528568 103059160 99131736 95108280 
807.546 91271128 87792080 84706568 81935792 79332032 76738728 74051368 
810.920 71234192 68327272 65416448 62609428 59999620 57645068 55571252 
814.295 53773092 52227708 50904240 49772844 48807044 47982500 47278388 
817.670 46676868 46162760 45726088 45360544 45062344 44828964 44656444 
821.045 44540636 44477352 44465312 44506496 44606468 44772980 45013388 
824.420 45332404 45731168 46206028 46749292 47347664 47982756 48631600 
827.794 49265272 49854860 50376256 50815848 51177624 51486660 51790052 
831.169 52148984 52635476 53324280 54275036 55526556 57078184 58880808 
834.544 60823040 62731460 64400696 65597496 66116272 65827928 64697908 
837.919 62807916 60328776 57501652 54572604 51752796 49205892 47019592 
841.294 45219764 43785896 42671332 41820400 41178660 40702896 40357220 
844.669 40113204 39950064 39852104 39808812 39814480 39864852 39955480 
848.043 40080172 40229724 40394712 40568164 40746604 40931772 41128352 
851.418 41342512 41578620 41839080 42124668 42435912 42775016 43145672 
854.793 43552728 44000856 44493796 45034776 45627956 46280808 47004420 
858.168 47814196 48728524 49765336 50944404 52286044 53811340 55544324 
861.543 57506716 59709032 62139432 64752212 67461336 70133336 72611784 
864.917 74732320 76345072 77353496 77725408 77506008 76805864 75793736 
868.292 74671872 73631760 72852240 72472896 72580264 73219568 74391824 
871.667 76062920 78162760 80590256 83218528 85880088 88386520 90541600 
875.042 92145848 93042360 93134728 92402120 90904560 88770560 86180848 
878.417 83323736 80384432 77521096 74840000 72403680 70228712 68297912 
881.792 66574028 65016292 63594028 62291620 61111592 60067452 59178896 
885.166 58460964 57919248 57548668 57336612 57267728 57328828 57512620 
888.541 57818548 58249596 58809476 59499452 60318152 61262464 62330588 
891.916 63524604 64851492 66323476 67956424 69765456 71765024 73962296 
895.291 76353008 78911256 81581096 84272560 86847112 89135576 90956848 
898.666 92131104 92528016 92084608 90819312 88827552 86267456 83341112 
902.040 80248288 77180784 74300840 71719768 69511424 67710112 66318220 
905.415 65318808 64682796 64379604 64378836 64656684 65196672 65988504 
908.790 67027776 68314240 69849736 71636480 73674896 75958792 78470968 
912.165 81177832 84022040 86929552 89809392 92564264 95114680 97405280 
915.540 99420280 101185824 102768936 104265664 105777384 107401712 109202880 
918.914 111194648 113325440 115475296 117471536 119095168 120136736 
921.807 120436704 119920856 118637384 116760248 114587640 112474656 
924.700 110807328 109949344 110158400 111571648 114162120 117747464 
927.593 121984368 126410872 130542624 133884728 136035952 136749312 
930.485 135925792 133621512 130000784 125307920 119813840 113787856 
933.378 107504408 101208784 95119624 89433592 84297416 79816520 76055184 
936.753 73034376 70746696 69165048 68253480 67968432 68255032 69044040 
940.128 70233736 71686736 73244984 74723376 75945536 76773240 77113352 
943.502 76941328 76296640 75275840 74006416 72623728 71258936 70010800 
946.877 68945272 68096208 67468032 67046256 66804900 66715524 66748640 
950.252 66876552 67075028 67320288 67590808 67869448 68143800 68409136 
953.627 68667696 68927528 69199288 69492336 69813552 70165816 70548720 
957.002 70960600 71399752 71864904 72354784 72868152 73402872 73956448 
960.377 74527440 75115648 75722528 76350840 77002488 77677656 78374320 
963.751 79089192 79819424 80564008 81324816 82106008 82911672 83744696 
967.126 84605464 85492784 86404608 87340376 88301208 89290160 90310160 
970.501 91363328 92450120 93570672 94725400 95917456 97151504 98433160 
973.876 99767136 101155536 102597688 104091856 105637440 107237024 108896600 
977.251 110623736 112426328 114310656 116281656 118345528 120512576 
980.143 122799136 125228864 127827760 130620448 133626256 136854000 
983.036 140301152 143950672 147771008 151707456 155674912 159561552 
985.929 163216368 166461648 169123856 171038448 172086784 172216480 
988.821 171444960 169862112 167611168 164888624 161910192 158888480 
991.714 156031504 153505056 151429328 149880288 148884480 148432816 
994.607 148491632 149018704 149970432 151307296 152998608 155015328 
997.500 157328976 159912128 162734288 165764624 168972992 172320880 
1000.392 175757856 179218112 182608016 185818128 188734944 191247552 
1003.285 193274848 194774944 195751408 196252880 196368016 196222944 
1006.178 195956752 195719952 195660144 195895696 196517552 197578752 
1009.070 199094256 201050880 203417280 206158976 209240928 212632400 
1011.963 216306208 220229616 224364912 228672016 233106992 237629728 
1014.856 242200640 246767024 251253776 255548000 259484832 262873472 
1017.748 265510016 267211712 267866944 267454032 266062432 263874768 
1020.641 261166864 258274288 255529376 253264368 251754848 251184400 
1023.534 251654832 253168768 255650752 258958256 262914800 267336096 
1026.427 272025472 276799360 281480832 285885664 289844736 293203840 
1029.320 295837504 297671840 298682560 298892032 298350016 297123104 
1032.213 295281408 292889440 290012384 286712032 283039840 279033984 
1035.106 274709728 270061440 265070016 259720000 254016400 247996000 
1037.999 241727232 235301664 228827424 222408352 216140464 210111840 
1040.892 204389936 199023664 194033984 189406000 185085120 180978992 
1043.785 176979648 172974400 168874928 164640608 160283472 155869984 
1046.678 151501136 147305312 143411088 139927152 136944704 134520528 
1049.571 132679480 131419048 130712536 130516440 130774408 131429272 
1052.464 132424368 133704992 135222320 136923664 138745536 140613920 
1055.357 142433200 144091280 145476672 146477136 147000064 146986400 
1058.250 146411488 145294864 143697120 141725120 139519600 137239472 
1061.144 135063328 133156360 131660152 130691904 130325984 130600136 
1064.037 131515784 133041888 135116336 137644144 140510608 143572448 
1066.930 146667056 149637392 152329024 154612224 156396944 157625344 
1069.823 158274096 158345280 157859184 156847728 155349024 153409984 
1072.716 151080624 148414160 145472176 142321024 139038384 135720848 
1075.609 132473808 129414368 126666112 124337040 122520728 121285848 
1078.502 120666536 120663688 121239984 122324696 123803944 125526712 
1081.395 127322968 128996400 130360112 131267280 131622360 131412000 
1084.288 130703584 129643904 128426568 127264960 126379144 125950056 
1087.181 126115440 126960056 128504784 130709544 133471680 136645136 
1090.074 140037280 143428720 146612544 149391280 151608128 153161888 
1092.967 153997776 154109920 153528784 152316128 150551776 148323424 
1095.860 145727552 142856224 139794640 136626944 133427176 130261720 
1098.753 127189320 124249168 121459320 118810240 116267752 113776752 
1101.646 111273584 108706664 106045512 103294840 100493912 97716168 95056320 
1105.022 92610480 90475776 88731616 87433496 86617344 86296272 86465616 
1108.397 87105784 88186264 89667864 91500136 93626328 95979896 98479920 
1111.772 101038488 103552400 105905744 107986416 109684984 110910488 
1114.665 111606184 111748008 111348944 110450528 109119160 107434128 
1117.558 105475584 103326584 101059768 98732560 96391032 94063704 91766832 
1120.934 89509568 87298656 85143680 83061080 81072592 79204376 77484224 
1124.309 75935584 74577832 73425040 72486328 71769520 71282448 71033768 
1127.684 71032672 71286272 71795944 72554176 73542296 74730184 76072472 
1131.059 77512336 78984496 80411864 81720176 82843656 83733448 84371248 
1134.435 84772296 84987264 85088616 85164280 85301928 85568320 86004960 
1137.810 86617952 87379032 88225808 89071056 89819704 90368712 90626872 
1141.185 90526216 90019248 89086672 87732584 85980848 83868440 81443104 
1144.560 78763272 75891072 72893032 69839472 66793888 63816024 60957988 
1147.936 58258388 55746276 53439756 51346380 49466664 47795408 46324636 
1151.311 45044408 43943880 43013000 42241224 41619644 41141684 40802360 
1154.686 40599052 40530080 40594068 40789000 41112872 41563852 42141904 
1158.061 42849208 43689996 44669004 45790480 47056148 48464752 50010496 
1161.437 51682848 53466288 55336260 57258392 59190588 61078296 62861636 
1164.812 64481684 65879092 67004040 67818160 68293888 68418912 68195248 
1168.187 67640136 66782640 65661780 64324608 62817336 61186352 59475780 
1171.562 57722944 55962608 54226492 52541680 50933712 49425264 48033788 
1174.938 46773096 45651768 44673448 43838564 43145964 42594316 42183160 
1178.313 41912824 41784028 41797272 41952748 42251192 42694364 43285636 
1181.688 44029936 44933344 46000872 47236680 48641644 50213572 51944252 
1185.063 53816816 55804256 57862724 59932172 61942472 63809692 65451196 
1188.438 66794848 67780856 68373808 68564200 68369112 67828736 67001520 
1191.814 65961124 64782404 63539216 62301292 61124596 60055280 59128320 
1195.189 58365252 57778088 57368984 57131352 57049200 57097720 57244444 
1198.564 57446504 57653996 57814988 57872720 57775212 57479560 56953804 
1201.939 56184136 55177048 53960228 52577916 51086828 49551480 48031348 
1205.315 46579588 45238224 44033088 42977988 42075496 41320572 40703952 
1208.690 40213624 39837684 39562704 39375432 39263928 39217936 39230740 
1212.065 39300052 39427240 39616280 39871460 40196212 40591376 41055072 
1215.440 41582192 42165268 42793736 43453728 44129832 44804720 45461556 
1218.816 46086452 46668712 47201956 47683640 48114108 48495944 48833740 
1222.191 49135240 49412044 49678996 49955664 50263528 50622428 51050416 
1225.566 51558884 52152120 52826052 53569508 54364216 55185660 56007312 
1228.941 56801212 57541104 58207276 58786640 59274972 59676676 60004868 
1232.317 60281304 60534260 60801772 61129556 61566692 62168756 62988908 
1235.692 64073436 65462172 67182456 69249728 71669032 74436264 77538128 
1239.067 80950048 84637792 88552368 92629592 96799112 100980536 105089824 
1242.442 109048616 112777584 116201328 119254424 121877496 124024496 
1245.335 125665112 126782072 127370952 127436920 126994504 126066800 
1248.229 124685712 122893888 120736968 118258640 115496048 112472816 
1251.122 109203128 105696648 101968192 98046008 93979360 89832864 85689584 
1254.497 81641152 77772328 74163248 70875984 67947240 65391524 63197224 
1257.872 61332172 59744196 58369424 57139516 55981528 54831356 53638068 
1261.247 52365732 50999472 49542788 48015584 46447080 44872168 43326232 
1264.623 41838244 40431516 39122424 37919476 36825912 35839932 34956156 
1267.998 34166292 33461198 32833110 32276020 31787052 31365768 31012566 
1271.373 30727398 30508704 30353788 30259602 30223688 30244858 30322414 
1274.748 30454962 30638358 30865334 31124004 31398568 31670920 31920120 
1278.124 32123826 32261922 32315854 32273236 32130428 31893376 31576696 
1281.499 31200362 30787076 30355744 29919866 29487728 29063312 28650428 
1284.874 28255508 27888470 27563152 27294670 27095928 26976884 26944344 
1288.249 27002198 27154406 27405298 27759634 28221492 28792026 29467832 
1291.625 30239282 31090010 31997334 32928788 33844760 34701548 35450792 
1295.000 36050856 36473004 36706040 36760384 36666344 36470120 36221680 
1298.375 35971192 35762900 35628760 35591136 35661812 35841732 36120236 
1301.750 36473612 36868288 37259352 37598196 37841640 37953288 37911992 
1305.125 37712240 37363376 36885892 36307660 35662424 34984492 34307152 
1308.501 33661836 33072360 32555674 32120366 31767626 31494428 31296536 
1311.876 31171882 31121156 31146680 31250350 31431980 31689026 32017630 
1315.251 32414880 32880214 33415570 34023608 34704924 35456220 36269152 
1318.626 37132364 38033896 38962416 39908836 40864096 41815876 42747412 
1322.002 43634636 44446184 45149832 45713536 46112760 46337724 46396232 
1325.377 46318112 46150048 45956708 45808632 45769456 45891264 46201344 
1328.752 46699484 47359120 48135580 48978364 49837764 50678948 51482668 
1332.127 52245536 52975980 53689992 54406540 55142812 55913576 56728408 
1335.503 57590320 58493832 59424260 60360224 61273068 62131596 62906868 
1338.878 63571856 64105688 64495020 64733788 64824024 64774864 64601696 
1342.253 64323536 63961812 63538984 63075064 62587156 62087784 61583912 
1345.628 61078564 60571932 60062548 59547636 59022328 58479044 57906828 
1349.004 57292416 56625340 55900836 55125432 54318216 53513584 52755816 
1352.379 52093804 51580452 51261920 51174308 51340524 51762688 52420048 
1355.754 53263708 54225816 55221404 56157928 56954824 57544888 57883544 
1359.129 57953624 57762836 57344784 56750612 56054132 55343636 54709608 
1362.505 54242600 54010876 54046484 54340748 54845416 55485100 56163544 
1365.880 56784104 57256008 57499040 57460460 57118692 56489320 55620168 
1369.255 54584668 53468012 52345884 51282504 50323908 49495700 48814232 
1372.630 48290076 47934356 47759192 47774396 47980128 48362220 48893252 
1376.006 49538852 50264124 51043672 51863784 52721548 53623448 54582452 
1379.381 55617572 56751552 58011448 59423800 61003552 62741184 64586280 
1382.756 66448832 68191408 69648632 70660056 71074424 70785848 69757016 
1386.131 68041480 65794228 63244292 60667328 58301280 56301540 54734640 
1389.507 53585024 52790468 52267096 51934208 51718752 51555344 51390944 
1392.882 51178968 50883564 50486040 49987484 49408704 48780536 48133248 
1396.257 47486104 46844544 46207352 45575624 44960684 44389516 43898936 
1399.632 43524228 43290648 43205360 43259824 43436552 43717696 44088540 
1403.008 44539720 45067156 45669400 46344912 47089976 47897656 48758328 
1406.383 49661500 50597448 51558624 52541008 53541356 54557540 55586688 
1409.758 56625000 57668376 58713656 59758836 60801656 61836940 62853292 
1413.133 63832612 64752592 65591024 66334592 66983312 67551792 68065544 
1416.509 68556784 69059464 69602968 70212976 70906416 71686544 72540632 
1419.884 73438184 74337400 75191328 75958320 76610168 77133728 77539232 
1423.259 77858968 78146064 78457032 78836440 79304904 79854704 80459712 
1426.634 81087728 81714568 82327344 82924936 83514408 84107240 84717648 
1430.010 85361688 86062360 86846944 87741416 88765960 89925696 91211400 
1433.385 92601256 94073208 95615616 97229712 98933160 100750816 102703624 
1436.760 104788712 106979776 109236448 111513560 113767792 115950272 
1439.653 118005568 119856056 121404808 122556624 123216936 123313184 
1442.546 122804720 121681408 119967904 117719784 115029512 112013336 
1445.439 108795656 105511832 102285512 99227824 96441496 94004576 91962520 
1448.814 90318448 89036968 88059992 87328952 86808752 86494200 86405896 
1452.190 86569864 86997152 87663736 88512800 89450408 90361856 91132272 
1455.565 91653920 91867656 91794168 91554616 91321864 91248272 91429048 
1458.940 91890168 92621680 93603920 94816320 96234520 97818208 99510232 
1462.315 101221248 102827632 104195240 105188216 105713088 105753288 
1465.208 105378008 104716128 103899800 103039872 102202904 101417016 
1468.102 100688776 100007720 99346304 98650880 97837432 96795176 95399744 
1471.477 93562128 91273624 88637944 85841160 83087080 80525920 78222504 
1474.852 76182592 74391472 72843704 71555176 70550432 69839112 69403376 
1478.227 69193768 69146288 69194744 69291040 69413800 69565280 69765888 
1481.603 70041944 70420664 70925104 71579048 72414288 73469496 74788552 
1484.978 76409144 78347536 80581952 83037568 85593408 88072048 90252816 
1488.353 91905448 92794368 92730200 91622744 89508432 86560032 83030872 
1491.728 79200000 75290848 71439672 67717464 64139032 60701772 57422040 
1495.104 54344612 51547808 49126712 47159220 45681880 44682260 44118320 
1498.479 43935304 44084468 44528892 45236164 46172748 47301332 48575904 
1501.854 49945516 51360664 52760684 54075532 55219336 56067252 56462188 
1505.229 56228332 55219300 53406220 50939672 48120180 45256092 42550536 
1508.604 40072068 37801372 35693968 33719164 31869698 30162950 28625228 
1511.980 27274488 26115412 25136154 24316376 23633136 23066786 22600672 
1515.355 22218186 21903082 21641940 21426832 21259360 21146982 21096508 
1518.730 21107048 21166428 21252402 21342636 21424396 21506416 21615682 
1522.105 21785416 22035072 22360668 22740450 23146740 23560510 23974884 
1525.481 24400204 24855412 25361116 25927234 26550548 27218642 27918362 
1528.856 28642676 29392380 30174528 30997194 31865240 32779512 33737960 
1532.231 34737548 35777040 36855992 37972056 39115032 40268948 41412308 
1535.606 42524772 43584448 44570928 45467996 46257624 46925340 47460120 
1538.982 47857072 48115956 48240868 48244532 48145016 47964924 47725352 
1542.357 47438352 47102900 46706196 46233964 45679928 45057896 44399536 
1545.732 43747524 43136632 42578788 42064068 41566732 41060860 40534520 
1549.107 39999000 39485988 39036396 38679696 38423004 38251924 38142772 
1552.483 38075304 38041744 38049412 38113576 38245992 38444580 38689984 
1555.858 38947520 39178084 39339264 39391616 39310644 39102992 38824168 
1559.233 38563300 38407912 38399184 38527452 38757900 39052204 39379532 
1562.608 39717308 40054300 40389220 40729640 41089016 41480728 41911948 
1565.984 42379652 42871044 43367200 43850512 44307280 44732356 45129504 
1569.359 45510600 45890048 46277156 46675056 47079596 47483076 47875124 
1572.734 48243832 48576016 48853128 49054404 49160548 49162888 49072544 
1576.109 48923100 48761404 48622636 48517212 48428228 48323744 48167820 
1579.485 47931436 47600188 47174288 46667012 46096844 45481244 44830912 
1582.860 44149640 43438640 42701528 41945300 41180008 40413368 39647208 
1586.235 38878264 38101748 37317772 36536036 35774948 35057760 34406416 
1589.610 33833980 33344902 32936830 32605138 32344588 32148306 32004572 
1592.986 31891770 31778072 31628866 31411462 31106026 30711110 30242764 
1596.361 29727976 29194556 28666568 28159088 27681372 27241606 26849588 
1599.736 26516664 26253650 26065730 25951538 25904196 25916366 25982458 
1603.111 26100598 26269280 26482502 26724584 26971244 27190280 27348762 
1606.487 27421250 27391780 27256812 27021910 26698544 26298778 25834564 
1609.862 25320864 24776794 24227168 23701296 23223806 22809064 22457658 
1613.237 22156884 21886774 21625642 21357950 21077204 20788438 20506046 
1616.612 20250326 20040382 19888184 19797662 19765410 19782958 19837406 
1619.988 19912466 19991388 20058148 20104302 20132064 20156638 20199470 
1623.363 20280528 20409178 20580630 20781174 20995232 21213502 21433900 
1626.738 21659562 21894508 22138474 22385996 22629120 22861342 23082650 
1630.113 23298228 23515596 23739370 23967496 24189086 24387586 24545156 
1633.489 24645756 24681494 24654804 24580254 24480440 24379000 24293528 
1636.864 24230916 24188562 24159100 24132968 24099730 24048912 23972504 
1640.239 23866984 23736080 23589684 23441588 23303194 23178472 23062138 
1643.614 22940280 22794570 22607408 22369144 22083528 21770612 21461226 
1646.990 21188278 20976836 20836652 20764490 20747806 20770122 20811032 
1650.365 20844090 20837242 20750136 20545092 20210544 19789338 19377724 
1653.740 19070730 18911050 18876304 18914684 18973560 19017522 19029948 
1657.115 19008520 18961410 18899492 18831424 18759248 18678370 18580490 
1660.490 18458258 18308586 18134260 17942672 17744436 17550362 17368826 
1663.866 17206358 17066350 16949160 16851602 16765635 16678963 16575441 
1667.241 16439181 16258691 16032858 15772233 15498508 15236760 15006280 
1670.616 14815105 14660238 14531533 14416361 14301185 14173683 14022022 
1673.991 13836581 13615013 13365913 13110434 12873705 12675893 12522777 
1677.367 12406295 12309138 12212854 12105109 11982915 11854217 11731652 
1680.742 11626476 11539225 11456753 11353278 11199334 10973431 10679417 
1684.117 10353093 10050648 9817886 9667162 9581083 9528683 9482624 9423837 
1687.975 9344373 9245021 9131412 9010322 8887711 8769224 8660100 8565297 
1691.832 8488592 8429230 8380247 8327217 8251836 8136730 7975351 7779386 
1695.689 7580407 7415560 7307483 7253976 7231100 7205462 7142436 7018398 
1699.547 6830572 6604642 6386799 6217866 6114052 6063985 6044027 6029849 
1703.404 6004920 5960476 5894406 5809876 5713579 5614080 5519168 5435080 
1707.262 5365736 5312334 5273158 5244283 5220606 5197200 5171246 5143081 
1711.119 5115588 5091953 5074353 5062016 5051993 5039992 5022495 4997859 
1714.977 4966253 4928315 4883813 4830973 4768559 4698817 4629289 4571457 
1718.834 4535261 4524949 4537371 4564023 4593557 4616429 4627480 4626576 
1722.691 4618639 4610435 4608191 4614755 4629088 4648110 4668741 4689808 
1726.549 4711077 4732682 4753417 4769798 4777570 4773852 4758777 4735496 
1730.406 4708832 4680999 4649583 4605445 4535194 4427296 4279870 4107908 
1734.264 3939860 3806504 3723950 3688728 3684150 3689430 3688627 3671719 
1738.121 3636634 3587955 3534637 3486136 3448462 3423581 3410055 3405614 
1741.979 3408820 3419039 3435603 3456744 3479790 3501735 3520507 3536174 
1745.836 3549870 3563200 3576629 3588389 3595271 3593234 3579536 3553144 
1749.693 3515798 3470906 3422412 3374424 3330415 3293889 3266947 3250489 
1753.551 3243378 3241876 3239840 3230894 3209697 3175117 3131562 3087711 
1757.408 3053107 3033287 3027314 3028849 3028215 3016370 2988378 2945209 
1761.266 2893171 2841440 2797685 2766005 2745831 2734028 2726992 2721991 
1765.123 2717690 2712689 2705254 2693684 2676881 2655578 2633976 2616775 
1768.980 2607609 2606609 2608642 2606175 2590575 2557511 2509519 2457100 
1772.838 2413350 2387863 2382765 2392993 2409885 2425745 2437241 2445004 
1776.695 2452602 2463465 2477794 2492290 2502021 2502054 2491223 2472862 
1780.553 2453468 2439373 2433742 2434675 2436807 2434775 2425245 2408819 
1784.410 2390028 2374836 2367740 2369872 2379600 2393926 2410385 2428178 
1788.268 2447537 2467930 2487258 2500521 2502421 2488291 2458000 2416449 
1792.125 2373103 2337024 2314172 2304545 2303646 2305645 2306111 2303746 
1795.982 2299616 2295518 2292254 2288657 2281762 2269205 2249753 2225207 
1799.840 2199431 2176786 2160036 2149713 2144152 2141355 2140356 2141655 
1803.697 2146650 2156107 2169193 2183246 2195201 2202295 2204226 2203027 
1807.555 2201795 2203161 2207690 2213718 2218480 2219446 2216315 2210987 
1811.412 2206224 2204193 2204559 2204759 2201762 2193203 2179816 2165064 
1815.270 2153576 2150646 2158304 2175720 2199864 2227106 2254849 2282794 
1819.127 2311874 2343020 2375802 2407986 2436308 2458166 2472362 2479860 
1822.984 2482626 2482592 2481293 2479426 2478127 2478993 2484692 2497355 
1826.842 2517617 2543013 2568277 2586542 2592942 2585909 2569943 2553245 
1830.699 2545312 2551478 2571876 2601508 2633543 2662346 2685516 2704387 
1834.557 2722158 2742597 2767272 2796184 2827866 2861685 2899208 2943708 
1838.414 2998487 3065253 3142575 3225920 3309447 3388382 3460552 3526787 
1842.271 3590126 3654009 3721578 3794270 3871956 3954104 4040246 4129617 
1846.129 4220010 4307845 4387431 4452669 4498801 4523677 4528364 4516177 
1849.986 4490733 4454176 4406007 4344724 4269095 4181067 4085397 3988846 
1853.844 3896897 3812187 3732639 3653542 3569714 3478755 3382672 3287111 
1857.701 3198047 3119814 3052573 2992916 2936168 2878695 2819795 2761570 
1861.559 2707021 2657978 2613775 2572176 2530815 2489390 2450169 2417215 
1865.416 2394226 2382165 2377568 2374902 2368206 2354947 2337324 2321101 
1869.273 2313206 2317803 2333959 2356612 2379133 2396625 2407053 2410985 
1873.131 2410485 2406454 2398424 2384497 2362909 2333993 2300548 2267239 
1876.988 2238163 2214617 2194768 2174821 2150812 2121677 2089647 2059317 
1880.846 2035448 2019769 2010748 2002958 1991508 1973267 1948570 1921446 
1884.703 1896253 1876053 1860812 1847468 1832495 1813995 1792601 1771507 
1888.561 1754607 1744028 1739803 1739071 1739104 1738306 1737740 1739537 
1892.418 1745558 1755039 1765220 1772140 1773038 1768114 1760795 1756803 
1896.275 1760928 1774335 1794797 1816723 1835323 1847635 1854523 1858349 
1900.133 1862143 1866635 1870329 1870129 1864173 1853491 1842411 1835889 
1903.990 1838484 1850496 1868099 1885271 1896253 1898150 1892126 1881577 
1907.848 1870229 1859015 1846503 1829334 1805277 1775566 1744627 1719145 
1911.705 1704175 1700849 1706371 1714953 1720874 1721074 1715884 1707468 
1915.563 1698055 1687244 1672476 1649725 1617397 1577457 1536423 1501144 
1919.420 1476474 1461813 1452005 1438608 1415504 1380667 1337923 1294885 
1923.277 1259526 1236299 1224702 1220515 1218821 1216595 1214003 1213272 
1927.135 1216362 1222310 1227726 1227726 1219253 1202673 1181641 1161508 
1930.992 1146425 1136027 1126991 1114002 1094137 1068760 1043450 1024784 
1934.850 1017312 1019703 1025947 1027109 1016913 994595 964874 935486 912940 
1939.189 898563 888303 875056 852247 818917 779747 743932 719173 709083 
1943.529 710311 716949 722724 726375 731386 744895 771548 811879 859419 
1947.868 903942 936117 950229 946112 928081 901750 869545 831631 786186 
1952.208 732316 672744 613844 562284 521942 491324 463361 428535 380744 
1956.548 319330 251427 187546 136765 103489 84665 72967 60904 45130 26938 
1961.369 10172 -2551 -13154 -28527 -55065 -96840 -150833 -208065 -257010 
1965.709 -288932 -302441 -303832 -303434 -308666 -322870 -341709 -359256 
1969.566 -371240 -378490 -387098 -404047 -433177 -471374 -508839 -535050 
1973.424 -542429 -530185 -504239 -471274 -435097 -391997 -333068 -249825 
1977.281 -141426 -17229 104318 204717 271220 302851 308289 301558 294396 
1981.621 292440 293932 294429 290019 281266 273276 272579 282725 302420 
1985.960 325166 342840 350368 348179 341083 335810 336540 341381 345195 
1990.300 341016 325597 302055 278647 264755 266910 284847 311770 339889 
1994.640 362438 376897 385652 392683 399846 404788 402234 386249 355176 
1998.979 312765 266512 225369 194838 172728 152211 124436 82876 27104 -36843 
2003.801 -101510 -157821 -201673 -233002 -252871 -262309 -259958 -243202 
2007.658 -212006 -170143 -127481 -94222 -78586 -80508 -92599 -102073 -96906 
2011.998 -71994 -31012 15308 55801 82478 95337 100606 106108 117310 133351 
2016.820 148233 154166 147405 129208 105743 84334 69984 62892 59645 56298 
2021.642 52288 51592 60672 83737 120326 163381 203192 230873 244133 246885 
2026.463 248244 256831 275829 301458 325995 341646 345592 342774 342310 
2030.803 354579 386083 436627 500778 572436 647723 727072 813473 909188 
2035.143 1011300 1113736 1207192 1284882 1344903 1390805 1429000 1464672 
2039.000 1499116 1528741 1548992 1556474 1552517 1544868 1543306 1556075 
2042.857 1585771 1629204 1678330 1724966 1764321 1797625 1829567 1867667 
2046.715 1916054 1976962 2048831 2128636 2212219 2295851 2373870 2440239 
2050.572 2487124 2509219 2504820 2479027 2442739 2411685 2400256 2417615 
2054.430 2464064 2531781 2606942 2676148 2730127 2765805 2785613 2794650 
2058.287 2797752 2798819 2800886 2806122 2818128 2840106 2873992 2918289 
2062.145 2967660 3013801 3048068 3065920 3067422 3057511 3043630 3032653 
2066.002 3027581 3028082 3031018 3033521 3035089 3037458 3042796 3052706 
2069.859 3065954 3079068 3087778 3090347 3087177 3082038 3079769 3082939 
2073.717 3091648 3103162 3114007 3122017 3128758 3137736 3153856 3179890 
2077.574 3215538 3256531 3297695 3334422 3364907 3390019 3412059 3432798 
2081.432 3452102 3468367 3479757 3485635 3487606 3488541 3491314 3496190 
2085.289 3500332 3499397 3488775 3466497 3434902 3399970 3368581 3345741 
2089.146 3333120 3327777 3324705 3319130 3308646 3293622 3276829 3260471 
2093.004 3245849 3232629 3219611 3206693 3195911 3190437 3194109 3208729 
2096.861 3233330 3263876 3295892 3325707 3352285 3376862 3401740 3428390 
2100.719 3456978 3485401 3511990 3536107 3559825 3586218 3618625 3657785 
2104.576 3701660 3746275 3786917 3821078 3849157 3874163 3899906 3928793 
2108.434 3960758 3993427 4023491 4048975 4069644 4087605 4105299 4123830 
2112.291 4142663 4158954 4169927 4174008 4172837 4169091 4166950 4169325 
2116.148 4176685 4187457 4199167 4209471 4217601 4223691 4228140 4230416 
2120.006 4229512 4223523 4211646 4195286 4177521 4162333 4152866 4149822 
2123.863 4150892 4152732 4152631 4150290 4148918 4152699 4164842 4185450 
2127.721 4209839 4230382 4239583 4232858 4209906 4175547 4136140 4097807 
2131.578 4064059 4035899 4012188 3992391 3977744 3969485 3968816 3974233 
2135.436 3980955 3983496 3976875 3960557 3938656 3918662 3906692 3906024 
2139.293 3913714 3922540 3924513 3913547 3888405 3853336 3814760 3777324 
2143.150 3742933 3710349 3675629 3636367 3592632 3546429 3500532 3456344 
2147.008 3411358 3361401 3302503 3233063 3155224 3073629 2991948 2911083 
2150.865 2828766 2738796 2635843 2518084 2385997 2244058 2095340 1940849 
2154.723 1779259 1610679 1441832 1289501 1179216 1142106 1200347 1359195 
2158.580 1598275 1878515 2154741 2387496 2556344 2660812 2714656 2736829 
2162.438 2744431 2749066 2755401 2765272 2778777 2796284 2817261 2839639 
2166.295 2859450 2871524 2872925 2863719 2847110 2828633 2811358 2795084 
2170.152 2775075 2744898 2699585 2639877 2571810 2505820 2452002 2415949 
2174.010 2396491 2387563 2379467 2364208 2338989 2304945 2265707 2225907 
2177.867 2188741 2154741 2125573 2103830 2093775 2099902 2124241 2163998 
2181.725 2212885 2260944 2299715 2325198 2337690 2340888 2338523 2333293 
2185.582 2323966 2309109 2288124 2262909 2240361 2228105 2231335 2251785 
2189.439 2285559 2324699 2361376 2390694 2411784 2427511 2442572 2459033 
2193.297 2477360 2496422 2514118 2530415 2547279 2567377 2592209 2621942 
2197.154 2653045 2681315 2704687 2722225 2736829 2752134 2770173 2790715 
2201.012 2810424 2824497 2829767 2826565 2818261 2810324 2807356 2811324 
2204.869 2820696 2832602 2844308 2855514 2868589 2886900 2912718 2945542 
2208.727 2981439 3014536 3039660 3053741 3056944 3051505 3041195 3028048 
2212.584 3013968 3000789 2990413 2986443 2992482 3011099 3040894 3077132 
2216.441 3112372 3138871 3152688 3154290 3148115 3140739 3136768 3137669 
2220.299 3141040 3142141 3136668 3123585 3104897 3084507 3066588 3052773 
2224.156 3041261 3029583 3014902 2996652 2976935 2959987 2949112 2946677 
2228.014 2951647 2961789 2974333 2987644 3001090 3015136 3030050 3044765 
2231.871 3058179 3068823 3076632 3083539 3092516 3106298 3126422 3151853 
2235.729 3179790 3207460 3233731 3259269 3286711 3318796 3356092 3397065 
2239.586 3438476 3476550 3509384 3537644 3563066 3588255 3614649 3640644 
2243.443 3663866 3682044 3694475 3703866 3714025 3729632 3752592 3782271 
2247.301 3814159 3843140 3865271 3878777 3884694 3886131 3885563 3885062 
2251.158 3884928 3885764 3888672 3896061 3911139 3935446 3968415 4006202 
2255.016 4042487 4071216 4088307 4092890 4087639 4077069 4064928 4053590 
2258.873 4043357 4033323 4022822 4012522 4004062 3999581 3999982 4004496 
2262.730 4010817 4017137 4022622 4028374 4037337 4052520 4075130 4104128 
2266.588 4136240 4167016 4193245 4213753 4229044 4241591 4252967 4263574 
2270.445 4272877 4279636 4283517 4285826 4288938 4295664 4307711 4324812 
2274.303 4344624 4364370 4381707 4395698 4407848 4420434 4435363 4454142 
2278.160 4476438 4500843 4526221 4551601 4576748 4602431 4629021 4656349 
2282.018 4684080 4711881 4739381 4766884 4794857 4822999 4850742 4876475 
2285.875 4898692 4916352 4929119 4937498 4942893 4946010 4946748 4944603 
2289.732 4938905 4929924 4919334 4910186 4905930 4909884 4923255 4945407 
2293.590 4974062 5006540 5040394 5074453 5107776 5140198 5170810 5198340 
2297.447 5221311 5238615 5250453 5258536 5264673 5271180 5279129 5288386 
2301.305 5297878 5305961 5312099 5316057 5319210 5322363 5326489 5331453 
2305.162 5336686 5341449 5345407 5348929 5353022 5358691 5366541 5376571 
2309.020 5388648 5402403 5418070 5436154 5456956 5480444 5505477 5530041 
2312.877 5551989 5570112 5584175 5595083 5605118 5616094 5629185 5644592 
2316.734 5661712 5679638 5698370 5718346 5740471 5765922 5794967 5827170 
2320.592 5861761 5896824 5930278 5959132 5979590 5986914 5976701 5945763 
2324.449 5893197 5822133 5739061 5652145 5570213 5500678 5446622 5408173 
2328.307 5382240 5364662 5352116 5342958 5337424 5336652 5341751 5352452 
2332.164 5367547 5385528 5404449 5423975 5443905 5464036 5484169 5503329 
2336.021 5519772 5532894 5542626 5550311 5558131 5568031 5581120 5597734 
2339.879 5617067 5638751 5662752 5689910 5720663 5754371 5789057 5820958 
2343.736 5846010 5861660 5868008 5868377 5868746 5876202 5896320 5932327 
2347.594 5984764 6051486 6129208 6213699 6300627 6385656 6464547 6533529 
2351.451 6590008 6632936 6663048 6682698 6694677 6701676 6705142 6705949 
2355.309 6704401 6701272 6698311 6697672 6700801 6708339 6718366 6727957 
2359.166 6733812 6734418 6730111 6723616 6718669 6718232 6723952 6735024 
2363.023 6749292 6765177 6781466 6798428 6817209 6838583 6861977 6886349 
2366.881 6909510 6930114 6947823 6963984 6980146 6997992 7017825 7038232 
2370.738 7057596 7074266 7087165 7097235 7106093 7115221 7126134 7139405 
2374.596 7155000 7173258 7194480 7219376 7248653 7282919 7321433 7363557 
2378.453 7407842 7453513 7500403 7549118 7600234 7654289 7711487 7770919 
2382.311 7831675 7893014 7954360 8015580 8076505 8136460 8194228 8248020 
2386.168 8296144 8337383 8371600 8399299 8421359 8438825 8452204 8461528 
2390.025 8467205 8469637 8470448 8471428 8474233 8479908 8488254 8497681 
2393.883 8506129 8511500 8512886 8509947 8503696 8495586 8487004 8479604 
2397.740 8475077 8475314 8482342 8498492 8524915 8561952 8608218 8661452 
2401.598 8718175 8775784 8832386 8887271 8941182 8995167 9050580 9108809 
2405.455 9170868 9237677 9310351 9389369 9474734 9565908 9661572 9760207 
2409.313 9860829 9963102 10067468 10174606 10284859 10397345 10510437 
2412.688 10621080 10726283 10823903 10912642 10992326 11063730 11127499 
2416.063 11183864 11233334 11275840 11311513 11341305 11365930 11386134 
2419.438 11402257 11414299 11422156 11426001 11427191 11427089 11427939 
2422.813 11431444 11438315 11448827 11462434 11478730 11498327 11522790 
2426.189 11553516 11592717 11641826 11701049 11769984 11848224 11934994 
2429.564 12030127 12133218 12243628 12359725 12480081 12602517 12726046 
2432.939 12850839 12978261 13110058 13248283 13393353 13545170 13702923 
2436.314 13865384 14032493 14204972 14383720 14569668 14763031 14962894 
2439.690 15167583 15375768 15586491 15799480 16015153 16233651 16454460 
2443.065 16676657 16898864 17120286 17341478 17563992 17789586 18019962 
2446.440 18255884 18495946 18737974 18979306 19217688 19451802 19681500 
2449.815 19906952 20128836 20347298 20562460 20774084 20982572 21188068 
2453.191 21390388 21589112 21782874 21969402 22146320 22311414 22462858 
2456.566 22600008 22722398 22829528 22921138 22995684 23051830 23088450 
2459.941 23104976 23100888 23076814 23032998 22969344 22886700 22785876 
2463.316 22668390 22537464 22397230 22252052 22106398 21964768 21830258 
2466.692 21706202 21595900 21502272 21428782 21377822 21350640 21346950 
2470.067 21365292 21402884 21457918 21529324 21616656 21720586 21841580 
2473.442 21978534 22129724 22292090 22461880 22635750 22810670 22984226 
2476.817 23154042 23317528 23471560 23613124 23739474 23849094 23941096 
2480.193 24015958 24074196 24116786 24143862 24156228 24154616 24140220 
2483.568 24115106 24081796 24042398 23998730 23951390 23900344 23845208 
2486.943 23785322 23721242 23653218 23582198 23508180 23431134 23349798 
2490.318 23263094 23169210 23066924 22955720 22835394 22705954 22567688 
2493.694 22421128 22266210 22103122 21932146 21753156 21566164 21371246 
2497.069 21168726 20958684 20742142 20520324 20294276 20065400 19834354 
2500.444 19601386 19366602 19130110 18892156 18653776 18416532 18182560 
2503.819 17954000 17732528 17520038 17317616 17126732 16948092 16782132 
2507.195 16628558 16486019 16352814 16226599 16105097 15987445 15873432 
2510.570 15763642 15659170 15560801 15468223 15381020 15298330 15219499 
2513.945 15144870 15075569 15012899 14958469 14913374 14877986 14851961 
2517.320 14835504 14827345 14826762 14832693 14843321 14856419 14870271 
2520.696 14883609 14896742 14911419 14929834 14954765 14987689 15028369 
2524.071 15075192 15125657 15176675 15225505 15270839 15311578 15347139 
2527.446 15376935 15400313 15416517 15425443 15427435 15423143 15413907 
2530.821 15399969 15381672 15358295 15329496 15294864 15254984 15211092 
2534.197 15164975 15118279 15072138 15027340 14984157 14942934 14904320 
2537.572 14869071 14838144 14811779 14789804 14771395 14755593 14741469 
2540.947 14728924 14718059 14709386 14703148 14699104 14696225 14693415 
2544.322 14689782 14684674 14678642 14671925 14665276 14659176 14652802 
2547.698 14645570 14636420 14624631 14609519 14591529 14571415 14550274 
2551.073 14529752 14511765 14497889 14489462 14486859 14488880 14493710 
2554.448 14498403 14499705 14496109 14487132 14473600 14458254 14443730 
2557.823 14431809 14423588 14418245 14414101 14408997 14400880 14387967 
2561.198 14369472 14344848 14314199 14278209 14238456 14196414 14154512 
2564.574 14114703 14078525 14046422 14018360 13993276 13970658 13950265 
2567.949 13932371 13917864 13907498 13901511 13899322 13900279 13903290 
2571.324 13907943 13914340 13923304 13935929 13953139 13975073 14001421 
2574.699 14031227 14063397 14096630 14130482 14163824 14195695 14225754 
2578.075 14253762 14279853 14305261 14331526 14359985 14391975 14427528 
2581.450 14466099 14506214 14546231 14585293 14622952 14659724 14696499 
2584.825 14734477 14775029 14819082 14867596 14921363 14980488 15044661 
2588.200 15112996 15183813 15255121 15325411 15393722 15460052 15525361 
2591.576 15590577 15656525 15723238 15789825 15855150 15918044 15977923 
2594.951 16034922 16089693 16143268 16195919 16247993 16299317 16349511 
2598.326 16398955 16448334 16498340 16550036 16603943 16659854 16717769 
2601.701 16777206 16838306 16901342 16967146 17036300 17109396 17186708 
2605.077 17267862 17352686 17440666 17531216 17624096 17718654 17814302 
2608.452 17910834 18008426 18107316 18208612 18313114 18421164 18532250 
2611.827 18644956 18757034 18866478 18971516 19071354 19166260 19256860 
2615.202 19343944 19428102 19509710 19588664 19665000 19738954 19810770 
2618.578 19880658 19948508 20013804 20075776 20134114 20188536 20239668 
2621.953 20289104 20338060 20388030 20439600 20493022 20547730 20603144 
2625.328 20658982 20714964 20771546 20828690 20886434 20944568 21002744 
2628.703 21060578 21117762 21174568 21230968 21286988 21342602 21398046 
2632.079 21453114 21508400 21564526 21622018 21681262 21741906 21802730 
2635.454 21862626 21920018 21973934 22024580 22072790 22120066 22168322 
2638.829 22218746 22272244 22328854 22388472 22450472 22514676 22580532 
2642.204 22647724 22716010 22785004 22854358 22923862 22993450 23062836 
2645.580 23132374 23202274 23272674 23344240 23417354 23492686 23570932 
2648.955 23652450 23737374 23825222 23914978 24005594 24095946 24185058 
2652.330 24272716 24359058 24444788 24530500 24617036 24705272 24795666 
2655.705 24888712 24984548 25083074 25184080 25287288 25392030 25497710 
2659.081 25604330 25711470 25818528 25924840 26029562 26131492 26229786 
2662.456 26324018 26414714 26502858 26589894 26677052 26764934 26853816 
2665.831 26942862 27031430 27119030 27205624 27291918 27378970 27467416 
2669.206 27558070 27650788 27745224 27840952 27937548 28034838 28132504 
2672.582 28230650 28328748 28426728 28524302 28621334 28718140 28814862 
2675.957 28911674 29008544 29104730 29200156 29294502 29388268 29482620 
2679.332 29579122 29679370 29784574 29894842 30009932 30129316 30252248 
2682.707 30378912 30509700 30645540 30787326 30935672 31090758 31252452 
2686.083 31420618 31594976 31775716 31962846 32155830 32354190 32556996 
2689.458 32763076 32971858 33183358 33397786 33615864 33837960 34064000 
2692.833 34293992 34527624 34764972 35006580 35253316 35506020 35764984 
2696.208 36029940 36299660 36572944 36848488 37125868 37405232 37687300 
2699.583 37972632 38261804 38554716 38850616 39149112 39449412 39751332 
2702.959 40054696 40358676 40662360 40963776 41261000 41551928 41834996 
2706.334 42108860 42373404 42627908 42872284 43105968 43327952 43538076 
2709.709 43735580 43920856 44094368 44256648 44408272 44549672 44681048 
2713.084 44802444 44914092 45015996 45108364 45190720 45262492 45322584 
2716.460 45369516 45401960 45419248 45421348 45408876 45383568 45347704 
2719.835 45303868 45254844 45203472 45152700 45105016 45062860 45028564 
2723.210 45003868 44990416 44990160 45003500 45031800 45075064 45133252 
2726.585 45205420 45290588 45387948 45496324 45615956 45746596 45888796 
2729.961 46042608 46207536 46382296 46564612 46752024 46942064 47132668 
2733.336 47322504 47510316 47695844 47878196 48056664 48230908 48400148 
2736.711 48563936 48722520 48875932 49024468 49168528 49308624 49445052 
2740.086 49578480 49709568 49838988 49967816 50097240 50228228 50362340 
2743.462 50500924 50645512 50797336 50957556 51126448 51303456 51487480 
2746.837 51676580 51868752 52061564 52253232 52441732 52625828 52803524 
2750.212 52973136 53132776 53280600 53415140 53535096 53639944 53729480 
2753.587 53803880 53863964 53910180 53943456 53964276 53973056 53969564 
2756.963 53953284 53922596 53875856 53811268 53726704 53621312 53494284 
2760.338 53345712 53176892 52989116 52784068 52563668 52329700 52083828 
2763.713 51827980 51563924 51293912 51020344 50746124 50474276 50208104 
2767.088 49950940 49705820 49475168 49261040 49064828 48887060 48727860 
2770.464 48586872 48463900 48358520 48270528 48199324 48144536 48105000 
2773.839 48078980 48064620 48059400 48060472 48065360 48071060 48075428 
2777.214 48075800 48070168 48056220 48031904 47995044 47943944 47877640 
2780.589 47795888 47699320 47590092 47470656 47344380 47214592 47084324 
2783.965 46956016 46831660 46712432 46598804 46490816 46387864 46288512 
2787.340 46190988 46092828 45991224 45883604 45768244 45643928 45511264 
2790.715 45371208 45225684 45076644 44926440 44776544 44628720 44484432 
2794.090 44345372 44213208 44090296 43978488 43879580 43795204 43725796 
2797.466 43671456 43631852 43606208 43593568 43593532 43605436 43629176 
2800.841 43664496 43711100 43768672 43836656 43914184 44000196 44093596 
2804.216 44192964 44297116 44405080 44515932 44628828 44742896 44857104 
2807.591 44969984 45079988 45185312 45283896 45373712 45453060 45520316 
2810.967 45574520 45614964 45641388 45654012 45653168 45639292 45613232 
2814.342 45575880 45528116 45471748 45408580 45340900 45271868 45204764 
2817.717 45143180 45090720 45051424 45028896 45027060 45049476 45098844 
2821.092 45177220 45285660 45423296 45588060 45777080 45986432 46211996 
2824.468 46450360 46698116 46951772 47208496 47464964 47717072 47961736 
2827.843 48195144 48415152 48620372 48810864 48988080 49154276 49312072 
2831.218 49464548 49614172 49764000 49916336 50073852 50239420 50416408 
2834.593 50607908 50817636 51048960 51305132 51589780 51906128 52258132 
2837.969 52650964 53090500 53584800 54143724 54778616 55503020 56332400 
2841.344 57282740 58372152 59619964 61045652 62670512 64515316 66597588 
2844.719 68929544 71512360 74331192 77346216 80489384 83665264 86742184 
2848.094 89571176 91996672 93864144 95053184 95486800 95143504 94059016 
2851.469 92321056 90057896 87408688 84521048 81532440 78553352 75676384 
2854.845 72968912 70473304 68214632 66200888 64427100 62878064 61532256 
2858.220 60365444 59350712 58462932 57679992 56980776 56348092 55768164 
2861.595 55229232 54723140 54244552 53790716 53361180 52957076 52581056 
2864.970 52235744 51925172 51653664 51425968 51246968 51121676 51053100 
2868.346 51042776 51089400 51188700 51332992 51512436 51715100 51927148 
2871.721 52134784 52325216 52486672 52611388 52694988 52738124 52745232 
2875.096 52724280 52685264 52637984 52591868 52554916 52532892 52530312 
2878.471 52550204 52594408 52663940 52758740 52878292 53021540 53187452 
2881.847 53374708 53582436 53808756 54051404 54306536 54569036 54833160 
2885.222 55092820 55343524 55582056 55808140 56023444 56232028 56439244 
2888.597 56650864 56873004 57112152 57373708 57663800 57988576 58354452 
2891.972 58769684 59244132 59789672 60421604 61157244 62014056 63008828 
2895.348 64152896 65448464 66884084 68432960 70049656 71669464 73218232 
2898.723 74614264 75777912 76648432 77186760 77385096 77265888 76880296 
2902.098 76299488 75599320 74859456 74150400 73527424 73036144 72708136 
2905.473 72565376 72624040 72894912 73386672 74107016 75063544 76264960 
2908.849 77721600 79443848 81441104 83717896 86270608 89081184 92112496 
2912.224 95310600 98595952 101868888 105021040 107931184 110483256 112582000 
2915.599 114154448 115164656 115613944 115540016 115005288 114086712 
2918.492 112868712 111427296 109825808 108114960 106327520 104483128 
2921.385 102591520 100656016 98678248 96662368 94617032 92558152 90507568 
2924.760 88490056 86531928 84656920 82882232 81219256 79671880 78238016 
2928.136 76910752 75680168 74534912 73462552 72451048 71489152 70566344 
2931.511 69674032 68804944 67953168 67113856 66282944 65457360 64634652 
2934.886 63813844 62995464 62181068 61373428 60575628 59790280 59019636 
2938.261 58265892 57531572 56820620 56138772 55493116 54891808 54342472 
2941.637 53850764 53420008 53049916 52737000 52473964 52250956 52055740 
2945.012 51873868 51691844 51496880 51279928 51037856 50773608 50497056 
2948.387 50221976 49965288 49743416 49569044 49450620 49391256 49388952 
2951.762 49437368 49526856 49646084 49781316 49918824 50045440 50148632 
2955.138 50218964 50249688 50237080 50180132 50079948 49939268 49761584 
2958.513 49551740 49315528 49059116 48789692 48513916 48237348 47964404 
2961.888 47698172 47440164 47191688 46954244 46729184 46518252 46323236 
2965.263 46145148 45984556 45841180 45714528 45604068 45509500 45430840 
2968.639 45368340 45322548 45294008 45283896 45293496 45324828 45380000 
2972.014 45460416 45566644 45696932 45847552 46011852 46180856 46344284 
2975.389 46490184 46606220 46681180 46705016 46670704 46575420 46420824 
2978.764 46213064 45962492 45682800 45387984 45092300 44808832 44547208 
2982.140 44314580 44114944 43948316 43811296 43697508 43598256 43503056 
2985.515 43401328 43284500 43146184 42983696 42797612 42591212 42369384 
2988.890 42136976 41897932 41654252 41405528 41150028 40884624 40606472 
2992.265 40314320 40008848 39693676 39375032 39059852 38755292 38466408 
2995.641 38195120 37940088 37696880 37460236 37224372 36985676 36742604 
2999.016 36495920 36247832 36001100 35758328 35521124 35290336 35066596 
3002.391 34849876 34640360 34438160 34243440 34055932 33875712 33702512 
3005.766 33536788 33379074 33229892 33089734 32958348 32834720 32717306 
3009.142 32604210 32493464 32383606 32274236 32165360 32057400 31951360 
3012.517 31848196 31748622 31653672 31563476 31478540 31398710 31323884 
3015.892 31253662 31187866 31126460 31069830 31018332 30972142 30931010 
3019.267 30894186 30860602 30828908 30798282 30768548 30739740 30712534 
3022.643 30687392 30664528 30644010 30625984 30610872 30600314 30596544 
3026.018 30602554 30620686 30652722 30697918 30754250 30817454 30882516 
3029.393 30943748 30996198 31035628 31059436 31066164 31055844 31029400 
3032.768 30988940 30936844 30876148 30809842 30740486 30670784 30603016 
3036.144 30538704 30479202 30425464 30377774 30336166 30300068 30268838 
3039.519 30241484 30217436 30195520 30174990 30155350 30136170 30117384 
3042.894 30099626 30083788 30070720 30061454 30056482 30055664 30058648 
3046.269 30064436 30072886 30083966 30098242 30116708 30139722 30167104 
3049.645 30197686 30229442 30260632 30290048 30317762 30345120 30373580 
3053.020 30404496 30438542 30474796 30511868 30547840 30581790 30613752 
3056.395 30644794 30676296 30709476 30745002 30782348 30820548 30859002 
3059.770 30897674 30937520 30980150 31027372 31080436 31140414 31207022 
3063.146 31280082 31358786 31442310 31529914 31620740 31713478 31806912 
3066.521 31899828 31991378 32080912 32168570 32254286 32337912 32418448 
3069.896 32494858 32565314 32628712 32684438 32732952 32775580 32814350 
3073.271 32851410 32888934 32928646 32971576 33018298 33068962 33122990 
3076.646 33179532 33237260 33294674 33350590 33404194 33455364 33504326 
3080.022 33552040 33599184 33646620 33694708 33744016 33794440 33846056 
3083.397 33898820 33952416 34006588 34060736 34115140 34169944 34226408 
3086.772 34285672 34349252 34417932 34491572 34569280 34649368 34730116 
3090.147 34810024 34888612 34966104 35043536 35121884 35202252 35285124 
3093.523 35370916 35459460 35550752 35644548 35740668 35838784 35938400 
3096.898 36039008 36139932 36240628 36340548 36439272 36536648 36632316 
3100.273 36726668 36820032 36913668 37008732 37106812 37208668 37314340 
3103.648 37423216 37533960 37644880 37755068 37864052 37972380 38080552 
3107.024 38189260 38298752 38408816 38518652 38627940 38736276 38843952 
3110.399 38951436 39059124 39167136 39275536 39383920 39492516 39601616 
3113.774 39711936 39824468 39939132 40055536 40172440 40288036 40401220 
3117.149 40511348 40618808 40725092 40831480 40939092 41048296 41158404 
3120.525 41268540 41377248 41483896 41588208 41690796 41792784 41895272 
3123.900 41999388 42105792 42215000 42326940 42440912 42556276 42671988 
3127.275 42787152 42901360 43014572 43127376 43240464 43354384 43469328 
3130.650 43584628 43699740 43814116 43927604 44041156 44155696 44272756 
3134.026 44393372 44517436 44644696 44773936 44904392 45035292 45166304 
3137.401 45297316 45427932 45557664 45685892 45811908 45935824 46058304 
3140.776 46180744 46304400 46430044 46557456 46685536 46812876 46937964 
3144.151 47060432 47180720 47300408 47421240 47544840 47672212 47803396 
3147.527 47938092 48075868 48216136 48358332 48502056 48646056 48789060 
3150.902 48929928 49067384 49201144 49331748 49460016 49587248 49714288 
3154.277 49841592 49968708 50095156 50220004 50342656 50462776 50580360 
3157.652 50695852 50809924 50923468 51037632 51153732 51273144 51396692 
3161.028 51525156 51658292 51794864 51933832 52073632 52212988 52351080 
3164.403 52487272 52621264 52753088 52882636 53010120 53136032 53260932 
3167.778 53385612 53510360 53635520 53760188 53883920 54005660 54124620 
3171.153 54240308 54353136 54463476 54572304 54680408 54788580 54897336 
3174.529 55007176 55117832 55228668 55338328 55445268 55547980 55645364 
3177.904 55737460 55825660 55911912 55998828 56088324 56181192 56277064 
3181.279 56374424 56471356 56566304 56658488 56747964 56835196 56921128 
3184.654 57006128 57090768 57175120 57259488 57344212 57429676 57516368 
3188.030 57604244 57692972 57782516 57872340 57962448 58053184 58144920 
3191.405 58237132 58329172 58419456 58506040 58587252 58662340 58731524 
3194.780 58796428 58858840 58920728 58983616 59048144 59114348 59182276 
3198.155 59251728 59322716 59395004 59468408 59542200 59615252 59686372 
3201.531 59754312 59818384 59878660 59935712 59990676 60045084 60100672 
3204.906 60158668 60220056 60285264 60353372 60422900 60491452 60556504 
3208.281 60616236 60669916 60718352 60763320 60806992 60851168 60897028 
3211.656 60944184 60991732 61038712 61084968 61131004 61178188 61227896 
3215.031 61281120 61337668 61396364 61455680 61514120 61570852 61625952 
3218.407 61680484 61735328 61791516 61849204 61908232 61967808 62027124 
3221.782 62085416 62142340 62197620 62251580 62304316 62356064 62407396 
3225.157 62458968 62511116 62564424 62619308 62675604 62733716 62793636 
3228.532 62855356 62919272 62985004 63052348 63120896 63189908 63259052 
3231.908 63328548 63398516 63469648 63541932 63615388 63688860 63761456 
3235.283 63831992 63899852 63965304 64029656 64094016 64159924 64227796 
3238.658 64297760 64368992 64440668 64512080 64582476 64651296 64718252 
3242.033 64782440 64843952 64902580 64959572 65017024 65077104 65142424 
3245.409 65214648 65293820 65378852 65467604 65557496 65646864 65734624 
3248.784 65820828 65906168 65991016 66075340 66158636 66240176 66319420 
3252.159 66396160 66470256 66542468 66612652 66681028 66747016 66810348 
3255.534 66870636 66928072 66983164 67036940 67090028 67142936 67195568 
3258.910 67247600 67298656 67348496 67397448 67445656 67493656 67542040 
3262.285 67590736 67639400 67687880 67734928 67779664 67820832 67857632 
3265.660 67889400 67916280 67938832 67958520 67976768 67995480 68015744 
3269.035 68038104 68062136 68086792 68110464 68131792 68149776 68164000 
3272.411 68174816 68183496 68191216 68199544 68209160 68220640 68233392 
3275.786 68246536 68259096 68270192 68280272 68290424 68302368 68317688 
3279.161 68337472 68361632 68388776 68417480 68445984 68473416 68500416 
3282.536 68528696 68560320 68597568 68641376 68691488 68746944 68806272 
3285.912 68868152 68932184 68998288 69066800 69137856 69211600 69287696 
3289.287 69366016 69446336 69529032 69614944 69704800 69799384 69899320 
3292.662 70005160 70117176 70236112 70362680 70497272 70639704 70789552 
3296.037 70945312 71105104 71267760 71432400 71598504 71766320 71936112 
3299.413 72107920 72281992 72458600 72638304 72822888 73014616 73215760 
3302.788 73428536 73653616 73890760 74137976 74393040 74653336 74917320 
3306.163 75183720 75452768 75724424 75999760 76279064 76563136 76852336 
3309.538 77146512 77445368 77747920 78053176 78360432 78669808 78982280 
3312.914 79299936 79624872 79958736 80302144 80654000 81011896 81373080 
3316.289 81735088 82096640 82457208 82817672 83178480 83540064 83902360 
3319.664 84264912 84627120 84989200 85351128 85713072 86074400 86433752 
3323.039 86789648 87140848 87487272 87829872 88170880 88512352 88855400 
3326.415 89199576 89542104 89879400 90207384 90523232 90825568 91114328 
3329.790 91390320 91654168 91906056 92145352 92371256 92582432 92777544 
3333.165 92955424 93114328 93252792 93369080 93462760 93534344 93585472 
3336.540 93618968 93637464 93642520 93634464 93611736 93572072 93512520 
3339.916 93431440 93327472 93200064 93048688 92872616 92671144 92443320 
3343.291 92189264 91909664 91605640 91278688 90929728 90558664 90164800 
3346.666 89747752 89307496 88845360 88363856 87866384 87356304 86835696 
3350.041 86306096 85768336 85222856 84670448 84112224 83549264 82982736 
3353.417 82413336 81841368 81267360 80692664 80119088 79549488 78986760 
3356.792 78433536 77891280 77360944 76842288 76335120 75839224 75354896 
3360.167 74882368 74421792 73973176 73536136 73110360 72695952 72293344 
3363.542 71903416 71526856 71164000 70814472 70477512 70152104 69838304 
3366.917 69536312 69247392 68972152 68710616 68461392 68221760 67988080 
3370.293 67756456 67524304 67289416 67050860 66808068 66560628 66307604 
3373.668 66048332 65782124 65508412 65227704 64940252 64646184 64345592 
3377.043 64037448 63720516 63393532 63055336 62704852 62341644 61964908 
3380.418 61573872 61167812 60746092 60308596 59856104 59390180 58912456 
3383.794 58425176 57930492 57429904 56925208 56418488 55911424 55406152 
3387.169 54904216 54406836 53914156 53425888 52941504 52460464 51982684 
3390.544 51508372 51038636 50574256 50116280 49665248 49221404 48784464 
3393.919 48353260 47927108 47504032 47082404 46660928 46238936 45816912 
3397.295 45396844 44981488 44573424 44174656 43785236 43403740 43027120 
3400.670 42652400 42276828 41899288 41520064 41140228 40761524 40384928 
3404.045 40010736 39638532 39267916 38898596 38531324 38167588 37808672 
3407.420 37455684 37109192 36768496 36432820 36101332 35773368 35448708 
3410.796 35127668 34810312 34496812 34187300 33881088 33578704 33280150 
3414.171 32986448 32698978 32418840 32147020 31883034 31626408 31375344 
3417.546 31127668 30881700 30636010 30389928 30144622 29901622 29663582 
3420.921 29433154 29211920 29000150 28796770 28599074 28403910 28208620 
3424.297 28011512 27812620 27613184 27415356 27220686 27030302 26843668 
3427.672 26659860 26477220 26295152 26112948 25931488 25751618 25574106 
3431.047 25399616 25228148 25059870 24894782 24733438 24576080 24422918 
3434.422 24273346 24126560 23980416 23833938 23685934 23536616 23386966 
3437.798 23238522 23092608 22950060 22810286 22672614 22536208 22400334 
3441.173 22265268 22131536 21999970 21870502 21742708 21615194 21485944 
3444.548 21353458 21216738 21075640 20931284 20785762 20640946 20498994 
3447.923 20361360 20228976 20101802 19979524 19861130 19745472 19631476 
3451.299 19518166 19404852 19291498 19177688 19063668 18949294 18834850 
3454.674 18719948 18605080 18490034 18375328 18261068 18147562 18034848 
3458.049 17922852 17811196 17699672 17587866 17475882 17363652 17251520 
3461.424 17139622 17028064 16917396 16808032 16700346 16595200 16492764 
3464.800 16392726 16294397 16196745 16098427 15999442 15899347 15798828 
3468.175 15698744 15599816 15502354 15406252 15310961 15215863 15120750 
3471.550 15026310 14932851 14841367 14752164 14665071 14579639 14495080 
3474.925 14411155 14327691 14245304 14164508 14085609 14008676 13932781 
3478.301 13857106 13780520 13702615 13623561 13544487 13466896 13392908 
3481.676 13324365 13262323 13207054 13158076 13113474 13070924 13028346 
3485.051 12983211 12934258 12881590 12826539 12771325 12718642 12670605 
3488.426 12628612 12592591 12561793 12534201 12508487 12483219 12457440 
3491.802 12431526 12405954 12381135 12358327 12338248 12321955 12309785 
3495.177 12302354 12299696 12302184 12309751 12322738 12341999 12368589 
3498.552 12403056 12445574 12495358 12550162 12607259 12663783 12717959 
3501.927 12769312 12819407 12871317 12928967 12995843 13073862 13163676 
3505.302 13264100 13372850 13487233 13605098 13724911 13846125 13969837 
3508.678 14097520 14231369 14373959 14526291 14688307 14858031 15032724 
3512.053 15208690 15383251 15554757 15722929 15888967 16054209 16219411 
3515.428 16384469 16547352 16706061 16858422 17003426 17141070 17271482 
3518.803 17394932 17510034 17614194 17703848 17775088 17825522 17853832 
3522.179 17860910 17848756 17819860 17775846 17717480 17644144 17554090 
3525.554 17445116 17315512 17164612 16992678 16801692 16594822 16376108 
3528.929 16149389 15917942 15683834 15447828 15209411 14967764 14722308 
3532.304 14473087 14220858 13966245 13709898 13452508 13193971 12934634 
3535.680 12675621 12418228 12165009 11917932 11678891 11448724 11227147 
3539.055 11013600 10807190 10607431 10414008 10226778 10045155 9867981 
3542.430 9693217 9518591 9342579 9164575 8985053 8805842 8629308 8458015 
3546.288 8293509 8137507 7990369 7852491 7723258 7602189 7487458 7377206 
3550.145 7268531 7159278 7048099 6934962 6821383 6710492 6604608 6505309 
3554.002 6412825 6325303 6239916 6154479 6066841 5976231 5883155 5789023 
3557.860 5695248 5603339 5514202 5428471 5346782 5269302 5196227 5127658 
3561.717 5062988 5001009 4940581 4879591 4815260 4745746 4668138 4580297 
3565.575 4481292 4372068 4255677 4138247 4026267 3926017 3841001 3771776 
3569.432 3715963 3668778 3625575 3582509 3537043 3488541 3437641 3385444 
3573.290 3333353 3281436 3229859 3178221 3125888 3073061 3019573 2966026 
3577.147 2912117 2858249 2804455 2750967 2698319 2647077 2598075 2551545 
3581.004 2507519 2465397 2424546 2384098 2343620 2302513 2260478 2216448 
3584.862 2169127 2116816 2058218 1993172 1923842 1853591 1787777 1731287 
3588.719 1687377 1656477 1636887 1624648 1615502 1604760 1588930 1565552 
3592.577 1533862 1494162 1448647 1400578 1353511 1311169 1276441 1250355 
3596.434 1233009 1223273 1219020 1218754 1221180 1225865 1232278 1240918 
3600.292 1251484 1263613 1277504 1292459 1308510 1326091 1345102 1364513 
3604.149 1382462 1395160 1397487 1384556 1351118 1294918 1215997 1119051 
3608.006 1011002 901518 800028 712668 642148 586470 541184 500280 458618 
3612.346 413013 363499 312433 263495 220927 187313 162685 145118 130998 
3616.686 115785 95701 68095 32903 -7819 -49896 -88458 -119531 -140863 
3621.025 -152654 -156894 -155900 -152124 -146891 -140598 -132880 -123936 
3624.883 -114926 -109030 -111183 -127348 -163452 -222967 -303898 -397128 
3628.740 -487823 -559604 -600503 -608477 -589849 -555997 -517940 -484844 
3632.597 -462073 -451779 -452342 -460484 -472532 -484844 -495336 -503709 
3636.455 -510262 -515855 -521150 -526809 -533064 -540047 -547923 -555931 
3640.312 -564005 -570888 -575157 -575951 -572576 -565296 -555401 -545110 
3644.170 -536605 -532468 -535050 -545970 -566586 -597856 -639579 -691189 
3648.027 -750599 -814498 -877727 -934731 -979099 -1006273 -1014273 -1004059 
3651.885 -979265 -945873 -909669 -877000 -852662 -839798 -839864 -850975 
3655.742 -868997 -887912 -901502 -905271 -898030 -880869 -857225 -831067 
3659.599 -806329 -785559 -769684 -758669 -751326 -746001 -741403 -737004 
3663.457 -732538 -727874 -722119 -714179 -702072 -684241 -660256 -630943 
3667.314 -598419 -564005 -526346 -478589 -407423 -294528 -121551 122712 
3671.172 439646 821340 1255638 1729224 2228338 2737129 3226621 3652472 
3675.029 3958986 4089411 4011385 3730835 3286344 2730927 2117148 1493563 
3678.886 898928 366650 -77096 -419870 -663068 -821245 -916017 -969843 
3682.744 -1000885 -1019628 -1031066 -1037049 -1039627 -1043197 -1053774 
3686.119 -1077704 -1119612 -1179691 -1253769 -1333055 -1406909 -1467938 
3689.494 -1511856 -1538666 -1551014 -1551609 -1542331 -1524337 -1499110 
3692.870 -1468665 -1436203 -1405357 -1378670 -1358092 -1343790 -1334607 
3696.245 -1329058 -1325523 -1322947 -1321130 -1320932 -1323508 -1330313 
3699.620 -1342799 -1361858 -1387092 -1416553 -1446737 -1472892 -1490690 
3702.995 -1497030 -1491251 -1475104 -1451955 -1425932 -1400898 -1379430 
3706.371 -1362519 -1350396 -1342535 -1338934 -1340223 -1347853 -1362783 
3709.746 -1385639 -1415166 -1448851 -1482435 -1511063 -1531039 -1539591 
3713.121 -1536421 -1522620 -1501323 -1476029 -1450304 -1427682 -1411169 
3716.496 -1402450 -1401724 -1407669 -1417775 -1429102 -1439307 -1447002 
3719.872 -1452418 -1456281 -1459518 -1462457 -1464471 -1464702 -1462060 
3723.247 -1456843 -1450106 -1443897 -1440199 -1439869 -1442510 -1445615 
3726.622 -1446011 -1440034 -1426130 -1404993 -1379430 -1353997 -1333418 
3729.997 -1321790 -1321625 -1332361 -1351123 -1372890 -1392806 -1407768 
3733.373 -1418567 -1428013 -1440298 -1458560 -1482336 -1507002 -1526186 
3736.748 -1533317 -1524799 -1501950 -1469193 -1431678 -1394193 -1360305 
3740.123 -1331601 -1309039 -1295330 -1293975 -1311021 -1352708 -1421804 
3743.498 -1513341 -1611000 -1691507 -1732861 -1726689 -1680153 -1612453 
3746.874 -1543883 -1491020 -1465363 -1470778 -1503964 -1554976 -1611627 
3750.249 -1661901 -1698306 -1718373 -1722135 -1710650 -1684840 -1645661 
3753.624 -1595418 -1538897 -1481708 -1430159 -1388744 -1360206 -1344517 
3756.999 -1339331 -1341412 -1347225 -1354624 -1362254 -1369224 -1373617 
3760.375 -1373815 -1367671 -1354723 -1336490 -1316538 -1299922 -1290573 
3763.750 -1290606 -1299558 -1313697 -1328100 -1338108 -1341313 -1338571 
3767.125 -1332889 -1328100 -1327109 -1330577 -1337646 -1345343 -1350429 
3770.500 -1350793 -1345475 -1335433 -1322517 -1309039 -1296982 -1288029 
3773.875 -1282809 -1281157 -1281950 -1283437 -1283602 -1281653 -1277656 
3777.251 -1273163 -1270420 -1271841 -1277656 -1286906 -1295924 -1300880 
3780.626 -1298964 -1289912 -1275343 -1259551 -1246996 -1241049 -1243230 
3784.001 -1252679 -1266555 -1281323 -1293546 -1301243 -1303423 -1300748 
3787.376 -1294008 -1284824 -1274814 -1265366 -1257998 -1253340 -1251126 
3790.752 -1250366 -1249408 -1246270 -1240289 -1231963 -1223340 -1217459 
3794.127 -1217095 -1223472 -1235234 -1249078 -1260014 -1263251 -1256908 
3797.502 -1242206 -1224133 -1209562 -1205861 -1219177 -1252250 -1302895 
3800.877 -1362717 -1418864 -1457404 -1468863 -1451757 -1412325 -1361627 
3804.253 -1311517 -1273063 -1253703 -1255454 -1274913 -1303060 -1328859 
3807.628 -1342436 -1339760 -1322814 -1297312 -1269661 -1244320 -1223109 
3811.003 -1205167 -1188513 -1171628 -1155039 -1141688 -1136599 -1144563 
3814.378 -1168455 -1207050 -1253604 -1296651 -1324829 -1330478 -1312871 
3817.754 -1278481 -1237250 -1201103 -1180352 -1182169 -1208339 -1253703 
3821.129 -1306529 -1351784 -1377910 -1379694 -1359975 -1326283 -1288359 
3824.504 -1254529 -1230113 -1216599 -1211908 -1212040 -1212007 -1208372 
3827.879 -1200805 -1190992 -1181806 -1175957 -1175065 -1178799 -1185341 
3831.255 -1192280 -1197171 -1198195 -1194593 -1186332 -1174106 -1159732 
3834.630 -1145654 -1135112 -1131708 -1138384 -1156295 -1183821 -1216170 
3838.005 -1246732 -1269363 -1280001 -1278481 -1267943 -1252976 -1237977 
3841.380 -1225785 -1217161 -1211214 -1206158 -1199979 -1191289 -1179823 
3844.756 -1165845 -1150247 -1133658 -1116770 -1099915 -1082960 -1065806 
3848.131 -1047957 -1029314 -1010240 -992786 -980653 -979595 -997315 -1041114 
3851.988 -1115646 -1218185 -1336721 -1448752 -1531667 -1571088 -1566234 
3855.364 -1526978 -1467839 -1402880 -1340949 -1287401 -1244320 -1210850 
3858.739 -1185606 -1166506 -1152164 -1141688 -1134253 -1129593 -1127379 
3862.114 -1127940 -1131444 -1138152 -1147934 -1159071 -1168455 -1172619 
3865.489 -1168621 -1155964 -1137062 -1117200 -1102988 -1100576 -1113432 
3868.865 -1141159 -1178138 -1214782 -1240752 -1250498 -1243659 -1225124 
3872.240 -1202689 -1183193 -1170736 -1166572 -1168323 -1171430 -1172124 
3875.615 -1167695 -1157947 -1144762 -1131444 -1120967 -1115283 -1115448 
3878.990 -1120769 -1129295 -1138119 -1143935 -1144035 -1137293 -1124206 
3882.365 -1107648 -1091652 -1081109 -1080382 -1091784 -1114291 -1142746 
3885.741 -1168455 -1182731 -1178898 -1156328 -1118753 -1073771 -1030173 
3889.116 -995563 -975694 -972124 -982967 -1002439 -1023661 -1040552 -1049609 
3892.973 -1050337 -1044486 -1034669 -1022901 -1010703 -998604 -986736 
3896.349 -975430 -965446 -957247 -951924 -949510 -949808 -951659 -954106 
3900.206 -956718 -959825 -964718 -973149 -986372 -1004819 -1027132 -1050469 
3904.063 -1071391 -1086000 -1091586 -1087256 -1073870 -1053510 -1029413 
3907.439 -1004389 -981843 -963197 -949841 -942203 -939162 -938996 -939889 
3911.296 -939625 -936781 -930433 -920977 -909702 -898295 -889135 -883944 
3915.154 -883712 -888375 -895980 -904379 -910694 -913009 -910694 -904643 
3919.011 -896344 -887647 -880075 -873495 -867609 -861392 -854414 -847470 
3922.868 -841881 -839599 -842278 -849619 -860003 -870023 -876041 -875247 
3926.726 -866980 -852893 -835895 -819922 -808545 -803154 -804510 -811026 
3930.583 -821146 -832357 -843072 -851835 -858250 -861921 -862847 -861260 
3934.441 -857986 -853720 -849222 -844990 -841087 -836921 -831861 -825379 
3938.298 -817806 -809670 -802824 -798987 -799252 -804312 -813407 -825511 
3942.156 -838574 -850876 -861094 -868535 -872734 -873958 -872304 -868435 
3946.013 -863111 -856961 -850644 -844494 -838475 -832158 -825147 -817111 
3949.870 -808380 -799550 -791579 -785229 -780532 -777125 -774016 -770246 
3953.728 -765351 -759397 -753079 -747357 -742660 -738360 -734192 -728602 
3957.585 -721258 -712261 -702767 -694861 -690130 -689634 -693405 -700054 
3961.443 -707464 -713286 -715867 -714213 -708225 -699128 -688178 -676864 
3965.300 -666509 -658338 -652647 -649405 -648048 -647453 -646526 -644376 
3969.157 -640505 -635244 -628991 -622936 -617312 -612746 -608874 -605367 
3973.015 -601330 -596202 -589551 -581014 -570193 -557685 -543720 -529258 
3976.872 -515226 -503180 -494177 -489114 -487988 -490272 -494873 -500962 
3980.730 -507846 -515292 -523566 -532601 -542165 -551629 -559869 -565858 
3984.587 -568969 -569234 -567612 -565130 -562715 -560696 -558975 -556957 
3988.445 -554078 -550206 -546268 -542992 -541470 -542396 -545838 -551232 
3992.302 -557486 -563310 -567943 -570524 -570723 -568704 -564766 -559604 
3996.159 -553979 -548783 -545011 -543157 -543422 -545639 -548684 -552258 
4000.017 -555401 -558247 
##END=
