
##TITLE=Z326a_3_a
##JCAMP-DX=5.01  $$ Nicolet v. 1
##DATATYPE=INFRARED SPECTRUM
##ORIGIN=UniL
##OWNER=Nicolet
##LONGDATE=2011/09/15
##TIME=16:18:19
##SPECTROMETER/DATA SYSTEM=Nicolet iS5
##DATA PROCESSING=
Ratio against background
%Transmittance->Absorbance
Truncated
ElementMultiply or ElementDivide
##COMMENTS=
Number of sample scans: 32
Collection length: 51.17 sec
Sample gain: 2.0
Background collected on: Jeu Sep 15 16:15:34 2011 (GMT+02:00);
Number of background scans: 32
Background gain: 2.0
Sample spacing:  1.000
Number of scan points: 12415
Resolution points: 8192
Number of FFT points: 65536
Apodization: N-B fort;
Phase correction: Mertz;
Laser frequency: 15798.0 cm-1
Number of rejected sample scans: 0
Number of rejected background scans: 0
Bench serial number: ASB1000141;
##RESOLUTION=4.000
##XUNITS=1/CM
##YUNITS=ABSORBANCE
##FIRSTX=649.893372
##LASTX=4000.122314
##FIRSTY=0.122789
##MAXX=4000.122314
##MINX=649.893372
##MAXY=0.296109
##MINY=-0.001405
##XFACTOR=1.000000
##YFACTOR=1.000000E-009
##NPOINTS=6950
##DELTAX=0.482117
##ZPD=6100
##XYDATA=(X++(Y..Y))
649.893 122788984 122116288 121534016 121064016 120696368 120400768 
652.786 120148184 119933048 119779824 119739400 119863616 120186504 
655.679 120707304 121394504 122199744 123079928 124016200 125011192 
658.571 126079960 127233032 128467544 129769056 131125912 132541704 
661.464 134042144 135662240 137430672 139346768 141375312 143451696 
664.357 145508640 147493728 149365568 151090672 152619296 153864352 
667.250 154717168 155094464 155004032 154550976 153880832 153095136 
670.142 152219120 151222240 150053968 148681440 147112080 145399280 
673.035 143621520 141864464 140186736 138610288 137131680 135738928 
675.928 134428304 133209896 132098184 131099168 130199600 129367904 
678.820 128564816 127757552 126933424 126099408 125274088 124472632 
681.713 123696360 122930432 122153160 121345656 120504480 119642552 
684.606 118784232 117952696 117159808 116404576 115676648 114965304 
687.498 114266384 113583464 112924784 112295128 111691016 111100584 
690.391 110508208 109903336 109285448 108664912 108056568 107474576 
693.284 106926456 106412480 105931064 105485344 105086320 104754424 
696.177 104512760 104378664 104360368 104454344 104649008 104931416 
699.069 105292672 105729536 106242032 106827840 107478224 108175776 
701.962 108899496 109629192 110351448 111062840 111766440 112465856 
704.855 113160432 113841736 114495848 115110960 115681488 116212328 
707.747 116715984 117207200 117697456 118192392 118695560 119215008 
710.640 119768824 120388400 121110432 121966296 122969128 124104120 
713.533 125326144 126564104 127741080 128786120 129646480 130299736 
716.425 130749968 131027296 131178168 131267368 131371112 131565792 
719.318 131928224 132516560 133356672 134431024 135670400 136961552 
722.211 138147600 139062752 139559040 139524864 138919824 137781280 
725.104 136226976 134423696 132562112 130821976 129325584 128136424 
727.996 127255992 126644280 126240256 125986024 125842112 125785320 
730.889 125803696 125887768 126021712 126184464 126356232 126522600 
733.782 126680968 126838368 127005520 127188920 127386896 127590600 
736.674 127789560 127978144 128159968 128345024 128545360 128767120 
739.567 129006936 129252848 129489928 129708664 129908232 130097120 
742.460 130286304 130484848 130693688 130907056 131115928 131314712 
745.352 131503672 131688688 131875872 132066336 132252928 132423696 
748.245 132566792 132677224 132760432 132829712 132900624 132982968 
751.138 133076640 133172664 133259984 133330824 133386536 133436408 
754.031 133492592 133563432 133650048 133745480 133840576 133929504 
756.923 134013728 134101064 134201600 134322256 134462768 134616368 
759.816 134773568 134927376 135075776 135221232 135366288 135510256 
762.709 135647248 135769536 135873232 135964848 136063008 136200128 
765.601 136415088 136743184 137212016 137831424 138588768 139443232 
768.494 140325872 141146560 141797312 142183088 142244320 141981296 
771.387 141465120 140828736 140240240 139841456 139711584 139832272 
774.279 140092992 140311904 140288384 139872416 138987920 137652608 
777.172 135951568 134003568 131913680 129742696 127506776 125185104 
780.065 122744456 120158672 117424376 114563184 111617832 108640448 
782.958 105686384 102809744 100055104 97459472 95051120 92846144 90852360 
786.332 89069304 87491080 86109456 84916264 83904896 83070952 82411224 
789.707 81922744 81602688 81448336 81458296 81634272 81981128 82507048 
793.082 83221104 84129920 85233576 86520608 87966416 89530416 91154504 
796.457 92772288 94310200 95697176 96883176 97846816 98610672 99240112 
799.832 99843400 100550512 101478792 102712472 104262888 106053592 107904040 
803.206 109555680 110721048 111113248 110535864 108924104 106367176 
806.099 103088056 99394952 95620688 92021120 88747920 85825576 83174232 
809.474 80653088 78116552 75471576 72691840 69824296 66957728 64200788 
812.849 61646764 59352572 57342664 55610152 54130364 52870320 51798636 
816.224 50888372 50115352 49460052 48905712 48438004 48046892 47725172 
819.598 47467960 47271664 47132036 47045072 47007300 47017452 47077084 
822.973 47190100 47361636 47596636 47897692 48265120 48695980 49185036 
826.348 49723092 50296932 50888816 51475432 52032280 52538312 52981144 
829.723 53363728 53708180 54057484 54468020 55006800 55743792 56734108 
833.098 58012168 59573288 61365832 63277752 65138652 66749216 67885640 
836.473 68353448 68032800 66895796 65025256 62588760 59820056 56956976 
839.847 54203480 51717784 49585240 47831140 46435168 45351824 44525768 
843.222 43902860 43440288 43103112 42863984 42703464 42606564 42562960 
846.597 42566652 42612996 42697176 42813296 42953152 43108052 43271724 
849.972 43440692 43615656 43800700 44001372 44222492 44467656 44739556 
853.347 45040032 45372384 45740224 46147508 46597664 47093448 47637012 
856.721 48231980 48885092 49605892 50408408 51309052 52324244 53472804 
860.096 54774932 56252208 57929128 59827508 61957756 64308092 66833848 
863.471 69452088 72035128 74434656 76496072 78079032 79094808 79514960 
866.846 79384416 78809232 77949992 76998208 76135168 75529568 75312760 
870.221 75565800 76330848 77607768 79363296 81529160 84006920 86671992 
873.596 89359832 91884280 94051728 95665624 96571592 96675648 95957872 
876.970 94477672 92361504 89786256 86936432 83993696 81114248 78403848 
880.345 75926392 73701320 71714448 69931784 68315248 66836164 65480396 
883.720 64251080 63162356 62234024 61481288 60909760 60514380 60282448 
887.095 60198096 60247196 60421148 60717588 61137640 61683120 62354152 
890.470 63148216 64062336 65094844 66248552 67531352 68956528 70541000 
893.844 72301328 74253504 76406504 78757752 81282936 83928168 86605048 
897.219 89176952 91476328 93323240 94537688 94987360 94605288 93404248 
900.594 91473136 88964008 86074680 83002712 79940656 77053168 74454792 
903.969 72223216 70394976 68974400 67944768 67277304 66941336 66906928 
907.344 67150824 67657752 68418136 69428064 70686728 72194696 73952672 
910.719 75958832 78204776 80672040 83326256 86110552 88951896 91760616 
914.093 94440608 96912952 99120824 101045888 102710336 104175992 105533456 
917.468 106878864 108305488 109875392 111602408 113439488 115276072 
920.361 116953432 118272432 119045176 119132656 118476696 117131648 
923.254 115267080 113164904 111156128 109597800 108823160 109064512 
926.146 110439928 112912800 116302016 120277192 124401104 128220856 
929.039 131280360 133217376 133816496 133001744 130838720 127487544 
931.932 123176360 118151160 112651008 106916872 101162944 95581136 90347048 
935.306 85594376 81423200 77898184 75045776 72866504 71342584 70446688 
938.681 70143464 70385904 71112680 72231200 73614832 75116168 76561320 
942.056 77782632 78646696 79061008 78996904 78486328 77615928 76502864 
945.431 75273792 74052936 72934616 71982528 71230440 70683688 70329488 
948.806 70143696 70099568 70169280 70326408 70547672 70810616 71095032 
952.181 71385336 71670528 71947016 72217152 72488792 72771648 73074048 
955.555 73402320 73759552 74146152 74561936 75006360 75479024 75978800 
958.930 76503976 77051784 77618856 78203304 78804736 79424872 80066136 
962.305 80730168 81416928 82124216 82849024 83589272 84345016 85119328 
965.680 85916760 86741168 87594360 88475392 89381488 90310408 91261720 
969.055 92237904 93243720 94283728 95360824 96475672 97627336 98814712 
972.429 100039504 101304832 102615656 103976872 105391232 106859240 
975.322 108380536 109955912 111588488 113284496 115051280 116896048 
978.215 118824128 120839672 122948280 125160040 127491312 129966024 
981.108 132610232 135448432 138499424 141770720 145258208 148942368 
984.000 152789408 156742528 160714528 164592736 168226112 171438528 
986.893 174059184 175926752 176925952 177007088 176189600 174563968 
989.786 172273568 169514688 166502128 163448256 160560560 158004416 
992.678 155899536 154321840 153297872 152819376 152853952 153360560 
995.571 154296464 155622704 157307936 159322112 161635088 164217776 
998.464 167038704 170065824 173267808 176605584 180027984 183468480 
1001.356 186834192 190017504 192908032 195399552 197415760 198918144 
1004.249 199911952 200444608 200601312 200502416 200281648 200084096 
1007.142 200053504 200306480 200933744 201989392 203489888 205423856 
1010.035 207760944 210466288 213503136 216837840 220439056 224269520 
1012.927 228287472 232449712 236710720 241029984 245368720 249676336 
1015.820 253880896 257874704 261502080 264584400 266933296 268383360 
1018.713 268838112 268285776 266818192 264612016 261929456 259087376 
1021.605 256399456 254179680 252689504 252103424 252517312 253931408 
1024.498 256270144 259391488 263121552 267279504 271674368 276130368 
1027.391 280480288 284552384 288189568 291249536 293616736 295223200 
1030.284 296047232 296109216 295455584 294147200 292248640 289819072 
1033.177 286919008 283606240 279929440 275925408 271609888 266979904 
1036.070 262020352 256720544 251089392 245166048 239019008 232737120 
1038.963 226424272 220178752 214090944 208243392 202699008 197503424 
1041.856 192675984 188201744 184028352 180067024 176214608 172362896 
1044.750 168426912 164367184 160194336 155971184 151793536 147784752 
1047.643 144068352 140750112 137919088 135631552 133912280 132758632 
1050.536 132143912 132024528 132343512 133043688 134068400 135363024 
1053.429 136878624 138562560 140351040 142170640 143926992 145510848 
1056.322 146814544 147731264 148173664 148087488 147451664 146287664 
1059.215 144656784 142665056 140451808 138174192 136008352 134117264 
1062.108 132639808 131690472 131341072 131626768 132546872 134068800 
1065.001 136128784 138630896 141459504 144470880 147501872 150395984 
1067.894 152998976 155182160 156856960 157967280 158492832 158439136 
1070.787 157831680 156708496 155114112 153101920 150727360 148047008 
1073.680 145123584 142022832 138818736 135602608 132472920 129539536 
1076.573 126917808 124708712 122999384 121853152 121299960 121338032 
1079.466 121928080 122998504 124435960 126091568 127799344 129369136 
1082.359 130622520 131421416 131679120 131388784 130620496 129519848 
1085.252 128275352 127093192 126184688 125723344 125841184 126619888 
1088.146 128079904 130183592 132833408 135890208 139170240 142463776 
1091.039 145572416 148306320 150512896 152091696 152985408 153182688 
1093.932 152707568 151614192 149975888 147874832 145402976 142648544 
1096.825 139693952 136620736 133501424 130401448 127380056 124478016 
1099.718 121715952 119088408 116564848 114094592 111618008 109086320 
1102.611 106470896 103776496 101041240 98335960 95751912 93382352 91321368 
1105.986 89646480 88412104 87653392 87382400 87592784 88262624 89358656 
1109.361 90838592 92649240 94732856 97022728 99439568 101898512 104300760 
1112.737 106535936 108497800 110083376 111208264 111820704 111901168 
1115.630 111464728 110553688 109233208 107580040 105670824 103584072 
1118.523 101387512 99134392 96865824 94606776 92370728 90165168 87996408 
1121.898 85874960 83818680 81850896 79999600 78293968 76758576 75413384 
1125.273 74273240 73347400 72643896 72170280 71934384 71944440 72206008 
1128.648 72719152 73475152 74454280 75625776 76943656 78351224 79783112 
1132.024 81163136 82418472 83485488 84318104 84900312 85249024 85415096 
1135.399 85469912 85498840 85586632 85796832 86168856 86707392 87384384 
1138.774 88139056 88886624 89535256 89985896 90151552 89968048 89391792 
1142.149 88406504 87018408 85252528 83146576 80747528 78112624 75301848 
1145.525 72378784 69410064 66455396 63570208 60802916 58189016 55755508 
1148.900 53519580 51488820 49664616 48043336 46618284 45380664 44320640 
1152.275 43428424 42693560 42107184 41662348 41354068 41179460 41136952 
1155.650 41225328 41442780 41787240 42257144 42852172 43574116 44426768 
1159.026 45414320 46540236 47805504 49207784 50740280 52391300 54144700 
1162.401 55975648 57850344 59728036 61556496 63278564 64838140 66178320 
1165.776 67251232 68019968 68457976 68553640 68309392 67742288 66881152 
1169.151 65763696 64435592 62941528 61326716 59634332 57901452 56163168 
1172.527 54450896 52791180 51208308 49722980 48350852 47104304 45991296 
1175.902 45015592 44178912 43481232 42922028 42501060 42217920 42072280 
1179.277 42063412 42190720 42454508 42856924 43401692 44093968 44939592 
1182.652 45942824 47106296 48429412 49908344 51533740 53288052 55144692 
1186.028 57061328 58980616 60836304 62549384 64042904 65250224 66117004 
1189.403 66612608 66730404 66489296 65929300 65107316 64093904 62960184 
1192.778 61776276 60608008 59508268 58520708 57678364 57001404 56500560 
1196.153 56177196 56023820 56023896 56151892 56375328 56650864 56928304 
1199.529 57155164 57274044 57231856 56985084 56501656 55768388 54793500 
1202.904 53607140 52256112 50799044 49301684 47822888 46414116 45114652 
1206.279 43947768 42925028 42047788 41311284 40707116 40224636 39853300 
1209.654 39580996 39395092 39284056 39237812 39249888 39318260 39444768 
1213.030 39633524 39888604 40212896 40606440 41066144 41585876 42157600 
1216.405 42770444 43410920 44064408 44714728 45345608 45944076 46499556 
1219.780 47005452 47458904 47859436 48208988 48511728 48774568 49008556 
1223.155 49227828 49451104 49698572 49989120 50339716 50761020 51256588 
1226.531 51822416 52448016 53116224 53804932 54490744 55149956 55761380 
1229.906 56310444 56789428 57198780 57546172 57846372 58120680 58394360 
1233.281 58700684 59078400 59569072 60219980 61076768 62179344 63562148 
1236.656 65248340 67250688 69571696 72205456 75137320 78341616 81783888 
1240.031 85416136 89177232 93001312 96815016 100543616 104118880 107473080 
1243.407 110542400 113271896 115611352 117521312 118975448 119957896 
1246.300 120463944 120496960 120068576 119198048 117912528 116249216 
1249.193 114248272 111949224 109386848 106585016 103559632 100323688 
1252.086 96893608 93297648 89581568 85803496 82037240 78364080 74859064 
1255.461 71593272 68622440 65979868 63678920 61709396 60041696 58627220 
1258.836 57405964 56312896 55278072 54239708 53148840 51971104 50692764 
1262.212 49318272 47868060 46371568 44863168 43377420 41942528 40581228 
1265.587 39309376 38135860 37064736 36095680 35224568 34445156 33749456 
1268.962 33130574 32583174 32104276 31693372 31350416 31075240 30866154 
1272.337 30720498 30635440 30608882 30640028 30728536 30873160 31069546 
1275.713 31309746 31581044 31866238 32146272 32399420 32603212 32737776 
1279.088 32785584 32735490 32585066 32341198 32019268 31639558 31224894 
1282.463 30794298 30361428 29934350 29517126 29113162 28728584 28373030 
1285.838 28059898 27804072 27618514 27513270 27495302 27568554 27736570 
1289.214 28003632 28373878 28850660 29434358 30121042 30900520 31756252 
1292.589 32665718 33597108 34512164 35368288 36118544 36722196 37150516 
1295.964 37391940 37455832 37371068 37182824 36940436 36693856 36487380 
1299.339 36353448 36314360 36382268 36557876 36830924 37178168 37566908 
1302.715 37953540 38290284 38534732 38650720 38616820 38426844 38088980 
1306.090 37622584 37054380 36416752 35742784 35064584 34413088 33812240 
1309.465 33279792 32826106 32454222 32163038 31949826 31813186 31753972 
1312.840 31774006 31874978 32056440 32315854 32649752 33055410 33532492 
1316.216 34082920 34709192 35411608 36186892 37026560 37918900 38851268 
1319.591 39811032 40786892 41767648 42738596 43681312 44570708 45375736 
1322.966 46065012 46608100 46982416 47179872 47210008 47103676 46908396 
1326.341 46689116 46516664 46454752 46556056 46848452 47332888 47984052 
1329.717 48758440 49606632 50479188 51340748 52171212 52965836 53731544 
1333.092 54482672 55236796 56009720 56814392 57658612 58543384 59461264 
1336.467 60395904 61324844 62219188 63048020 63783212 64399048 64876228 
1339.842 65202944 65375084 65396532 65277836 65035684 64690448 64264060 
1343.218 63780224 63260048 62721656 62178964 61640160 61108688 60585000 
1346.593 60066960 59550828 59030456 58497088 57938484 57340776 56692880 
1349.968 55989784 55238300 54457280 53681036 52953748 52323496 51841980 
1353.343 51554072 51494568 51684676 52125968 52797092 53650068 54618292 
1356.719 55618508 56559928 57363388 57962260 58311932 58394436 58216748 
1360.094 57810864 57226904 56537132 55828672 55190780 54713668 54465580 
1363.469 54479440 54748472 55226376 55839864 56494372 57093940 57548368 
1366.844 57777024 57726504 57374424 56735996 55859120 54817672 53698244 
1370.219 52577732 51521988 50577940 49771656 49118916 48629008 48310668 
1373.595 48173668 48224984 48463160 48872856 49426080 50088984 50826608 
1376.970 51613028 52433620 53284236 54169924 55102524 56099972 57184040 
1380.345 58380488 59714428 61199780 62827484 64550564 66285068 67903264 
1383.720 69251392 70180144 70548176 70256128 69268264 67633904 65498160 
1387.096 63076488 60629384 58382612 56484488 54999240 53912880 53166740 
1390.471 52680852 52377844 52187240 52045392 51901048 51708676 51433912 
1393.846 51058688 50584380 50031428 49429608 48808416 48186664 47569760 
1397.221 46956792 46348928 45757528 45209028 44739408 44383536 44166588 
1400.597 44096348 44165928 44359496 44660888 45056864 45538712 46102332 
1403.972 46745528 47465408 48256680 49110868 50017072 50964076 51941636 
1407.347 52942068 53961088 54995556 56043424 57102216 58168292 59238212 
1410.722 60309320 61380564 62450092 63513092 64557984 65566280 66514516 
1414.098 67379104 68145744 68813528 69396848 69921352 70419720 70926112 
1417.473 71469704 72075096 72758008 73520632 74350144 75217640 76084080 
1420.848 76905688 77643696 78271976 78778920 79174832 79491672 79781080 
1424.223 80097568 80483560 80957520 81510016 82113608 82734680 83348376 
1427.599 83940744 84510544 85065520 85618760 86186672 86787416 87445688 
1430.974 88189912 89046488 90035592 91162968 92419216 93783008 95231624 
1434.349 96751824 98341400 100012936 101785408 103674176 105673656 107758360 
1437.724 109891096 112030912 114138288 116167640 118066920 119763888 
1440.617 121169856 122198824 122767048 122811800 122299448 121223472 
1443.510 119608328 117506064 115001752 112202488 109222264 106184904 
1446.404 103203776 100380640 97810408 95566112 93691568 92191688 91035912 
1449.779 90171448 89544584 89122760 88900696 88896912 89135128 89624616 
1453.154 90341624 91231184 92201888 93140896 93933576 94469728 94686616 
1456.529 94602000 94337008 94069008 93956528 94099672 94527104 95229112 
1459.905 96184736 97371736 98764128 100319184 101976704 103642744 105187704 
1463.280 106471576 107354024 107741840 107623432 107077664 106244144 
1466.173 105263448 104251936 103278752 102372616 101541032 100774136 
1469.066 100045136 99300488 98455192 97395744 95992880 94150736 91851976 
1472.441 89191552 86349504 83526776 80873968 78458744 76290480 74358752 
1475.816 72662232 71221272 70064024 69202704 68620736 68268792 68082640 
1479.192 67995832 67960144 67953712 67977856 68050512 68194664 68433536 
1482.567 68786504 69274328 69925784 70776720 71867328 73231448 74882056 
1485.942 76797288 78907016 81101184 83219856 85065808 86433504 87111936 
1489.317 86931088 85809920 83782752 81007664 77716848 74165528 70557648 
1492.693 67016296 63604460 60333652 57200068 54218384 51429812 48906748 
1496.068 46736120 44987844 43692560 42835312 42374828 42259192 42442964 
1499.443 42892104 43576572 44464612 45521272 46703616 47965328 49261968 
1502.818 50539748 51736372 52774304 53539444 53887036 53654788 52707972 
1506.194 51021124 48735528 46130776 43492252 41006384 38734536 36656828 
1509.569 34730588 32926858 31238780 29682704 28283092 27056360 26006588 
1512.944 25122498 24385416 23774542 23272010 22863054 22532160 22263944 
1516.319 22045424 21869002 21736298 21654966 21632502 21668828 21753018 
1519.695 21864160 21980870 22090432 22200298 22335552 22527414 22794850 
1523.070 23134576 23526894 23946592 24376582 24811312 25261228 25744868 
1526.445 26281492 26880218 27537452 28241188 28978932 29744050 30537390 
1529.820 31365692 32236728 33155464 34123528 35139988 36202520 37309576 
1533.196 38458664 39644192 40852700 42066476 43264732 44429008 45540000 
1536.571 46579256 47531348 48376964 49099032 49682712 50118248 50402228 
1539.946 50537776 50538964 50427048 50227856 49965324 49653176 49291552 
1543.321 48868108 48368852 47787604 47138096 46453088 45776084 45143032 
1546.697 44567292 44039288 43533788 43024376 42498244 41965776 41457652 
1550.072 41014612 40666068 40420060 40263352 40173024 40129556 40125776 
1553.447 40169460 40276004 40457480 40712248 41021200 41350056 41659720 
1556.822 41907020 42050784 42063632 41948040 41755612 41573696 41491884 
1560.198 41555392 41757876 42067572 42447636 42868776 43309980 43761268 
1563.573 44221872 44698748 45202704 45743536 46324120 46938040 47570684 
1566.948 48201920 48813604 49391144 49927932 50426380 50897684 51357604 
1570.323 51817600 52283576 52753428 53220144 53672448 54096996 54478728 
1573.698 54796392 55026656 55147364 55146836 55035156 54847672 54636028 
1577.074 54441204 54278376 54131976 53968064 53746800 53434244 53012028 
1580.449 52478076 51846012 51135876 50368296 49556456 48705764 47818560 
1583.824 46899688 45958844 45009564 44063816 43126824 42197292 41270724 
1587.199 40346352 39432900 38548672 37716900 36960276 36291560 35714080 
1590.575 35222844 34810600 34469904 34192744 33968252 33776676 33589444 
1593.950 33374492 33101716 32752782 32326740 31838820 31314552 30778968 
1597.325 30252604 29746676 29266890 28818544 28409888 28051838 27755854 
1600.700 27528308 27368664 27270924 27227884 27234410 27289484 27393122 
1604.076 27541088 27719584 27905960 28068486 28174856 28199854 28128120 
1607.451 27957266 27694260 27351516 26941840 26476516 25969338 25437840 
1610.826 24905028 24398488 23941656 23547880 23216954 22935844 22684518 
1614.201 22441470 22191126 21926954 21653190 21383184 21135536 20928120 
1617.577 20773214 20675938 20635250 20644804 20693522 20766088 20845584 
1620.952 20914874 20963936 20992936 21015228 21051502 21121936 21237126 
1624.327 21393590 21578700 21777438 21980766 22186174 22396216 22614494 
1627.702 22840004 23067448 23288686 23498106 23696572 23890856 24090062 
1631.078 24299976 24519038 24736384 24934574 25094658 25199108 25238050 
1634.453 25212520 25135558 25029016 24916572 24816996 24738700 24680966 
1637.828 24637656 24600204 24558164 24500702 24419202 24309402 24174408 
1641.203 24024154 23872898 23732966 23609240 23497022 23382176 23246072 
1644.579 23069686 22842030 22565314 22257980 21949642 21672694 21452418 
1647.954 21299830 21213154 21182224 21193008 21227488 21261100 21263118 
1651.329 21193114 21010464 20697346 20288028 19872332 19545304 19355724 
1654.704 19288830 19297594 19332028 19356972 19355412 19324130 19270472 
1658.080 19204424 19134022 19060484 18978648 18879870 18756412 18605494 
1661.455 18430084 18237778 18039198 17844544 17661814 17497062 17353652 
1664.830 17232488 17131454 17043572 16957670 16858008 16728271 16556509 
1668.205 16339673 16086908 15818242 15558054 15325686 15129773 14968553 
1671.581 14833207 14711957 14592282 14462433 14310397 14125998 13905616 
1674.956 13656350 13398000 13155377 12949278 12787124 12662111 12558177 
1678.331 12456996 12346123 12221986 12092128 11969223 11864637 11779891 
1681.706 11702956 11608610 11467435 11256797 10977679 10662778 10365581 
1685.082 10131361 9973985 9878420 9815548 9759427 9691929 9605844 9502064 
1688.939 9386220 9264586 9142173 9023482 8913177 8815885 8736160 8674466 
1692.796 8625286 8575469 8507040 8401833 8251025 8063173 7866965 7699244 
1696.654 7583948 7522248 7493560 7466963 7409021 7295420 7121351 6908803 
1700.511 6700128 6534370 6428664 6373854 6348435 6329842 6301871 6255883 
1704.369 6189163 6104509 6008045 5908211 5812596 5727243 5655837 5599144 
1708.226 5555244 5520007 5488800 5457527 5424579 5391433 5361676 5338799 
1712.083 5324811 5318204 5315084 5310422 5300259 5283086 5259374 5229896 
1715.941 5194014 5149384 5093260 5026584 4956199 4894067 4851412 4834257 
1719.798 4840858 4863441 4890985 4913436 4925232 4925467 4918262 4910286 
1723.656 4907035 4911225 4921714 4935554 4950132 4964979 4980631 4997825 
1727.513 5015657 5030540 5037914 5034461 5020014 4997993 4973995 4951339 
1731.371 4928718 4897452 4843605 4754054 4624131 4465257 4303997 4171332 
1735.228 4085498 4046065 4038741 4044059 4046233 4034494 4005934 3963533 
1739.085 3915318 3870151 3834081 3809245 3794839 3788588 3788956 3794805 
1742.943 3805000 3817668 3830036 3840065 3846450 3850394 3854239 3860256 
1746.800 3869148 3879211 3886666 3887001 3876537 3854038 3820978 3780232 
1750.658 3735681 3690866 3648797 3612411 3583645 3563634 3551708 3544559 
1754.515 3536675 3521844 3494554 3453304 3402241 3349881 3306075 3277029 
1758.373 3262707 3257299 3251724 3237103 3208128 3165003 3113574 3062049 
1762.230 3018206 2986343 2966326 2955484 2950713 2949479 2950213 2950947 
1766.087 2949512 2943374 2930564 2911884 2891136 2873759 2864220 2863452 
1769.945 2867255 2868255 2857682 2830267 2787614 2738663 2695518 2667546 
1773.802 2657412 2660612 2669480 2677215 2680648 2681049 2682082 2687150 
1777.660 2696418 2706887 2713322 2711288 2699886 2682849 2666913 2658479 
1781.517 2660179 2669947 2681549 2688983 2688250 2679315 2665880 2653511 
1785.375 2646277 2645577 2650244 2658312 2668846 2682649 2701053 2724592 
1789.232 2751067 2774742 2788414 2785013 2761804 2721791 2673847 2627909 
1793.089 2592175 2569510 2557511 2552012 2549079 2547112 2545912 2546279 
1796.947 2547479 2547345 2542680 2531015 2512085 2488591 2465131 2446404 
1800.804 2434808 2430143 2429410 2429877 2430243 2431243 2434975 2443005 
1804.662 2455234 2469263 2481792 2489957 2493189 2493523 2494389 2498455 
1808.519 2506486 2516384 2524416 2527249 2523549 2514884 2504687 2496389 
1812.376 2491157 2488124 2485192 2480259 2473795 2468530 2468163 2476894 
1816.234 2496189 2524249 2557311 2591409 2623409 2652911 2681115 2709755 
1820.091 2739396 2769040 2796451 2819829 2838472 2853046 2864887 2875059 
1823.949 2883765 2890403 2895206 2899075 2904979 2915620 2932432 2953749 
1827.806 2974967 2989713 2993082 2983807 2966426 2949379 2942440 2951180 
1831.664 2975567 3010131 3047368 3080936 3107566 3128258 3146046 3165104 
1835.521 3187467 3213369 3241642 3271688 3304873 3344873 3395262 3458782 
1839.378 3534905 3619795 3707909 3793936 3874698 3949422 4019411 4086769 
1843.236 4153836 4222051 4292485 4366044 4444100 4526690 4612277 4697243 
1847.093 4775426 4840288 4886628 4912263 4918162 4908074 4885757 4853422 
1850.951 4810536 4754991 4685119 4601929 4509983 4415882 4325749 4243097 
1854.808 4166950 4093224 4017371 3936817 3852701 3769503 3692237 3624105 
1858.666 3564937 3511455 3459283 3405848 3351350 3298797 3251591 3211933 
1862.523 3178755 3149017 3119414 3088311 3056877 3028415 3006228 2991581 
1866.380 2982340 2973765 2961422 2943708 2922825 2904612 2895072 2897474 
1870.238 2910783 2929964 2949379 2965625 2977769 2987511 2996886 3006461 
1874.095 3014002 3016003 3009164 2992749 2969529 2944708 2923559 2908648 
1877.953 2898641 2889435 2876394 2857182 2832668 2806822 2784279 2767506 
1881.810 2755835 2745665 2732394 2713822 2690750 2666613 2645777 2630809 
1885.667 2621075 2613275 2603142 2587776 2567310 2544612 2523683 2508019 
1889.525 2499188 2496422 2498688 2505486 2517517 2535681 2560144 2587542 
1893.382 2613009 2630843 2637576 2633943 2625009 2618042 2620075 2633676 
1897.240 2657045 2683916 2708188 2725125 2734028 2736595 2736128 2734561 
1901.097 2732227 2727859 2720891 2712789 2707421 2708854 2720091 2739996 
1904.955 2764104 2785480 2798418 2800553 2793383 2782145 2771807 2765705 
1908.812 2764205 2765305 2766705 2768473 2772074 2780444 2795017 2813926 
1912.669 2832668 2845776 2849311 2843107 2830868 2817361 2806655 2799419 
1916.527 2792582 2780478 2759870 2730927 2698419 2668680 2646977 2633276 
1920.384 2623576 2610409 2587709 2553478 2511019 2467230 2430010 2404454 
1924.242 2391294 2388296 2391927 2400723 2415016 2436441 2464864 2497755 
1928.099 2529415 2553645 2566643 2569310 2565577 2561377 2561144 2563910 
1931.957 2565110 2558311 2539313 2509052 2473928 2442505 2422380 2415883 
1935.814 2419215 2424646 2425012 2416782 2401123 2383131 2367906 2358311 
1939.671 2353015 2349083 2343687 2337291 2332694 2334892 2346185 2365041 
1943.529 2385397 2401556 2410518 2415016 2422113 2441139 2477127 2529248 
1947.386 2589775 2646644 2690350 2715456 2723091 2718357 2706887 2690917 
1951.244 2669747 2640610 2602608 2557944 2513118 2474561 2446004 2425379 
1955.101 2405621 2377334 2335458 2281395 2224075 2176186 2148315 2144619 
1958.958 2160935 2187609 2213784 2233833 2246356 2254283 2260511 2264808 
1962.816 2262776 2250486 2225374 2190905 2154675 2126039 2110656 2108059 
1966.673 2111189 2111322 2102632 2085452 2065909 2051660 2047266 2051294 
1970.531 2057619 2058485 2050329 2035814 2024462 2024762 2042039 2074399 
1974.388 2113320 2152244 2189607 2232135 2293253 2385963 2511585 2659745 
1978.246 2807756 2930698 3010632 3041929 3032553 2998154 2954383 2910683 
1982.103 2869489 2828400 2783412 2734195 2685049 2641777 2609542 2589242 
1985.960 2577709 2569610 2561744 2554211 2550812 2555945 2570876 2591409 
1989.818 2610075 2618442 2611409 2590809 2563910 2539547 2524949 2521050 
1993.675 2523483 2526049 2523283 2513918 2500154 2486158 2473462 2460666 
1997.533 2443472 2417515 2381599 2339656 2298183 2264508 2242160 2228371 
2001.390 2216215 2197899 2169027 2131399 2092544 2060682 2044203 2045934 
2005.248 2064511 2096472 2139124 2191771 2254083 2323866 2394559 2454301 
2009.105 2493289 2504720 2491956 2466197 2443905 2440306 2461432 2502754 
2012.962 2551512 2593309 2617475 2621642 2612042 2597842 2587442 2584242 
2016.820 2586176 2589142 2591275 2594709 2603942 2624142 2656612 2697352 
2020.677 2739563 2775709 2801987 2820362 2836037 2853180 2873292 2893271 
2024.535 2907547 2912251 2909149 2903712 2904913 2918489 2943975 2973098 
2028.392 2996085 3003692 2994584 2976568 2960788 2960154 2982206 3025613 
2032.250 3083906 3150051 3219110 3291318 3370450 3458047 3550505 3639742 
2036.107 3714493 3766195 3792666 3799485 3796543 3793702 3797212 3806036 
2039.964 3816465 3822281 3820978 3814593 3807574 3803696 3803897 3805200 
2043.822 3801992 3791296 3773782 3756268 3749082 3763053 3803295 3869315 
2047.679 3954739 4048942 4140756 4220244 4278933 4310924 4312028 4282513 
2051.537 4226702 4155107 4082254 4024662 3996638 4004563 4046065 4111220 
2055.394 4185149 4254506 4311225 4353393 4383046 4403597 4416316 4420400 
2059.251 4414342 4397974 4374611 4350614 4333747 4328861 4337462 4355401 
2063.109 4376185 4394326 4406911 4414509 4420233 4427062 4435162 4443731 
2066.966 4449824 4451832 4450895 4450125 4451967 4457490 4464085 4466160 
2070.824 4458796 4439681 4411095 4379967 4354698 4341110 4341143 4352288 
2074.681 4369022 4386293 4402057 4416685 4432919 4452368 4474362 4495788 
2078.539 4512896 4523275 4528029 4530775 4536065 4546846 4562550 4579962 
2082.396 4594059 4601829 4602565 4598480 4593055 4588300 4583043 4574705 
2086.253 4559436 4535764 4506200 4476471 4453640 4441857 4441589 4447916 
2090.111 4453908 4452469 4440250 4418291 4391179 4363902 4340474 4322570 
2093.968 4308949 4299011 4293021 4292552 4300115 4317115 4342315 4372001 
2097.826 4401823 4428333 4451029 4472186 4495654 4524246 4559135 4597877 
2101.683 4637125 4673798 4706789 4736702 4765644 4794857 4823837 4851479 
2105.541 4875570 4895810 4914308 4934582 4960321 4993367 5031981 5072207 
2109.398 5108849 5138186 5159008 5173291 5184290 5193914 5202833 5208936 
2113.255 5209171 5201794 5188045 5170810 5155252 5145529 5143316 5147775 
2117.113 5156258 5165345 5173392 5179931 5185631 5191264 5197434 5203336 
2120.970 5208467 5213799 5219969 5229225 5242505 5258435 5274031 5285568 
2124.828 5289828 5286608 5279497 5273628 5273829 5282616 5298012 5314212 
2128.685 5325013 5325013 5312334 5289627 5261554 5232914 5207863 5188146 
2132.542 5174633 5168429 5172051 5188347 5219131 5264170 5318204 5374894 
2136.400 5425820 5465815 5493128 5508900 5515846 5516181 5510511 5497625 
2140.257 5477559 5452092 5425015 5402772 5390191 5388547 5394854 5403577 
2144.115 5407737 5403208 5390225 5371270 5350640 5331252 5311595 5289123 
2147.972 5259978 5222988 5179025 5131245 5081258 5028629 4970576 4901841 
2151.830 4819080 4723370 4618371 4510385 4404032 4299479 4194918 4088809 
2155.687 3986639 3903349 3863532 3895660 4018475 4234899 4521166 4836166 
2159.544 5134330 5377443 5546015 5641772 5679503 5677959 5654830 5621028 
2163.402 5581892 5540478 5499236 5461050 5428102 5401027 5375732 5347017 
2167.259 5310891 5264908 5212156 5157935 5106101 5058563 5012473 4961896 
2171.117 4901640 4831342 4754556 4680128 4617199 4571791 4543967 4530071 
2174.974 4522337 4513934 4501412 4483836 4461072 4434124 4401990 4363266 
2178.832 4319792 4276256 4240788 4222386 4226936 4253971 4296769 4342984 
2182.689 4380469 4402057 4406074 4396936 4380636 4363031 4345427 4327891 
2186.546 4309016 4288670 4270936 4261232 4263741 4280338 4308314 4340842 
2190.404 4370896 4393388 4406610 4412166 4414107 4414074 4412735 4409689 
2194.261 4404300 4397907 4394259 4397237 4409923 4433321 4463281 4493980 
2198.119 4520965 4540552 4553074 4561177 4566903 4571457 4573298 4569615 
2201.976 4558163 4539647 4517382 4496123 4481057 4474396 4475801 4482966 
2205.833 4494013 4508477 4528264 4556088 4592887 4636757 4681903 4720456 
2209.691 4745612 4753417 4744373 4722867 4696306 4670382 4650622 4640340 
2213.548 4640441 4651861 4674233 4705583 4742027 4777671 4805678 4819884 
2217.406 4818275 4802160 4777168 4749699 4725514 4707057 4693659 4682238 
2221.263 4669545 4654775 4638666 4623160 4610535 4600824 4592050 4582239 
2225.121 4569649 4554380 4539279 4527895 4522538 4524280 4531076 4540116 
2228.978 4548788 4555652 4560574 4564090 4566602 4566501 4562985 4554983 
2232.835 4543565 4532349 4526322 4529837 4545306 4571423 4603904 4636991 
2236.693 4666530 4690243 4709101 4726016 4742865 4761356 4781456 4802328 
2240.550 4823904 4847291 4873426 4903651 4937431 4971917 5003523 5029266 
2244.408 5048071 5061915 5074487 5089606 5109319 5133022 5156995 5177013 
2248.265 5190527 5196864 5197669 5196596 5196026 5197233 5199849 5203336 
2252.123 5207595 5214470 5226643 5246027 5273058 5304820 5336249 5362213 
2255.980 5378215 5382811 5377007 5363723 5345105 5322832 5297642 5269235 
2259.837 5239118 5209406 5183083 5163467 5151698 5146702 5145696 5146434 
2263.695 5147373 5149217 5154514 5165881 5184089 5207897 5233853 5257765 
2267.552 5277083 5291136 5301097 5309885 5318640 5327193 5334170 5337323 
2271.410 5335612 5330446 5324577 5321491 5323705 5331419 5342288 5353559 
2275.267 5362582 5368386 5372612 5377980 5386870 5400994 5419647 5440885 
2279.125 5462325 5482357 5500175 5516685 5533129 5550546 5569609 5591022 
2282.982 5614181 5638550 5663457 5687090 5707502 5722308 5729828 5729761 
2286.839 5723046 5711900 5699243 5687426 5677053 5667553 5657750 5646807 
2290.697 5634824 5624016 5616598 5615020 5620525 5632172 5648116 5665841 
2294.554 5683733 5701258 5718984 5737684 5757695 5778379 5798123 5814947 
2298.412 5827876 5836775 5842484 5846480 5849906 5853398 5856958 5860149 
2302.269 5863037 5865925 5869821 5875228 5882281 5890543 5898873 5906531 
2306.126 5913383 5919462 5926079 5934007 5943378 5953892 5965078 5976332 
2309.984 5987921 6000688 6015571 6032974 6052360 6072116 6090026 6104777 
2313.841 6115732 6123730 6130720 6138785 6149505 6163419 6179988 6198271 
2317.699 6217665 6237933 6259245 6282473 6308090 6336432 6367868 6401729 
2321.556 6436533 6469255 6495051 6507294 6499760 6467203 6408117 6325707 
2325.414 6227614 6123898 6025582 5941833 5876840 5830864 5800474 5780360 
2329.271 5766090 5755547 5748227 5745407 5748362 5757024 5770287 5786706 
2333.128 5804134 5822335 5841376 5861190 5881845 5902366 5920907 5936190 
2336.986 5948215 5957923 5967866 5980464 5996992 6017788 6041575 6066606 
2340.843 6091101 6114690 6136802 6157067 6174745 6188222 6195616 6196322 
2344.701 6191650 6185062 6181635 6187214 6206102 6240723 6290911 6354789 
2348.558 6429202 6510354 6593944 6675801 6751480 6816772 6869046 6907389 
2352.416 6932538 6947890 6957351 6964253 6970819 6978126 6985769 6993480 
2356.273 7001426 7010148 7019947 7030689 7040892 7048234 7051029 7048941 
2360.130 7043182 7037255 7033787 7035269 7042105 7052679 7064803 7077028 
2363.988 7089186 7102355 7118319 7137485 7158571 7179523 7197074 7209438 
2367.845 7216276 7219746 7222307 7226687 7234031 7243363 7253539 7263141 
2371.703 7271598 7279920 7289422 7301114 7315065 7330936 7347414 7364399 
2375.560 7382598 7403831 7429986 7462412 7500808 7543623 7588162 7632234 
2379.417 7674590 7715635 7756684 7799559 7845878 7896083 7949838 8006535 
2383.275 8065130 8124780 8184843 8244069 8300872 8353292 8399401 8437676 
2387.132 8468218 8491599 8509169 8522483 8532823 8540595 8546474 8550969 
2390.990 8555160 8560668 8568542 8579187 8591929 8604500 8614741 8620318 
2394.847 8620690 8616262 8609029 8601527 8595747 8593584 8596322 8604399 
2398.705 8618966 8640766 8670342 8707357 8750663 8798336 8847806 8897383 
2402.562 8946188 8994592 9044085 9096052 9152054 9212699 9278227 9348402 
2406.419 9423228 9502436 9585722 9672651 9762104 9852761 9943744 10034575 
2410.277 10125663 10218025 10312137 10407967 10504598 10599927 10691575 
2413.652 10777944 10858248 10932655 11002080 11067096 11127600 11183014 
2417.027 11232179 11273799 11307840 11334503 11354706 11369468 11379842 
2420.403 11386270 11389399 11390624 11390930 11392120 11395658 11402427 
2423.778 11412461 11425626 11441275 11460087 11483357 11512855 11550896 
2427.153 11599150 11657924 11726648 11803928 11887929 11977534 12071994 
2430.528 12170904 12274235 12382089 12494097 12610056 12730208 12854558 
2433.904 12983553 13117537 13256379 13399675 13547324 13698717 13854198 
2437.279 14014288 14179091 14348649 14522625 14699858 14879495 15061127 
2440.654 15245168 15432241 15623241 15818311 16016390 16216075 16415849 
2444.029 16614685 16813438 17013902 17218008 17427456 17642594 17861772 
2447.405 18082168 18300704 18514996 18723720 18927006 19125574 19320076 
2450.780 19511130 19698872 19883120 20064498 20243244 20419736 20594042 
2454.155 20765186 20931146 21089516 21237752 21373716 21496666 21606000 
2457.530 21701742 21784126 21852416 21905556 21942776 21963444 21966824 
2460.906 21953546 21923746 21877714 21815830 21738700 21647060 21543182 
2464.281 21430034 21311106 21190676 21072996 20961536 20859978 20771510 
2467.656 20698874 20644664 20610440 20597238 20604812 20632816 20679518 
2471.031 20744576 20827578 20928328 21046702 21181840 21331150 21491688 
2474.406 21659320 21830290 22001434 22170552 22336040 22496392 22650098 
2477.782 22794920 22928056 23047742 23151946 23239850 23311584 23367244 
2481.157 23407354 23432252 23442428 23438826 23422844 23396652 23362524 
2484.532 23323120 23280190 23234502 23186650 23136220 23082404 23025276 
2487.907 22964454 22899622 22830470 22756580 22677014 22591318 22498764 
2491.283 22398450 22290346 22174040 22049294 21916152 21774686 21625642 
2494.658 21469302 21306720 21137554 20961640 20778566 20587754 20388966 
2498.033 20183122 19971580 19756152 19538684 19320076 19100714 18880838 
2501.408 18660106 18439038 18219222 18002346 17790968 17586694 17390448 
2504.784 17202290 17021482 16847710 16680408 16520126 16367231 16222024 
2508.159 16084844 15955167 15832607 15717158 15609193 15509462 15418508 
2511.534 15336738 15263151 15196578 15135331 15077662 15023223 14971776 
2514.909 14923798 14879907 14840338 14804991 14774172 14748497 14728718 
2518.285 14716139 14711923 14716242 14728307 14747365 14771258 14798991 
2521.660 14830018 14863859 14900480 14939127 14978395 15016363 15052002 
2525.035 15084625 15114678 15144012 15173896 15204916 15236314 15266000 
2528.410 15290985 15309348 15319542 15321670 15317105 15306636 15291088 
2531.786 15270393 15244242 15211882 15173931 15131763 15087061 15042158 
2535.161 14998631 14957097 14918175 14881792 14848053 14817471 14790764 
2538.536 14768070 14749217 14733208 14719293 14706610 14695196 14685429 
2541.911 14678299 14674187 14672644 14672336 14671308 14667778 14660512 
2545.287 14649889 14636694 14622096 14607600 14593105 14578474 14563055 
2548.662 14545992 14526942 14506557 14485899 14466339 14449553 14436982 
2552.037 14429308 14427083 14429617 14435132 14441743 14446778 14447840 
2555.412 14444175 14436159 14425096 14413381 14403106 14395091 14389098 
2558.788 14383412 14375774 14364369 14347965 14326082 14299508 14268930 
2562.163 14234896 14198229 14159853 14120727 14082700 14047791 14017642 
2565.538 13993208 13974080 13958922 13945715 13933090 13920191 13907395 
2568.913 13896105 13887381 13882216 13881190 13883756 13889434 13897816 
2572.289 13908763 13922449 13939214 13958922 13980958 14004637 14028797 
2575.664 14052514 14075855 14098650 14121480 14145031 14169746 14196003 
2579.039 14224009 14253590 14284544 14316699 14349609 14383104 14416943 
2582.414 14451608 14487235 14524201 14562610 14602254 14642554 14682789 
2585.790 14722617 14762517 14803826 14847744 14896194 14950170 15009710 
2589.165 15073682 15140614 15208725 15276811 15344325 15411195 15477562 
2592.540 15543493 15608643 15672602 15735056 15795598 15854256 15911411 
2595.915 15967129 16021134 16073257 16123356 16171226 16217932 16264608 
2599.291 16312733 16363136 16416401 16471701 16528284 16584769 16640402 
2602.666 16695319 16750379 16806446 16865206 16927870 16994882 17066936 
2606.041 17143964 17225560 17311100 17400208 17491992 17585900 17681830 
2609.416 17779576 17879622 17981970 18086278 18191578 18296490 18399110 
2612.792 18498262 18593320 18684320 18772084 18857410 18940538 19021052 
2616.167 19098532 19172080 19241448 19307260 19370622 19432780 19494774 
2619.542 19556638 19617678 19677202 19734064 19788194 19840390 19891654 
2622.917 19943478 19996490 20050860 20105932 20160942 20215126 20267962 
2626.292 20319866 20371048 20421820 20472702 20523658 20574656 20625762 
2629.668 20677050 20728902 20781348 20834670 20889110 20944358 21000866 
2633.043 21058596 21117554 21177250 21237056 21295620 21351788 21404032 
2636.418 21452140 21496282 21537576 21577864 21618990 21662454 21708918 
2639.793 21758766 21811686 21866912 21924166 21982648 22041904 22101830 
2643.169 22162148 22222790 22283998 22346052 22409300 22473850 22540082 
2646.544 22607688 22677014 22747782 22820306 22894768 22971510 23050398 
2649.919 23131118 23212900 23294664 23375846 23455718 23534344 23612354 
2653.294 23690482 23769466 23849970 23932344 24016624 24102672 24190384 
2656.670 24279302 24369224 24460246 24552028 24644530 24737926 24832048 
2660.045 24926328 25020416 25113054 25203006 25289148 25371162 25449258 
2663.420 25524768 25599234 25674770 25752498 25832876 25915556 25999518 
2666.795 26083110 26165274 26245448 26323526 26399960 26475566 26551216 
2670.171 26627834 26706296 26787134 26870702 26956822 27044866 27133632 
2673.546 27222170 27309630 27395698 27480972 27566366 27652766 27740878 
2676.921 27830246 27920446 28010382 28099522 28187762 28275664 28364434 
2680.296 28455240 28548894 28645968 28747028 28852358 28962782 29079042 
2683.672 29202316 29332856 29470634 29614946 29764700 29918518 30075942 
2687.047 30236866 30401726 30570840 30744468 30922436 31104212 31289164 
2690.422 31476938 31667784 31861994 32060076 32262352 32468896 32679472 
2693.797 32893904 33112086 33334278 33560520 33791036 34025656 34263552 
2697.173 34504272 34747028 34991640 35238692 35489012 35743216 36001964 
2700.548 36265336 36532324 36802252 37073684 37345680 37617312 37887696 
2703.923 38155828 38420688 38680964 38935488 39183344 39423684 39656280 
2707.298 39880576 40096520 40303812 40502144 40691468 40871668 41042944 
2710.674 41205400 41359096 41503876 41639736 41766408 41884068 41993112 
2714.049 42093640 42186080 42269928 42344472 42408512 42460572 42499740 
2717.424 42525648 42538876 42540708 42532852 42517608 42496964 42472884 
2720.799 42447200 42421844 42398464 42379136 42365916 42360728 42365476 
2724.175 42381840 42411068 42453924 42510632 42580760 42663436 42757316 
2727.550 42861496 42974988 43097956 43230508 43373244 43526096 43688604 
2730.925 43859312 44036060 44216256 44397480 44578308 44757516 44934744 
2734.300 45109688 45281908 45450556 45614740 45773212 45924888 46069800 
2737.676 46207904 46339936 46466772 46589620 46709296 46826828 46943100 
2741.051 47058844 47174992 47292576 47412408 47536044 47664636 47799328 
2744.426 47941280 48091452 48249716 48415668 48588132 48765260 48945020 
2747.801 49125412 49304316 49480140 49651356 49815948 49972164 50117876 
2751.177 50251548 50371604 50477256 50568112 50644544 50707172 50756776 
2754.552 50794132 50819980 50834580 50838156 50830112 50809776 50775660 
2757.927 50726016 50658876 50572096 50464676 50335628 50185008 50014028 
2761.302 49824164 49617144 49395156 49160436 48915168 48661656 48402372 
2764.677 48140352 47878308 47619340 47365956 47120480 46885068 46661188 
2768.053 46450432 46254120 46073668 45910044 45764520 45637524 45529664 
2771.428 45440400 45369556 45315672 45277532 45253152 45240684 45238040 
2774.803 45243152 45253740 45267972 45283528 45298680 45310852 45317876 
2778.178 45317364 45306696 45283820 45246828 45194980 45127996 45046940 
2781.554 44953780 44851156 44742308 44630628 44518940 44409740 44304600 
2784.929 44204480 44109516 44019484 43933360 43849852 43767316 43683548 
2788.304 43596280 43503388 43403156 43294456 43177548 43053572 42924292 
2791.679 42791944 42658868 42526560 42396564 42269780 42147380 42030852 
2795.055 41922344 41824052 41738464 41667492 41611948 41571768 41546024 
2798.430 41533260 41532240 41542636 41564328 41597948 41644184 41703416 
2801.805 41775128 41858384 41951432 42052572 42160232 42273104 42390280 
2805.180 42511324 42635804 42762620 42890900 43018816 43144464 43266120 
2808.556 43381884 43490312 43590012 43679992 43759360 43827456 43883796 
2811.931 43927640 43959020 43977392 43982380 43974092 43952608 43918768 
2815.306 43874080 43821152 43763100 43704068 43648116 43599540 43562140 
2818.681 43539540 43534888 43550856 43590088 43654056 43744008 43860116 
2822.057 44001552 44166404 44352492 44557196 44777976 45012468 45258336 
2825.432 45512772 45772844 46034872 46294408 46548088 46792028 47024320 
2828.807 47243920 47451288 47647996 47836168 48017912 48195736 48371704 
2832.182 48548300 48728004 48913648 49108788 49317160 49542976 49790344 
2835.558 50063512 50366288 50702668 51076540 51492256 51955080 52470896 
2838.933 53047744 53695656 54425956 55252824 56192580 57262476 58482420 
2842.308 59873980 61458960 63261196 65303324 67604560 70177336 73021552 
2845.683 76118744 79423120 82858096 86317528 89656744 92713136 95318232 
2849.059 97305936 98548216 98964952 98536832 97306352 95372216 92875808 
2852.434 89969880 86814448 83558144 80319168 77195944 74259640 71554392 
2855.809 69106344 66923552 65000860 63322188 61864948 60603360 59508304 
2859.184 58552368 57710988 56960828 56283024 55662540 55086912 54548148 
2862.560 54040932 53563020 53114164 52695512 52309180 51957436 51643364 
2865.935 51370768 51143892 50967576 50847208 50786124 50786608 50847544 
2869.310 50964412 51128496 51328556 51550904 51779748 51999860 52197552 
2872.685 52360836 52482376 52558656 52591492 52586408 52552296 52499984 
2876.061 52439716 52381432 52333288 52301368 52290380 52303724 52343564 
2879.436 52411112 52506604 52629568 52778680 52952620 53149624 53368492 
2882.811 53606840 53862652 54132052 54410404 54692320 54972048 55244924 
2886.186 55507840 55760064 56002712 56239608 56475768 56716628 56968384 
2889.562 57237224 57528508 57848340 58202768 58598588 59044044 59549572 
2892.937 60127120 60791900 61560852 62450436 63476352 64648496 65968180 
2896.312 67423328 68987176 70615224 72244432 73802712 75211064 76392160 
2899.687 77287384 77858936 78099496 78031320 77704840 77189808 76560840 
2903.063 75896632 75266624 74725736 74319512 74080208 74030624 74188296 
2906.438 74565832 75173872 76022176 77120240 78478312 80107976 82019992 
2909.813 84224080 86723856 89513800 92573120 95860112 99314896 102850464 
2913.188 106357912 109719656 112804992 115489432 117671904 119276224 
2916.081 120267048 120649776 120468928 119796240 118717552 117327120 
2918.974 115708480 113930672 112048496 110096448 108094808 106053120 
2921.867 103973880 101858296 99709736 97536408 95353312 93181504 91044448 
2925.243 88967304 86972944 85078064 83294024 81625680 80072032 78627792 
2928.618 77284376 76031776 74858304 73752168 72701680 71695536 70723808 
2931.993 69777872 68850560 67936088 67029984 66128812 65230048 64332724 
2935.368 63437128 62544832 61659024 60783324 59921332 59076348 58251528 
2938.744 57449420 56673512 55927896 55217980 54550024 53930588 53365152 
2942.119 52857968 52410332 52020704 51684232 51393296 51137628 50904836 
2945.494 50682484 50458904 50224988 49976816 49715812 49449956 49191604 
2948.869 48956628 48761180 48618260 48536444 48518620 48561748 48657176 
2952.245 48793324 48956480 49131828 49304692 49462320 49592408 49685496 
2955.620 49734352 49733908 49682004 49578852 49427044 49230796 48995872 
2958.995 48729860 48439820 48133984 47819632 47502888 47188808 46881340 
2962.370 46582944 46295700 46021244 45760952 45516268 45288492 45078404 
2965.746 44886276 44711972 44554660 44413520 44288056 44177736 44082960 
2969.121 44004708 43944360 43903960 43885516 43891384 43923204 43981904 
2972.496 44066752 44175608 44304308 44446336 44593176 44735220 44860924 
2975.871 44958444 45017136 45027060 44981632 44877936 44717628 44506532 
2979.247 44254556 43974936 43681388 43388180 43108164 42851040 42623816 
2982.622 42429772 42268428 42135912 42025340 41928368 41834776 41734892 
2985.997 41620884 41486852 41330340 41151848 40954312 40742524 40521128 
2989.372 40293924 40062800 39827480 39585900 39335020 39072068 38796016 
2992.748 38507936 38211508 37913044 37619296 37336872 37070288 36821220 
2996.123 36587940 36366056 36149940 35933360 35712136 35483908 35249224 
2999.498 35010564 34771936 34537384 34310380 34093244 33886676 33690088 
3002.873 33502284 33321970 33147882 32979262 32816100 32658432 32506678 
3006.249 32361220 32222204 32089580 31963308 31843204 31729270 31621278 
3009.624 31518978 31421580 31328548 31238672 31150666 31064064 30978262 
3012.999 30893546 30810624 30730064 30652652 30578770 30508632 30442346 
3016.374 30380192 30322664 30270296 30223866 30183230 30148140 30117738 
3019.750 30090890 30066424 30043840 30022928 30003828 29986678 29971520 
3023.125 29957992 29945816 29934884 29925724 29919796 29919584 29927676 
3026.500 29946598 29978122 30022146 30077326 30140574 30207562 30273280 
3029.875 30332506 30380654 30414092 30430510 30429446 30411782 30380118 
3033.250 30337160 30286780 30232214 30176234 30121290 30069088 30020586 
3036.626 29976454 29936800 29901196 29869038 29839758 29812784 29787768 
3040.001 29764986 29744512 29726558 29711230 29698420 29687954 29679938 
3043.376 29674652 29672452 29673694 29678482 29686110 29695726 29706226 
3046.751 29717154 29728792 29742204 29759094 29780846 29808172 29840538 
3050.127 29876314 29913584 29950644 29986892 30022502 30058222 30094796 
3053.502 30132370 30170088 30206780 30241200 30273066 30303088 30333144 
3056.877 30365054 30400588 30440640 30484818 30531844 30580652 30630322 
3060.252 30681028 30733266 30788358 30847156 30910730 30979438 31053386 
3063.628 31132618 31216562 31304762 31396218 31489584 31583216 31675876 
3067.003 31766306 31853866 31938344 32019910 32098606 32174136 32246362 
3070.378 32314640 32378964 32439298 32496106 32549996 32601602 32651536 
3073.753 32700658 32749712 32799378 32850624 32903980 32959636 33017046 
3077.129 33075362 33133328 33190082 33245452 33299680 33353564 33408236 
3080.504 33463918 33520754 33578132 33635484 33692340 33748528 33804504 
3083.879 33860812 33917804 33975380 34033468 34091988 34151164 34211532 
3087.254 34274344 34340752 34411436 34486444 34565008 34645564 34726924 
3090.630 34807868 34887860 34967216 35046520 35126844 35208976 35293964 
3094.005 35382168 35474272 35570388 35670372 35773944 35879988 35987784 
3097.380 36095824 36203060 36308236 36410448 36509436 36605060 36698148 
3100.755 36789592 36881384 36975072 37072384 37173980 37279680 37388944 
3104.131 37500152 37612252 37724384 37836540 37949164 38062576 38176668 
3107.506 38290792 38403676 38514020 38621168 38725336 38827540 38929360 
3110.881 39032336 39137508 39245212 39355372 39467664 39581760 39697776 
3114.256 39815748 39935316 40055536 40175164 40292580 40406604 40517240 
3117.632 40625064 40731756 40838652 40946812 41056456 41166784 41276556 
3121.007 41384936 41491592 41596632 41701228 41806612 41913556 42022528 
3124.382 42133468 42246076 42360140 42475332 42591760 42709608 42828548 
3127.757 42948436 43068720 43188488 43306976 43423260 43536900 43647420 
3131.133 43755404 43861652 43967820 44075848 44187240 44303244 44424052 
3134.508 44549080 44676864 44806188 44936176 45066460 45196964 45327992 
3137.883 45459460 45590672 45720784 45848508 45973576 46095884 46216604 
3141.258 46336912 46457732 46579624 46702176 46824836 46946900 47067968 
3144.634 47188696 47310200 47433624 47559960 47689888 47823148 47959148 
3148.009 48097820 48238352 48380740 48524884 48670036 48815496 48960264 
3151.384 49103004 49242672 49378672 49510816 49639100 49764000 49886340 
3154.759 50007000 50127100 50247532 50369224 50492552 50616992 50742032 
3158.135 50866504 50989600 51111128 51231608 51352232 51474384 51599404 
3161.510 51728012 51859604 51993512 52128100 52262092 52394776 52525636 
3164.885 52654480 52781860 52908304 53034004 53159660 53285660 53411952 
3168.260 53538468 53664836 53790076 53913556 54034816 54153256 54268988 
3171.635 54382844 54495292 54607024 54718176 54828988 54939072 55048244 
3175.011 55156244 55262648 55367120 55469172 55568276 55664272 55757240 
3178.386 55847816 55936904 56025404 56114000 56203104 56292452 56381932 
3181.761 56470940 56559588 56648068 56736944 56826512 56916780 57007372 
3185.136 57097756 57187252 57275704 57363196 57449984 57536264 57621988 
3188.512 57706784 57790500 57872832 57954272 58035760 58118408 58202808 
3191.887 58288968 58376016 58462024 58545240 58624416 58698712 58769116 
3195.262 58836832 58903616 58971056 59040172 59111464 59184972 59260540 
3198.637 59337684 59415824 59494360 59572340 59648472 59721844 59791040 
3202.013 59855460 59915172 59970708 60023508 60075484 60128604 60184508 
3205.388 60244264 60308104 60374844 60442852 60509732 60573036 60631400 
3208.763 60684476 60733056 60778716 60823228 60867940 60913648 60960388 
3212.138 61007672 61055604 61104612 61155532 61209776 61268264 61331068 
3215.514 61397164 61464912 61531720 61595672 61655548 61711040 61763024 
3218.889 61813332 61863760 61916260 61972320 62032396 62096424 62163252 
3222.264 62231616 62299760 62366584 62431384 62494056 62555468 62616280 
3225.639 62677332 62738888 62801024 62863172 62925404 62987684 63050360 
3229.015 63114188 63179216 63245408 63312100 63378228 63443376 63507496 
3232.390 63571280 63635880 63702172 63770936 63841700 63913904 63986308 
3235.765 64058112 64129540 64201056 64273892 64348900 64426140 64505048 
3239.140 64584628 64663568 64740748 64815408 64887308 64956220 65021752 
3242.516 65084144 65143428 65200636 65257432 65315888 65378428 65446996 
3245.891 65522164 65603548 65689452 65777996 65867336 65956264 66043936 
3249.266 66130584 66216364 66301048 66384352 66465856 66544748 66620724 
3252.641 66693312 66762976 66829628 66893636 66955208 67014480 67071624 
3256.017 67126920 67180288 67232040 67282456 67331352 67379488 67427352 
3259.392 67475576 67525008 67576296 67629448 67684048 67739032 67792752 
3262.767 67843416 67889592 67929888 67964016 67991960 68014864 68034040 
3266.142 68051288 68067952 68085240 68103608 68122712 68141792 68160040 
3269.518 68176752 68191448 68204472 68216376 68228008 68239792 68252008 
3272.893 68264880 68277712 68290584 68302952 68314704 68325368 68334640 
3276.268 68342432 68348832 68354608 68361240 68370360 68383544 68401848 
3279.643 68425048 68451736 68480480 68509536 68537976 68565904 68594656 
3283.019 68625856 68661056 68701264 68746288 68795824 68849128 68905544 
3286.394 68964848 69027256 69092440 69160000 69229440 69300248 69372152 
3289.769 69445248 69520440 69599040 69682312 69771024 69865968 69967552 
3293.144 70076016 70191592 70314840 70446064 70584736 70730440 70881408 
3296.520 71036144 71193472 71352656 71513488 71676776 71842816 72012248 
3299.895 72184912 72361016 72540320 72723384 72911184 73104592 73305312 
3303.270 73514312 73732576 73960176 74196976 74442088 74694144 74951112 
3306.645 75211336 75472872 75734952 75997552 76262160 76530568 76804800 
3310.021 77085736 77373104 77665496 77960904 78258136 78556960 78859056 
3313.396 79166480 79481336 79804816 80136104 80472920 80812536 81152472 
3316.771 81491544 81829808 82168376 82508088 82849632 83192480 83535768 
3320.146 83878440 84220144 84560736 84900392 85238904 85575656 85909040 
3323.521 86238032 86561896 86880784 87195280 87506976 87816280 88123592 
3326.897 88427584 88727024 89020088 89305544 89582336 89849168 90104784 
3330.272 90347008 90573928 90783864 90976168 91151152 91309848 91452968 
3333.647 91580520 91691368 91783408 91855120 91906104 91936888 91949864 
3337.022 91947496 91931768 91902864 91859752 91799992 91720952 91620896 
3340.398 91498744 91354088 91186992 90997008 90783864 90547232 90287240 
3343.773 90004568 89700416 89375504 89030096 88663176 88273672 87860856 
3347.148 87425152 86968696 86494928 86007944 85511584 85007856 84497984 
3350.523 83981632 83459072 82930072 82395800 81857648 81316704 80774072 
3353.899 80230200 79685696 79141632 78599840 78063008 77534008 77015024 
3357.274 76507736 76012160 75527592 75053184 74588376 74133104 73687816 
3360.649 73253248 72830104 72418472 72018584 71630504 71254296 70890152 
3364.024 70538664 70199928 69873592 69559328 69256216 68963872 68681584 
3367.400 68409024 68145936 67891184 67643272 67400696 67161688 66924788 
3370.775 66689292 66454424 66219492 65983416 65744424 65500356 65249496 
3374.150 64990580 64723060 64447320 64163992 63873412 63575388 63269168 
3377.525 62953860 62628448 62292192 61944576 61585172 61213052 60827536 
3380.901 60427700 60013012 59583476 59140244 58685056 58219704 57746104 
3384.276 57266144 56780856 56291620 55800600 55309312 54820040 54334400 
3387.651 53853428 53377032 52904564 52435076 51967632 51502144 51038748 
3391.026 50578760 50123048 49673164 49229756 48793620 48364964 47943348 
3394.402 47528356 47118632 46712432 46308416 45905552 45503352 45102628 
3397.777 44704552 44310436 43921004 43535764 43153356 42771904 42389624 
3401.152 42005776 41620884 41236476 40854596 40477084 40104952 39738588 
3404.527 39377356 39020664 38667852 38318800 37974080 37633788 37297948 
3407.903 36966448 36638372 36313172 35990300 35669364 35350536 35034380 
3411.278 34721288 34411868 34106900 33806512 33511878 33223276 32941188 
3414.653 32666184 32398206 32137100 31882140 31632644 31387456 31145540 
3418.028 30905998 30668226 30431826 30197474 29966124 29739330 29518402 
3421.404 29304144 29096048 28893332 28693822 28496244 28299216 28102774 
3424.779 27907444 27714180 27523648 27335846 27149998 26965320 26780792 
3428.154 26596588 26414046 26234186 26058902 25889108 25724266 25563740 
3431.529 25405800 25249708 25094694 24941522 24790544 24642146 24496460 
3434.905 24352646 24209404 24066248 23922644 23779056 23636180 23494748 
3438.280 23354692 23215976 23077302 22938010 22798274 22658442 22520574 
3441.655 22386344 22257526 22134360 22016632 21902456 21789284 21674400 
3445.030 21555508 21430766 21299796 21163646 21023992 20883514 20745130 
3448.406 20610926 20481940 20357992 20238000 20120438 20003880 19887664 
3451.781 19772138 19658238 19546552 19437250 19329846 19223126 19115360 
3455.156 19005682 18893746 18780112 18665570 18551096 18437310 18323758 
3458.531 18209788 18094708 17977792 17859390 17739708 17619646 17499994 
3461.906 17381516 17264966 17151446 17041606 16936414 16835998 16739808 
3465.282 16646564 16554305 16461033 16365716 16267911 16168131 16067583 
3468.657 15967645 15868794 15771270 15675075 15579244 15483915 15389430 
3472.032 15296065 15204641 15115227 15027511 14941082 14855596 14771326 
3475.407 14688444 14608457 14531739 14458631 14388892 14321595 14255131 
3478.783 14188540 14120864 14051556 13980958 13909311 13837403 13766361 
3482.158 13697246 13631663 13570330 13513551 13460471 13410097 13359660 
3485.533 13307556 13252519 13195098 13137003 13081032 13029848 12985021 
3488.908 12946957 12914664 12886164 12859405 12833159 12806677 12780640 
3492.284 12756311 12734679 12716766 12702947 12693600 12688277 12686810 
3495.659 12688994 12694896 12704893 12719530 12739831 12766787 12800808 
3499.034 12841965 12889133 12940334 12992975 13044701 13094350 13142194 
3502.409 13190215 13241691 13300996 13371449 13455105 13552247 13661444 
3505.785 13780111 13904351 14031330 14158415 14284372 14409510 14535782 
3509.160 14666065 14803551 14950684 15107919 15273962 15445837 15619600 
3512.535 15792161 15961766 16128171 16293056 16458280 16624909 16792326 
3515.910 16958394 17119906 17273620 17417626 17551224 17674720 17788998 
3519.286 17893536 17987082 18067384 18130840 18175064 18198144 18199870 
3522.661 18181352 18144038 18089802 18019926 17935386 17835844 17720690 
3526.036 17588972 17439908 17272518 17087476 16885842 16670080 16442759 
3529.411 16206995 15964825 15717981 15467056 15212534 14955452 14696877 
3532.787 14438489 14181864 13927820 13676490 13427082 13178977 12931732 
3536.162 12685821 12442709 12204197 11971777 11746665 11528439 11316853 
3539.537 11110910 10910026 10714193 10523506 10337518 10155781 9977003 
3542.912 9799619 9622307 9445001 9267970 9092804 8921328 8755126 8595375 
3546.770 8442744 8297495 8159587 8028912 7905194 7787313 7673983 7562942 
3550.627 7452435 7341652 7230730 7121014 7015064 6914627 6820205 6731389 
3554.485 6645855 6560708 6474468 6385824 6295483 6205094 6116640 6031697 
3558.342 5950936 5874389 5801112 5730466 5661812 5594881 5529269 5464741 
3562.199 5399887 5333835 5264908 5191197 5111465 5024338 4928885 4825445 
3566.057 4715599 4602130 4489862 4383983 4288905 4207330 4139552 4083324 
3569.914 4034761 3990351 3946413 3900942 3852567 3801624 3748314 3693239 
3573.772 3636467 3578199 3518470 3457980 3397566 3338462 3281636 3227322 
3577.629 3175450 3125154 3075430 3025946 2976368 2927228 2879095 2832735 
3581.487 2788214 2745631 2704587 2664313 2624109 2583109 2540313 2494389 
3585.344 2443538 2386696 2323300 2254783 2183879 2114951 2052692 2000861 
3589.201 1960952 1932562 1912892 1898582 1885437 1869730 1848600 1820450 
3593.059 1784749 1742730 1696990 1650557 1607420 1571138 1544469 1528741 
3596.916 1524086 1528908 1541111 1557604 1576160 1594450 1611644 1627774 
3600.774 1643905 1661599 1681822 1705073 1730488 1755971 1778428 1793865 
3604.631 1798423 1787910 1760196 1713024 1646732 1562792 1465702 1361023 
3608.489 1255871 1157355 1070122 996522 935154 882161 832727 782435 728300 
3612.828 670520 611687 555416 506085 466180 436661 415799 401107 388803 
3617.168 375338 357961 335213 306598 273806 238929 205181 174784 149791 
3621.507 130534 117210 108991 105312 105644 109952 117476 127253 136633 
3625.847 140975 134909 112073 67631 1093 -81369 -167394 -241546 -290720 
3630.187 -310255 -303997 -281548 -253335 -228101 -211807 -206309 -210085 
3634.044 -219523 -230386 -239393 -245222 -248136 -249791 -251547 -254030 
3637.901 -257441 -260918 -264064 -266812 -269230 -272640 -277243 -283468 
3641.759 -290753 -298203 -304560 -309063 -311646 -312540 -312639 -313368 
3645.616 -315785 -321215 -331114 -346874 -370545 -403385 -445887 -496560 
3649.474 -551695 -605367 -650596 -681959 -696448 -694067 -678254 -653805 
3653.331 -626543 -601992 -584223 -576083 -577705 -586837 -599213 -609503 
3657.188 -613440 -608974 -596533 -578433 -558578 -540841 -528001 -521250 
3661.046 -519959 -522110 -524592 -524757 -520885 -512711 -500697 -485705 
3664.903 -467931 -446417 -419837 -386833 -347106 -301050 -248897 -188889 
3668.761 -114496 -13982 129241 332130 604951 949067 1357699 1819951 2323699 
3673.100 2855348 3398134 3920467 4372871 4693860 4821056 4720221 4399480 
3676.958 3902814 3289448 2617675 1939484 1296081 722027 243968 -125791 
3680.815 -389448 -562615 -667667 -728073 -762705 -782649 -793100 -796209 
3684.673 -794092 -790454 -791116 -801765 -827562 -870023 -927656 -994538 
3688.530 -1063062 -1126850 -1180517 -1221754 -1249838 -1264870 -1267645 
3691.905 -1259452 -1242668 -1220531 -1196906 -1175197 -1157385 -1144365 
3695.281 -1135541 -1129989 -1126751 -1125264 -1125462 -1127775 -1132699 
3698.656 -1140730 -1152362 -1168422 -1189538 -1215212 -1244452 -1274055 
3702.031 -1299657 -1317100 -1322682 -1315646 -1297279 -1270949 -1240587 
3705.406 -1210255 -1182367 -1158145 -1137756 -1121232 -1108673 -1101600 
3708.781 -1101501 -1109929 -1127280 -1152924 -1184019 -1216963 -1247162 
3712.157 -1271313 -1286840 -1293050 -1290242 -1280596 -1266819 -1251853 
3715.532 -1238935 -1230642 -1227932 -1230741 -1236787 -1243659 -1248252 
3718.907 -1249210 -1246897 -1243329 -1241214 -1242867 -1248549 -1257007 
3722.282 -1265696 -1271973 -1274154 -1272403 -1268438 -1264342 -1261699 
3725.658 -1260410 -1258263 -1252679 -1240124 -1219342 -1191091 -1158410 
3729.033 -1125726 -1097766 -1078663 -1070763 -1073705 -1085141 -1100113 
3732.408 -1114424 -1125032 -1132633 -1140333 -1153023 -1174271 -1204308 
3735.783 -1239166 -1271742 -1293876 -1300516 -1290837 -1267910 -1236159 
3739.159 -1200640 -1164688 -1130320 -1098394 -1071028 -1051560 -1045841 
3742.534 -1061046 -1102360 -1169348 -1250829 -1327736 -1377844 -1388414 
3745.909 -1360768 -1307553 -1245146 -1189174 -1151801 -1139573 -1153188 
3749.284 -1187720 -1234772 -1285056 -1330775 -1367770 -1393269 -1405092 
3752.660 -1401691 -1382501 -1348844 -1305438 -1258560 -1215509 -1181905 
3756.035 -1161813 -1155568 -1160789 -1173181 -1188414 -1202557 -1213956 
3759.410 -1221324 -1223968 -1220862 -1210619 -1192776 -1168158 -1139243 
3762.785 -1110325 -1085372 -1067723 -1058798 -1057608 -1061410 -1066896 
3766.161 -1071325 -1073870 -1075622 -1078365 -1084149 -1093635 -1106525 
3769.536 -1120967 -1134484 -1145323 -1152098 -1155204 -1155369 -1154114 
3772.911 -1152627 -1151734 -1151734 -1151933 -1151437 -1149223 -1144398 
3776.286 -1137194 -1128800 -1121430 -1117365 -1118290 -1124371 -1133526 
3779.662 -1142283 -1146943 -1145125 -1136500 -1123281 -1108772 -1096907 
3783.037 -1090495 -1090661 -1096544 -1106393 -1117464 -1127313 -1134616 
3786.412 -1138780 -1139970 -1138384 -1134451 -1128767 -1122157 -1115812 
3789.787 -1110986 -1108475 -1108210 -1109664 -1111052 -1111218 -1108937 
3793.163 -1104145 -1097733 -1091156 -1085604 -1081605 -1078663 -1075259 
3796.538 -1069276 -1059757 -1046502 -1031892 -1019132 -1012786 -1017480 
3799.913 -1036487 -1070168 -1114291 -1160359 -1197699 -1216368 -1212866 
3803.288 -1189174 -1152627 -1111978 -1077341 -1056352 -1053113 -1067425 
3806.664 -1093404 -1122719 -1145687 -1156890 -1155204 -1143440 -1125924 
3810.039 -1106723 -1088083 -1070830 -1054303 -1037875 -1022736 -1010538 
3813.414 -1005182 -1010042 -1027661 -1057046 -1093338 -1127379 -1149719 
3816.789 -1153288 -1137194 -1105897 -1068185 -1034966 -1016223 -1019132 
3820.165 -1046403 -1093172 -1148595 -1197798 -1229089 -1236523 -1222282 
3823.540 -1193007 -1157617 -1123842 -1096544 -1077704 -1066632 -1060815 
3826.915 -1057509 -1054501 -1051857 -1050006 -1050072 -1052650 -1057443 
3830.290 -1063558 -1069309 -1073110 -1073771 -1070102 -1061310 -1047362 
3833.666 -1027958 -1004819 -980190 -957908 -942369 -937310 -944683 -963429 
3837.523 -989744 -1017612 -1041114 -1056716 -1063327 -1062566 -1057179 
3840.898 -1049841 -1042536 -1036024 -1030371 -1025578 -1021380 -1017480 
3844.273 -1013017 -1007563 -1000158 -990240 -977909 -963859 -948717 -933839 
3848.131 -918861 -903453 -886887 -869196 -851802 -839335 -838309 -856696 
3851.988 -901337 -973512 -1066235 -1162838 -1243759 -1294438 -1310856 
3855.364 -1298666 -1267910 -1229188 -1189240 -1152561 -1120505 -1093338 
3858.739 -1070466 -1051626 -1036619 -1025678 -1018571 -1014571 -1012918 
3862.114 -1013083 -1014637 -1018075 -1023760 -1031099 -1038173 -1041908 
3865.489 -1039429 -1029314 -1012158 -991860 -973810 -964057 -966999 -984224 
3869.347 -1012984 -1046238 -1074697 -1092247 -1095750 -1087455 -1072317 
3872.722 -1055856 -1042536 -1034371 -1030999 -1030371 -1030008 -1027694 
3876.097 -1022736 -1015959 -1009050 -1004158 -1002505 -1004819 -1011000 
3879.472 -1019794 -1029049 -1036520 -1039693 -1036949 -1028223 -1014835 
3882.848 -999497 -986207 -979298 -981480 -993877 -1013645 -1034735 -1049708 
3886.705 -1052088 -1039627 -1014009 -980752 -946865 -919125 -902891 -899948 
3890.563 -908975 -924912 -941741 -954205 -959164 -956420 -947791 -935657 
3894.420 -921175 -905338 -888176 -869427 -849818 -830802 -814168 -802361 
3898.277 -796507 -796672 -801832 -810034 -819591 -829612 -840393 -853191 
3902.135 -869560 -890227 -914662 -940815 -965776 -985744 -997844 -1000620 
3905.992 -993976 -979496 -959726 -937409 -915588 -896278 -880670 -869196 
3909.850 -861028 -854844 -849322 -843171 -836094 -827760 -818897 -809934 
3913.707 -801997 -795878 -792373 -792306 -795945 -802923 -812117 -821774 
3917.564 -829777 -834473 -835300 -832456 -827264 -820947 -814498 -808446 
3921.422 -802592 -796408 -789925 -783641 -778978 -776861 -777787 -781094 
3925.279 -784733 -786221 -783575 -776199 -765185 -752947 -742462 -736144 
3929.137 -735118 -739253 -746695 -756089 -765549 -774645 -783013 -790554 
3932.994 -796771 -800839 -801468 -798194 -791248 -781458 -770411 -759860 
3936.852 -750301 -741866 -733928 -725691 -716859 -708324 -701576 -698301 
3940.709 -700385 -708589 -722185 -739716 -759000 -777688 -794489 -808016 
3944.566 -818037 -824321 -827165 -826999 -824056 -818930 -812316 -804808 
3948.424 -796771 -788536 -780334 -772263 -764325 -756387 -748647 -740808 
3952.281 -732571 -723739 -714279 -704785 -695787 -688476 -683514 -680834 
3956.139 -679378 -677823 -674284 -667799 -658768 -648280 -638652 -632101 
3959.996 -630348 -633756 -641431 -651158 -660521 -667336 -670049 -667766 
3963.854 -660885 -649835 -635807 -619925 -603911 -588988 -576447 -567414 
3967.711 -561921 -559770 -560134 -561821 -563840 -565296 -565858 -565197 
3971.568 -563542 -561060 -558016 -554475 -550868 -546897 -542065 -536042 
3975.426 -528365 -518403 -506390 -493019 -479516 -467667 -458664 -453401 
3979.283 -451415 -451779 -452871 -453533 -453070 -451746 -450389 -450223 
3983.141 -452143 -456744 -463695 -472002 -480906 -489643 -497653 -504470 
3986.998 -510262 -514267 -516517 -516583 -514300 -510361 -505298 -499936 
3990.855 -495733 -493218 -493152 -495336 -499407 -504239 -508309 -510494 
3994.713 -509898 -506191 -499837 -491927 -484017 -477795 -474385 -474286 
3998.570 -477397 -482726 -489709 -497454 -505761 
##END=
