
##TITLE=Z326a_1_b
##JCAMP-DX=5.01  $$ Nicolet v. 1
##DATATYPE=INFRARED SPECTRUM
##ORIGIN=UniL
##OWNER=Nicolet
##LONGDATE=2011/09/15
##TIME=15:17:36
##SPECTROMETER/DATA SYSTEM=Nicolet iS5
##DATA PROCESSING=
Ratio against background
%Transmittance->Absorbance
Truncated
ElementMultiply or ElementDivide
##COMMENTS=
Number of sample scans: 32
Collection length: 51.17 sec
Sample gain: 2.0
Background collected on: Jeu Sep 15 15:11:05 2011 (GMT+02:00);
Number of background scans: 32
Background gain: 2.0
Sample spacing:  1.000
Number of scan points: 12415
Resolution points: 8192
Number of FFT points: 65536
Apodization: N-B fort;
Phase correction: Mertz;
Laser frequency: 15798.0 cm-1
Number of rejected sample scans: 0
Number of rejected background scans: 0
Bench serial number: ASB1000141;
##RESOLUTION=4.000
##XUNITS=1/CM
##YUNITS=ABSORBANCE
##FIRSTX=649.893372
##LASTX=4000.122314
##FIRSTY=0.108526
##MAXX=4000.122314
##MINX=649.893372
##MAXY=0.263085
##MINY=-0.003378
##XFACTOR=1.000000
##YFACTOR=1.000000E-009
##NPOINTS=6950
##DELTAX=0.482117
##ZPD=6100
##XYDATA=(X++(Y..Y))
649.893 108525744 107732200 106994832 106354784 105825536 105400432 
652.786 105065096 104812840 104652384 104609080 104709384 104968040 
655.679 105377168 105908576 106524288 107192880 107901616 108655088 
658.571 109467712 110350424 111302912 112316888 113384760 114512240 
661.464 115723144 117048304 118516352 120132760 121875832 123702168 
664.357 125564800 127428712 129263696 131040288 132702144 134138840 
667.250 135200288 135747472 135738736 135264624 134495872 133588256 
670.142 132617832 131593656 130485248 129260392 127911288 126466736 
673.035 124978944 123510536 122105320 120777752 119519136 118313248 
675.928 117151264 116040032 114997736 114041120 113173760 112381432 
678.820 111635608 110904632 110167840 109418048 108660616 107904840 
681.713 107155136 106407096 105652144 104883032 104102424 103323464 
684.606 102566344 101848152 101174768 100538648 99922296 99308688 98686768 
687.981 98056472 97427296 96811112 96214096 95634528 95063368 94490936 
691.355 93912760 93332232 92759696 92208608 91690304 91211568 90776880 
694.730 90391600 90065432 89813752 89654224 89600904 89660824 89830784 
698.105 90099968 90453208 90877224 91363408 91907648 92507272 93157608 
701.480 93847656 94563056 95287240 96005568 96710176 97397856 98068304 
704.855 98719792 99346888 99940560 100493208 101001480 101470464 101910912 
708.229 102337344 102761968 103192472 103634800 104097456 104596136 
711.122 105157400 105812136 106587560 107495960 108523656 109630128 
714.015 110748368 111804968 112730208 113472872 114011776 114353680 
716.908 114532128 114597136 114614424 114658952 114802776 115117184 
719.800 115655328 116440448 117455864 118637520 119879328 121033984 
722.693 121945184 122473416 122513704 122028296 121051800 119692912 
725.586 118105096 116463800 114934696 113631288 112613048 111881832 
728.478 111399552 111106920 110946344 110877344 110875120 110928120 
731.371 111029128 111167648 111328512 111496944 111662224 111822936 
734.264 111985936 112161864 112357392 112572120 112796656 113019120 
737.156 113229664 113425544 113611616 113796344 113986584 114182848 
740.049 114380320 114571032 114750648 114921272 115091136 115270448 
742.942 115465872 115676992 115896088 116112712 116318856 116513624 
745.835 116702848 116894968 117095376 117302120 117506928 117698016 
748.727 117866240 118009568 118132888 118245376 118353360 118457984 
751.620 118554840 118637080 118700608 118747992 118787024 118828360 
754.513 118879328 118940856 119008176 119075032 119138632 119203280 
757.405 119278536 119374960 119498240 119645376 119805368 119962872 
760.298 120105936 120229336 120336240 120433776 120529008 120624624 
763.191 120719856 120812888 120908120 121018960 121170696 121395952 
766.083 121726352 122187104 122787096 123513088 124323416 125149696 
768.976 125903872 126482160 126794008 126782464 126445096 125844640 
771.869 125102104 124374592 123800728 123468928 123384312 123468352 
774.762 123574744 123532072 123204216 122510808 121449328 120076528 
777.654 118480352 116740992 114904048 112978080 110941120 108762672 
780.547 106420392 103915032 101270992 98533672 95756288 92994128 90299728 
783.922 87715872 85277008 83009048 80926856 79037640 77340552 75830304 
787.297 74499112 73338960 72343592 71508176 70829024 70302760 69926064 
790.671 69695776 69610392 69671856 69885544 70260616 70807536 71534432 
794.046 72443296 73525656 74760888 76114520 77538328 78978536 80377456 
797.421 81681896 82856448 83890096 84807776 85666824 86559144 87591928 
800.796 88858048 90417424 92261512 94300648 96347552 98144192 99409992 
804.171 99870664 99343760 97776960 95268472 92043608 88407104 84685264 
807.546 81127312 77880776 74970712 72322576 69804672 67282600 64672524 
810.920 61954320 59175744 56422452 53795928 51381360 49228828 47358084 
814.295 45760108 44410364 43276152 42325260 41528048 40856048 40285668 
817.670 39797264 39376740 39016748 38715372 38472744 38289344 38162160 
821.045 38085904 38054112 38061672 38107140 38192260 38322020 38501780 
824.420 38735768 39026244 39373072 39774500 40225908 40719272 41242564 
827.794 41777972 42305424 42806568 43269308 43694980 44101556 44526100 
831.169 45017904 45636824 46444644 47490468 48803188 50375216 52155072 
834.544 54033652 55846912 57403696 58490264 58921680 58584560 57454184 
837.919 55611884 53220896 50507660 47702536 45003280 42563800 40467848 
841.294 38741928 37369156 36307264 35503180 34903516 34464096 34147148 
844.669 33923036 33770696 33675336 33628216 33624960 33662836 33738176 
848.043 33844656 33973804 34116504 34266204 34420224 34579936 34749576 
851.418 34934072 35136940 35359556 35602720 35867680 36157324 36476928 
854.793 36832188 37228488 37669416 38157600 38695632 39288624 39944436 
858.168 40674952 41494764 42419320 43465848 44653504 46003048 47538224 
861.543 49280524 51241076 53409704 55745108 58169280 60561456 62780692 
864.917 64680560 66128544 67041584 67394968 67233520 66659584 65826580 
868.292 64916200 64099052 63533232 63340164 63593528 64328880 65541884 
871.667 67197504 69228736 71541464 74019304 76509584 78841376 80836768 
875.042 82315088 83134536 83208816 82520824 81127904 79150024 76754424 
878.417 74114120 71398144 68749320 66262372 63992068 61951644 60124188 
881.792 58475444 56968044 55574636 54282548 53095744 52030452 51108664 
885.166 50349428 49762812 49348788 49098404 48997760 49032516 49192052 
888.541 49470116 49864264 50373056 50995152 51728344 52570960 53523440 
891.916 54590828 55782820 57113628 58600032 60258348 62102732 64140796 
895.291 66368908 68764032 71274904 73819400 76270216 78471248 80253352 
898.666 81446616 81924584 81622040 80548768 78787544 76481648 73817824 
902.040 70982768 68157216 65494768 63101584 61048092 59367008 58061592 
905.415 57116920 56506980 56204988 56184776 56425432 56912628 57636668 
908.790 58591956 59776252 61188680 62828704 64694636 66778972 69065288 
912.165 71522008 74096360 76719912 79307848 81769608 84029760 86035168 
915.540 87769240 89254544 90551848 91748336 92935928 94203176 95607776 
918.914 97161528 98819328 100476296 101983776 103154488 103811632 103823664 
922.289 103134232 101792864 99958744 97897536 95923000 94373528 93564176 
925.664 93713520 94929560 97172560 100266208 103894872 107645760 111096768 
929.039 113828728 115515192 115969136 115135192 113087432 109982936 
931.932 106036288 101470928 96497936 91324888 86133456 81087088 76337048 
935.306 72002544 68175360 64918936 62262248 60210884 58752536 57864544 
938.681 57516024 57665576 58259296 59215920 60424080 61753472 63048632 
942.056 64157696 64957412 65358788 65329476 64891576 64117484 63110092 
945.431 61983056 60850708 59802220 58899556 58177460 57643744 57288444 
948.806 57090348 57024904 57066620 57191296 57377832 57605796 57856592 
952.181 58115564 58371888 58621268 58865328 59110552 59365636 59638700 
955.555 59935104 60257740 60606636 60981016 61380564 61804964 62253948 
958.930 62726936 63221680 63735364 64265212 64810024 65369844 65946580 
962.305 66542128 67157432 67791816 68443544 69111008 69794096 70494344 
965.680 71214784 71958200 72726000 73517184 74329856 75161624 76011880 
969.055 76882752 77777912 78701944 79657952 80647664 81671264 82728752 
972.429 83821456 84952408 86126152 87347064 88617752 89939472 91311928 
975.804 92735488 94212144 95746000 97342256 99006488 100742968 102555936 
979.179 104451312 106439192 108535056 110760936 113140440 115695936 
982.072 118444408 121393416 124539760 127866808 131344752 134922768 
984.964 138522576 142042128 145344544 148268704 150657328 152360880 
987.857 153270944 153339472 152582432 151082176 148971088 146430336 
990.750 143658608 140851232 138198880 135852512 133921120 132473184 
993.643 131531792 131088224 131111888 131564944 132408288 133606912 
996.535 135132496 136958368 139057136 141401520 143961808 146707408 
999.428 149609376 152632080 155730208 158845200 161894896 164781728 
1002.321 167404912 169664848 171488624 172838176 173716208 174165712 
1005.213 174265584 174127456 173874608 173640432 173556288 173729056 
1008.106 174242464 175147088 176459856 178171568 180255248 182679216 
1010.999 185409280 188414192 191665872 195131552 198774624 202557456 
1013.891 206439520 210384416 214357376 218313200 222189008 225889904 
1016.784 229276896 232187904 234448288 235899824 236444928 236062272 
1019.677 234827072 232895856 230507488 227954032 225526304 223516112 
1022.570 222166864 221641888 222031872 223339344 225496816 228375840 
1025.462 231817792 235657648 239721648 243850240 247893312 251696944 
1028.355 255120464 258035008 260333808 261951472 262863600 263085312 
1031.249 262656800 261633552 260074384 258032448 255560304 252706144 
1034.142 249509824 246001344 242194176 238086448 233667312 228930144 
1037.035 223885680 218571536 213052192 207410448 201743808 196144512 
1039.928 190696912 185477520 180543328 175934896 171668416 167728256 
1042.821 164064016 160590784 157208816 153811552 150312848 146669568 
1045.714 142886736 139022000 135167712 131445360 127979088 124875920 
1048.607 122226264 120087800 118486312 117420336 116864744 116778280 
1051.500 117107776 117799392 118800216 120058704 121528968 123160920 
1054.393 124893848 126658040 128363904 129907520 131186408 132099080 
1057.286 132562744 132526368 131970464 130916416 129421856 127586424 
1060.179 125539448 123426752 121411736 119645776 118258992 117359464 
1063.072 117016288 117264408 118105536 119511816 121425528 123758912 
1065.965 126404808 129229560 132080256 134809360 137271200 139343664 
1068.858 140942944 142016992 142547824 142542432 142025632 141032208 
1071.751 139601568 137779600 135613424 133152368 130452008 127572296 
1074.645 124582232 121567232 118620360 115845256 113351976 111237456 
1077.538 109587360 108465720 107905488 107909856 108445648 109447544 
1080.431 110809512 112390184 114030864 115549696 116774680 117572208 
1083.324 117856504 117617336 116917568 115892200 114717936 113589144 
1086.217 112705936 112232784 112294960 112970600 114279952 116189424 
1089.110 118609648 121413616 124433976 127479536 130370048 132931992 
1092.003 135024640 136553712 137461856 137732352 137380160 136447360 
1094.896 134994880 133093880 130827384 128277792 125523968 122645384 
1097.789 119712904 116791376 113938976 111197088 108587984 106109640 
1100.682 103735928 101420240 99106168 96746072 94309832 91799128 89247912 
1104.057 86722240 84309040 82097280 80177032 78621960 77482992 76792704 
1107.433 76561552 76783448 77437840 78494232 79913888 81647152 83640288 
1110.808 85830384 88142424 90496056 92798592 94945800 96838240 98378424 
1114.183 99485976 100111144 100233864 99867584 99051264 97845944 96323648 
1117.558 94556312 92617744 90571320 88467344 86345136 84228864 82131992 
1120.934 80061992 78024784 76029872 74093888 72238872 70491816 68882056 
1124.309 67434208 66169100 65101624 64240700 63593068 63164576 62960528 
1127.684 62986992 63247472 63741156 64459152 65382936 66483656 67719016 
1131.059 69036584 70375808 71666032 72839000 73834792 74609384 75147360 
1134.435 75464120 75607920 75647000 75663248 75738192 75932904 76284712 
1137.810 76798000 77445368 78168632 78887264 79514440 79956904 80132800 
1141.185 79981440 79461240 78556400 77271984 75630944 73668264 71427600 
1144.560 68962048 66327372 63582784 60790492 58007016 55285152 52671348 
1147.936 50200476 47899248 45784808 43865028 42141828 40611676 39268496 
1151.311 38103884 37108472 36272428 35585564 35038584 34624032 34336232 
1154.686 34171916 34129332 34207516 34405448 34722044 35156628 35709800 
1158.061 36383748 37182428 38110212 39170472 40364276 41689260 43138536 
1161.437 44700440 46358884 48089900 49861696 51636236 53365344 54996156 
1164.812 56476792 57754468 58783984 59530156 59967168 60082712 59877860 
1168.187 59367536 58577392 57542844 56306256 54909668 53396176 51806996 
1171.562 50177716 48542148 46930580 45368596 43879396 42482716 41193088 
1174.938 40022180 38977060 38061272 37276572 36622508 36098812 35704976 
1178.313 35440440 35304172 35294932 35411608 35654040 36023748 36524284 
1181.688 37161092 37940340 38867036 39944580 41172904 42548380 44061104 
1185.063 45693140 47417472 49192016 50961244 52661212 54217336 55557428 
1188.438 56620360 57357524 57743192 57774756 57473512 56880032 56049568 
1191.814 55049220 53945444 52803040 51682960 50633708 49695936 48900368 
1195.189 48266232 47803620 47513348 47387872 47410856 47557264 47796108 
1198.564 48086196 48380516 48630232 48781572 48784908 48599064 48192700 
1201.939 47552124 46682804 45610768 44377628 43037036 41649836 40272040 
1205.315 38953428 37733416 36636640 35676560 34856192 34171416 33613644 
1208.690 33171806 32834324 32588958 32423806 32328740 32295472 32318994 
1212.065 32397744 32532960 32727096 32982692 33301148 33681708 34121344 
1215.440 34614560 35154036 35729836 36328732 36936504 37537140 38114696 
1218.816 38656552 39152520 39596460 39985448 40319264 40599708 40830824 
1222.191 41019964 41178224 41320028 41463996 41629452 41834192 42093492 
1225.566 42416472 42805984 43258400 43764784 44311428 44880876 45454640 
1228.941 46014096 46542224 47027348 47463264 47850484 48195848 48512320 
1232.317 48818572 49136540 49494624 49925552 50464228 51150192 52021484 
1235.692 53111320 54448488 56052016 57931820 60089600 62519120 65206712 
1239.067 68129152 71255384 74543168 77939096 81386352 84822888 88186184 
1242.442 91420256 94469728 97282592 99813496 102019144 103863640 105320328 
1245.818 106369424 106999104 107203864 106984144 106347792 105310608 
1248.711 103898328 102142624 100076800 97733136 95136736 92307360 89264072 
1252.086 86028912 82635280 79131696 75576720 72042008 68604248 65333136 
1255.461 62293072 59532816 57080372 54944940 53114728 51561272 50239608 
1258.836 49095096 48069208 47098728 46127644 45110716 44015524 42828368 
1262.212 41552040 40204936 38813948 37411476 36030728 34698464 33437044 
1265.587 32261782 31181388 30199818 29316656 28528018 27827032 27205552 
1268.962 26655736 26171116 25747820 25384370 25080722 24837064 24652912 
1272.337 24526680 24456356 24439672 24475356 24562090 24697732 24878184 
1275.713 25096412 25341938 25600500 25855840 26088774 26278854 26406968 
1279.088 26455704 26413166 26275546 26047892 25743954 25382228 24984302 
1282.463 24568964 24150062 23736814 23334414 22947302 22581788 22246994 
1285.838 21954730 21717940 21547292 21451026 21434700 21501542 21655106 
1289.214 21899598 22239914 22679806 23220450 23858580 24584918 25383810 
1292.589 26233940 27105170 27961154 28761684 29462300 30024846 30421840 
1295.964 30642268 30694966 30607282 30421910 30185788 29946456 29746072 
1299.339 29615372 29575716 29638218 29803452 30061488 30390424 30759370 
1302.715 31126816 31447652 31681470 31793650 31763594 31585570 31267904 
1306.090 30829264 30295768 29698954 29070292 28440064 27837030 27283310 
1309.465 26795418 26382532 26047222 25788184 25602328 25487380 25442934 
1312.840 25469952 25569186 25739874 25979644 26285612 26655702 27089900 
1316.216 27590022 28158594 28796132 29499252 30260490 31069046 31913734 
1319.591 32783474 33669212 34561996 35450324 36318864 37145756 37902664 
1322.966 38559824 39087220 39461056 39670804 39722068 39641216 39470528 
1326.341 39269512 39103576 39032264 39105316 39349892 39768832 40341260 
1329.717 41030416 41793224 42587084 43380636 44155656 44906080 45635204 
1333.092 46352360 47069480 47797996 48548040 49326624 50136176 50972084 
1336.467 51822044 52667532 53483112 54240456 54912528 55474328 55906488 
1339.842 56196880 56341036 56341980 56209740 55960080 55612676 55189312 
1343.218 54713932 54208664 53692808 53181532 52683616 52202748 51738204 
1346.593 51287124 50844716 50404276 49957336 49492172 48995500 48455784 
1349.968 47866580 47230656 46563024 45892332 45257452 44702164 44275032 
1353.343 44018936 43968152 44144984 44552976 45174208 45965880 46866652 
1356.719 47799364 48678780 49429832 49988896 50312784 50383996 50208700 
1360.094 49817584 49258628 48600732 47926404 47319808 46865208 46626288 
1363.469 46633040 46878168 47316668 47877492 48469384 48999840 49382344 
1366.844 49541600 49430276 49031740 48367000 47486732 46465772 45388316 
1370.219 44327536 43344280 42480376 41757656 41187184 40773936 40521716 
1373.595 40435480 40518148 40766328 41165580 41691744 42315176 43006304 
1376.970 43742540 44511160 45307652 46135788 47004788 47929772 48929484 
1380.345 50026668 51243876 52594224 54070576 55632520 57206568 58679596 
1383.720 59913764 60773644 61129060 60885932 60006924 58532008 56589140 
1387.096 54373488 52124100 50051136 48294932 46918584 45912144 45222668 
1390.471 44776068 44500472 44329664 44203928 44074712 43899192 43643356 
1393.846 43289440 42837652 42306996 41726796 41126860 40526840 39933320 
1397.221 39345612 38763484 38195516 37664212 37201956 36841528 36608412 
1400.597 36511996 36547928 36702872 36961180 37309432 37737032 38237560 
1403.972 38806488 39439540 40131628 40876324 41666288 42494188 43353764 
1407.347 44239956 45149944 46080816 47029784 47993452 48967272 49947260 
1410.722 50930472 51915352 52899700 53877996 54838160 55761496 56625720 
1414.098 57408804 58098560 58695752 59216452 59686144 60136672 60599668 
1417.473 61100912 61660320 62288712 62984892 63735328 64514160 65287768 
1420.848 66018828 66673876 67229456 67674440 68016872 68284304 68523336 
1424.223 68784216 69107280 69511456 69989744 70517000 71060456 71594248 
1427.599 72102056 72579792 73033632 73477232 73929728 74413096 74954968 
1430.974 75586184 76333648 77217128 78241352 79396392 80659232 82004464 
1434.349 83413128 84874240 86389848 87968936 89621152 91344920 93126896 
1437.724 94945840 96774768 98584472 100336800 101986632 103470608 104710904 
1441.100 105631400 106156808 106227008 105805448 104877632 103456528 
1443.993 101582352 99327776 96789336 94073288 91296520 88566760 85979592 
1447.368 83622888 81562064 79835272 78444496 77360312 76534008 75916640 
1450.743 75479216 75218392 75153544 75309024 75696496 76296640 77059264 
1454.118 77899248 78709408 79379048 79800744 79912176 79728288 79365008 
1457.494 78994272 78772088 78799736 79108712 79691864 80529824 81600488 
1460.869 82876896 84317136 85862928 87425832 88886176 90115584 90986256 
1464.244 91412688 91383768 90969592 90296464 89493120 88667528 87884832 
1467.619 87173008 86539376 85973856 85451312 84922432 84310496 83514160 
1470.995 82417192 80931368 79035416 76806072 74396664 71982648 69700408 
1474.370 67614888 65740524 64072320 62611804 61378236 60397272 59680212 
1477.745 59212388 58949192 58831560 58796884 58798248 58812132 58836796 
1481.120 58887680 58987448 59160784 59429844 59817808 60354132 61073832 
1484.496 62015888 63213708 64682520 66406012 68323544 70336728 72299960 
1487.871 74031096 75339096 76026056 75930848 74972608 73175720 70678856 
1491.246 67691208 64446508 61134856 57873704 54726036 51706212 48813272 
1494.621 46061988 43490168 41164016 39163256 37552820 36362456 35580672 
1497.997 35170676 35085600 35282680 35729224 36396320 37253900 38269764 
1501.372 39405364 40618808 41870020 43109372 44277596 45299928 46065452 
1504.747 46432476 46241444 45358816 43756944 41569504 39067136 36529404 
1508.122 34142956 31973508 30005388 28197484 26519376 24960260 23530532 
1511.498 22249050 21127918 20169030 19361996 18689370 18133088 17677136 
1514.873 17307928 17010768 16770905 16575854 16419049 16303549 16238466 
1518.248 16233031 16288551 16394654 16529316 16668497 16793910 16906854 
1521.623 17028168 17189294 17414040 17705644 18050942 18428078 18820178 
1524.999 19219800 19633070 20075186 20563226 21106526 21703624 22345354 
1528.374 23021502 23726946 24462596 25235136 26052008 26917478 27832086 
1531.749 28792450 29792450 30826382 31888988 32975222 34076756 35184112 
1535.124 36284676 37365832 38411748 39404748 40328644 41162156 41883960 
1538.500 42473764 42914636 43195264 43313456 43281864 43123972 42871444 
1541.875 42554520 42192364 41788844 41334060 40813316 40218712 39560492 
1545.250 38867612 38181296 37536492 36947000 36404680 35884128 35358336 
1548.625 34812428 34254084 33712612 33228926 32835290 32542746 32341410 
1552.000 32208964 32124504 32077200 32070850 32118548 32233122 32416556 
1555.376 32656002 32923498 33185146 33399720 33523652 33520504 33376210 
1558.751 33122096 32833078 32600996 32486788 32502926 32630858 32839436 
1562.126 33099786 33388018 33689980 34000712 34323864 34669428 35048636 
1565.501 35468088 35925840 36410952 36905732 37392952 37857076 38289272 
1568.877 38688680 39062608 39423288 39781508 40144456 40514256 40888124 
1572.252 41260084 41621028 41959024 42254988 42485968 42628348 42665484 
1575.627 42600204 42458416 42284828 42117988 41975884 41849588 41712752 
1579.002 41532204 41278964 40936652 40503452 39990244 39414000 38791812 
1582.378 38134232 37445248 36726344 35980872 35216304 34443972 33673760 
1585.753 32910664 32154262 31401668 30653184 29916602 29206924 28542456 
1589.128 27940304 27409534 26951534 26562102 26235980 25968740 25755486 
1592.503 25588268 25450944 25318686 25163820 24960086 24692260 24360180 
1595.879 23978104 23568206 23152050 22746000 22358436 21992686 21652876 
1599.254 21346290 21083708 20876768 20732376 20651092 20627396 20653978 
1602.629 20724800 20836928 20988798 21175542 21384506 21595344 21779494 
1606.004 21907822 21957134 21913398 21774512 21547674 21245756 20882158 
1609.380 20468950 20019112 19548630 19077792 18631052 18229690 17886838 
1612.755 17604050 17371412 17171162 16983510 16792568 16588418 16370293 
1616.130 16146533 15932033 15744712 15599336 15505994 15468086 15482610 
1619.505 15541089 15630042 15733717 15835047 15922099 15991570 16051149 
1622.881 16116135 16203074 16322538 16474249 16650524 16840820 17038782 
1626.256 17242246 17453082 17672890 17899924 18127906 18349266 18558220 
1629.631 18755306 18946250 19139842 19342352 19554316 19768220 19970330 
1633.006 20144628 20274488 20347956 20360388 20317262 20233004 20127936 
1636.382 20022580 19930364 19856724 19799742 19752546 19705146 19646694 
1639.757 19568146 19465248 19340966 19204320 19068688 18945660 18839554 
1643.132 18746760 18654712 18546150 18402878 18212482 17972750 17695702 
1646.507 17404932 17129488 16897174 16725069 16619848 16578607 16591791 
1649.883 16643913 16711777 16764326 16758954 16649146 16405733 16046576 
1653.258 15648179 15303856 15073099 14956343 14918415 14915568 14914368 
1656.633 14896571 14856453 14798718 14731872 14663494 14595847 14525572 
1660.008 14445169 14347075 14225994 14080168 13912424 13728296 13536385 
1663.384 13345754 13166682 13007895 12874763 12768219 12683126 12608487 
1666.759 12528233 12425047 12284936 12101362 11879620 11634883 11388685 
1670.134 11159658 10959092 10789220 10646105 10521299 10404302 10283162 
1673.509 10144114 9974290 9767187 9527735 9275247 9035593 8832454 8675852 
1677.367 8560701 8471327 8388693 8298576 8195512 8085012 7978995 7889268 
1681.224 7818889 7757932 7683190 7565437 7380306 7124348 6824109 6529459 
1685.082 6286507 6113212 6000721 5924601 5861123 5792650 5710691 5613778 
1688.939 5504604 5386971 5264472 5141572 5024607 4921010 4838814 4781188 
1692.796 4744707 4716670 4677716 4606483 4487887 4324812 4141459 3974701 
1696.654 3853303 3785747 3757471 3740627 3700791 3608635 3451434 3242544 
1700.511 3020608 2827766 2690084 2607342 2563510 2537247 2511219 2473628 
1704.369 2418182 2344020 2254916 2157938 2060915 1971037 1892925 1828602 
1708.226 1776897 1734647 1697922 1663162 1629271 1597410 1570673 1551752 
1712.083 1541976 1539714 1541078 1542075 1539282 1531767 1519697 1503006 
1715.941 1479334 1444060 1392368 1323532 1243908 1166392 1104734 1067431 
1719.798 1055607 1063279 1080452 1097359 1107557 1108919 1104269 1098389 
1723.656 1096396 1100681 1111012 1125330 1142372 1161774 1184665 1211312 
1727.513 1240120 1266936 1286643 1295416 1293090 1283519 1272918 1265740 
1731.371 1260623 1248992 1215133 1142305 1020533 857360 677921 517596 402698 
1735.710 340154 320988 327852 343404 353816 350799 332163 300563 261771 
1740.050 221889 185988 156553 134975 121751 116945 119796 128479 140908 
1744.389 154432 168055 181811 196827 214065 232298 249106 260014 260710 
1748.729 247847 220828 181148 132324 78534 24321 -25943 -68482 -100053 
1753.069 -119067 -126354 -125427 -122744 -125062 -139074 -167195 -206409 
1756.926 -249063 -285223 -308765 -318632 -320155 -321380 -331611 -356243 
1760.783 -395771 -444960 -495634 -539848 -572675 -593455 -604209 -608477 
1764.641 -608775 -607518 -606691 -608676 -615690 -628363 -644905 -660256 
1768.498 -668229 -663995 -646990 -622738 -600503 -592231 -606856 -645799 
1772.356 -701510 -760025 -808380 -838971 -852298 -853621 -849818 -845221 
1776.213 -840889 -834837 -825015 -810827 -795052 -782252 -776861 -780697 
1780.071 -791810 -804808 -814333 -817342 -814631 -810364 -809901 -816648 
1783.928 -831166 -850148 -868700 -882291 -889268 -889400 -884175 -874421 
1787.785 -859606 -838607 -811092 -779044 -747357 -723673 -715304 -726849 
1791.643 -757909 -802295 -851174 -896112 -932020 -958635 -977909 -992224 
1795.500 -1002736 -1009248 -1010967 -1008158 -1002802 -998042 -997315 
1798.875 -1002802 -1014207 -1029347 -1044651 -1057179 -1065806 -1070730 
1802.251 -1072747 -1072515 -1069474 -1062831 -1051725 -1036751 -1019430 
1805.626 -1002406 -987397 -975099 -964884 -955329 -945609 -936781 -931161 
1809.483 -931425 -939327 -954469 -973578 -992323 -1007199 -1016389 -1020984 
1813.341 -1023463 -1026140 -1030272 -1034569 -1036057 -1032189 -1021083 
1816.716 -1003100 -980422 -955494 -930268 -905734 -881398 -856861 -832059 
1820.573 -807619 -784269 -762043 -740477 -718347 -694993 -671008 -648048 
1824.431 -628528 -613474 -601893 -590676 -576083 -556096 -531641 -507548 
1828.288 -490735 -487327 -499572 -523864 -551861 -572940 -579458 -569167 
1832.146 -545011 -513174 -479350 -447344 -417652 -388422 -357038 -322373 
1836.003 -284759 -246049 -207800 -170341 -131754 -89287 -40222 16898 81417 
1840.343 151316 224143 297645 370165 440276 506616 568222 625026 678850 
1844.682 733544 793622 861709 937445 1016382 1090948 1152837 1195828 1217558 
1849.022 1220084 1208653 1188951 1164265 1134366 1095831 1045044 980149 
1852.879 903045 818651 732714 649979 571739 496631 421337 344366 265551 
1857.219 187280 112471 42910 -22099 -84781 -147520 -211178 -273667 -331280 
1861.559 -380146 -418579 -447443 -470149 -490107 -508938 -525386 -536440 
1865.416 -539352 -533660 -522573 -512347 -509501 -517973 -537267 -562615 
1869.273 -586970 -604209 -611985 -611554 -605731 -597029 -586473 -573932 
1873.131 -558777 -542694 -529060 -522639 -527604 -545441 -574131 -608411 
1876.988 -642523 -672663 -697639 -718976 -739518 -760488 -781061 -798194 
1880.846 -808711 -811125 -807256 -800939 -796606 -797697 -803518 -811687 
1884.703 -818004 -819492 -815887 -809637 -804411 -803584 -808611 -818765 
1888.561 -832059 -846213 -859375 -871180 -881001 -887647 -889995 -886556 
1892.418 -877066 -863376 -849123 -837946 -832125 -830769 -830571 -826669 
1896.275 -815424 -795779 -770411 -743851 -720001 -701212 -687053 -675574 
1900.133 -664954 -655261 -648214 -646824 -652548 -664557 -678783 -689898 
1903.990 -694000 -689931 -680007 -668726 -660786 -658205 -660157 -664094 
1907.848 -667038 -667336 -666145 -665120 -665748 -667799 -668957 -665947 
1911.705 -657113 -643086 -627171 -613110 -603613 -598650 -595937 -592496 
1915.563 -586705 -580087 -576315 -580186 -593621 -614499 -637097 -655195 
1919.420 -664590 -666509 -666211 -670909 -685962 -712426 -745902 -779044 
1923.277 -804709 -819294 -824056 -822436 -819128 -815590 -810563 -800939 
1927.135 -784766 -762804 -739154 -719141 -706637 -700947 -698499 -693140 
1930.992 -680007 -658801 -634153 -612481 -600040 -598849 -606591 -617609 
1934.850 -627039 -632234 -634880 -639115 -648214 -662473 -678088 -689568 
1938.707 -692479 -686094 -673754 -661811 -655724 -657113 -663466 -668428 
1942.564 -665848 -652812 -631109 -604474 -577142 -550868 -523831 -492754 
1946.422 -455619 -413216 -369850 -330485 -299130 -275455 -256149 -235949 
1950.279 -211906 -184981 -160306 -144937 -143844 -157556 -182463 -212271 
1954.137 -240917 -266084 -289627 -315288 -346377 -382827 -421227 -457207 
1957.994 -486863 -510262 -530714 -551960 -575521 -598650 -614466 -616518 
1961.852 -601264 -571583 -534785 -499671 -471605 -451514 -435560 -419108 
1965.709 -400273 -383456 -376107 -385542 -413614 -453500 -493052 -519065 
1969.566 -523500 -508045 -482362 -460219 -452309 -461775 -483289 -507052 
1973.424 -523831 -527901 -519826 -502154 -474584 -433475 -371108 -281283 
1977.281 -166301 -38731 81550 173789 224242 231502 204385 159072 110946 
1981.621 68394 33102 1060 -32867 -70039 -107572 -139902 -161299 -169613 
1985.960 -167857 -161034 -153747 -148713 -145202 -140399 -134370 -129733 
1989.818 -131025 -143910 -170507 -207965 -249692 -287144 -314096 -329492 
1993.675 -337206 -342239 -348231 -355051 -358461 -353297 -336710 -310619 
1997.533 -281481 -256712 -241612 -237307 -240519 -244758 -245851 -242738 
2001.390 -238400 -238201 -245288 -259925 -278336 -294958 -304660 -305289 
2005.248 -298203 -285256 -268567 -245785 -213761 -170341 -116119 -56986 
2009.105 -1921 41021 66571 75751 74359 70581 70084 76446 89239 106505 127651 
2014.409 153205 185192 223844 265915 305802 335678 350301 350036 341248 
2018.749 332726 333290 347483 373713 405816 437291 463162 482069 495901 
2023.088 506351 512123 510763 498190 473179 440143 406612 382502 375571 
2027.428 385354 405617 426180 437125 434571 422432 409000 404589 416130 
2031.767 444687 486448 536804 591314 648785 710544 775863 841060 900090 
2036.107 945149 971216 978456 972080 960125 950495 946377 947838 951159 
2040.447 952786 951923 950993 953815 963080 977393 991640 1000142 998547 
2044.786 986658 969622 955575 952852 965106 992968 1031892 1076001 1119882 
2049.126 1158451 1188319 1206128 1208587 1193934 1162870 1120679 1075968 
2052.983 1039929 1021895 1025847 1049728 1084969 1122307 1153036 1174631 
2056.841 1188585 1199882 1212043 1225965 1238658 1245503 1243875 1234272 
2060.698 1221811 1213638 1215133 1228590 1250820 1275610 1297111 1311535 
2064.555 1319212 1322569 1325327 1329216 1332971 1334932 1332772 1326424 
2068.413 1318215 1310837 1305885 1302761 1298175 1288604 1272154 1250421 
2072.270 1228224 1212076 1206560 1212674 1227294 1244805 1259293 1268033 
2076.128 1271290 1272486 1275543 1282821 1294552 1309175 1324795 1340649 
2079.985 1357799 1377543 1400678 1426241 1451141 1471554 1485119 1491469 
2083.843 1492766 1492234 1492234 1493231 1493430 1489607 1479633 1463176 
2087.700 1442564 1421122 1401542 1384556 1368867 1352082 1331841 1308145 
2091.557 1283419 1261354 1245437 1237595 1237561 1243576 1253412 1265508 
2095.415 1278800 1292990 1306450 1316885 1321638 1319212 1310837 1300966 
2099.272 1295915 1301930 1322668 1356868 1400811 1447683 1491934 1530803 
2103.130 1564986 1596645 1629005 1663096 1698753 1734114 1767981 1799987 
2106.987 1831230 1862309 1893624 1922378 1944876 1957590 1958788 1950135 
2110.844 1936189 1923110 1915988 1917019 1925739 1938885 1953763 1968940 
2114.702 1984851 2002825 2024629 2049430 2074865 2097038 2112787 2120412 
2118.559 2121244 2117681 2113553 2111788 2113686 2119846 2130500 2145817 
2122.417 2166230 2192204 2223309 2257447 2292221 2324832 2354014 2380499 
2126.274 2405654 2430810 2456167 2479393 2496788 2504987 2502487 2490623 
2130.132 2473961 2457867 2446937 2443072 2445504 2451535 2459633 2468896 
2133.989 2481426 2499554 2525349 2558711 2597608 2637843 2676715 2712889 
2137.846 2746765 2779811 2813492 2847176 2879329 2907781 2931298 2949879 
2141.704 2965025 2977402 2986343 2989179 2981939 2962256 2930331 2889602 
2145.561 2846676 2808356 2778777 2758636 2744098 2730160 2711888 2687583 
2149.419 2656778 2621642 2583576 2542446 2497688 2447503 2392394 2333260 
2153.276 2272302 2209788 2144186 2072101 1991075 1904140 1821415 1760662 
2157.134 1744793 1791736 1907335 2081790 2288856 2496355 2673314 2800386 
2160.991 2871257 2891737 2873058 2828633 2770840 2708521 2647711 2593709 
2164.848 2547979 2510352 2477294 2443505 2403888 2355980 2300914 2243858 
2168.706 2191338 2147249 2111688 2080191 2044869 1999397 1941947 1875820 
2172.563 1809569 1752844 1713190 1692466 1688209 1694163 1703044 1710296 
2176.421 1712059 1705972 1689007 1657541 1608750 1542375 1463142 1380867 
2180.278 1307148 1253412 1225865 1223606 1238492 1260257 1279697 1290863 
2184.135 1293023 1288869 1281093 1271788 1260656 1247630 1233275 1221446 
2187.993 1216861 1224536 1246633 1280561 1321405 1361555 1394695 1418396 
2191.850 1433422 1442763 1449844 1456593 1462744 1467265 1469592 1470124 
2195.708 1471687 1477771 1490338 1510121 1533895 1558269 1578255 1591623 
2199.565 1597576 1597876 1594916 1591357 1589362 1589628 1592621 1597975 
2203.423 1604926 1611544 1616699 1618661 1617032 1613473 1611411 1614571 
2207.280 1627175 1650257 1681689 1716583 1748086 1770077 1778960 1774468 
2211.137 1759131 1738206 1716350 1698421 1687444 1685315 1692533 1708666 
2214.995 1731453 1757302 1781954 1800619 1809736 1808738 1799422 1785681 
2218.852 1771774 1761061 1754241 1750182 1745957 1738705 1727494 1711826 
2222.710 1692799 1671577 1648827 1625013 1600536 1576592 1555443 1539149 
2226.567 1529174 1525250 1525915 1527943 1528808 1527677 1525649 1524452 
2230.425 1526347 1531501 1538351 1544004 1546032 1543671 1539482 1537719 
2234.282 1542940 1558103 1583210 1615868 1652120 1688009 1721440 1752178 
2238.139 1780291 1806309 1829300 1848001 1861211 1869431 1874123 1879048 
2241.997 1887500 1900912 1918916 1938519 1956991 1971603 1982620 1991940 
2245.854 2002659 2017272 2035981 2057686 2079592 2099435 2116549 2131299 
2249.712 2144585 2157871 2170825 2182580 2192570 2200396 2207723 2216881 
2253.569 2230003 2247389 2267239 2285659 2297883 2300781 2294019 2279596 
2257.427 2261777 2244491 2230236 2219779 2211786 2204859 2198431 2192737 
2261.284 2189340 2189607 2193736 2200463 2208522 2215882 2221810 2227172 
2265.141 2233234 2241460 2252018 2263276 2272402 2276699 2274034 2264342 
2268.999 2249320 2231802 2215682 2203860 2198465 2200796 2210521 2226340 
2272.856 2246189 2267906 2288657 2306511 2320568 2330828 2338090 2343853 
2276.714 2348517 2352581 2355446 2356646 2356146 2355280 2356113 2360643 
2280.571 2370338 2384664 2402289 2420114 2435808 2448003 2457400 2465597 
2284.428 2474528 2485558 2498688 2513085 2526949 2538747 2547812 2553945 
2288.286 2557478 2558544 2556778 2551678 2543046 2531648 2519417 2508952 
2292.143 2502954 2503087 2509919 2522150 2538247 2556344 2575643 2595875 
2296.001 2618209 2643210 2671280 2701786 2733428 2764138 2792282 2816927 
2299.858 2837438 2854447 2869123 2883065 2898375 2916554 2938570 2964391 
2303.716 2993049 3022443 3050337 3075097 3095987 3113974 3131261 3150218 
2307.573 3172914 3200084 3231261 3265011 3299832 3334388 3368447 3402141 
2311.430 3436004 3469904 3503305 3534938 3564035 3589893 3612812 3633727 
2315.288 3654143 3675395 3698853 3725287 3755533 3790259 3830103 3875333 
2319.145 3925616 3979717 4035999 4092321 4146510 4195821 4237810 4269363 
2323.003 4287265 4288537 4271337 4236137 4186152 4127476 4067437 4013760 
2326.860 3972728 3947283 3937686 3940863 3952699 3968850 3986037 4002757 
2330.718 4018441 4032822 4045898 4057771 4068574 4079210 4091719 4108410 
2334.575 4131223 4160961 4196925 4236672 4277293 4316579 4353024 4386661 
2338.432 4418425 4449422 4480020 4510151 4538643 4564726 4587429 4606517 
2342.290 4621151 4630159 4631164 4620816 4595600 4553877 4496391 4427664 
2346.147 4356204 4292284 4246342 4227638 4242026 4291816 4375582 4488423 
2350.005 4622758 4768827 4916955 5058195 5186570 5299856 5399182 5487927 
2353.862 5569273 5645263 5716332 5780931 5837917 5887487 5930950 5970991 
2357.719 6010128 6049437 6088010 6123529 6152866 6173467 6184390 6186004 
2361.577 6180021 6168426 6152463 6133408 6112204 6089220 6065531 6042112 
2365.434 6019300 5997093 5975055 5951776 5926516 5898571 5867806 5834693 
2369.292 5799298 5761523 5720528 5675811 5627003 5574911 5520645 5465848 
2373.149 5411897 5359429 5308409 5258200 5208400 5158840 5110224 5063692 
2377.007 5020551 4981905 4948591 4920406 4897586 4880195 4868299 4862268 
2380.864 4862201 4868031 4878955 4894101 4912431 4933309 4956132 4981201 
2384.721 5008182 5037009 5066877 5096814 5125445 5151363 5173862 5192271 
2388.579 5206455 5216515 5223021 5226576 5228521 5230332 5233853 5240963 
2392.436 5253036 5270677 5293282 5319277 5346212 5371270 5392238 5407536 
2396.294 5416862 5421358 5423136 5425485 5431222 5443133 5462929 5490846 
2400.151 5526115 5567159 5612100 5659127 5707300 5756084 5805276 5855380 
2404.009 5906430 5958897 6013320 6070100 6130216 6194305 6262405 6334246 
2407.866 6408723 6484288 6560136 6635997 6712477 6790856 6872547 6957856 
2411.723 7046213 7135901 7224328 7308898 7388125 7461300 7528418 7590455 
2415.581 7647814 7700525 7748859 7792440 7831776 7867134 7899627 7929895 
2419.438 7958409 7984902 8008864 8030127 8048219 8063780 8077484 8090211 
2423.296 8102836 8115900 8129776 8145272 8163368 8185483 8213442 8248560 
2427.153 8292159 8344307 8405110 8474131 8550902 8634851 8724936 8820348 
2431.010 8919773 9022094 9126912 9234359 9345592 9461966 9584808 9713885 
2434.868 9848254 9985547 10123289 10259277 10392593 10523880 10654662 
2438.243 10786945 10922495 11062473 11207732 11358651 11515680 11679129 
2441.618 11848769 12023859 12202357 12382192 12561076 12737681 12912275 
2444.994 13086222 13261094 13438256 13618261 13799401 13979486 14155950 
2448.369 14327417 14493710 14656160 14816751 14977709 15139997 15303788 
2451.744 15468154 15631760 15792677 15949564 16100800 16245207 16381716 
2455.119 16509490 16628111 16737260 16837720 16929626 17013042 17087992 
2458.495 17153444 17207942 17251002 17281722 17300374 17307824 17305134 
2461.870 17292860 17271826 17241796 17202806 17154926 17099056 17037024 
2465.245 16971452 16905546 16842854 16786746 16740358 16706441 16687158 
2468.620 16684093 16698590 16731301 16782614 16852566 16940684 17045880 
2471.996 17166886 17301480 17447150 17601046 17760452 17923576 18088766 
2475.371 18255366 18422512 18589274 18753576 18912990 19064360 19204736 
2478.746 19331612 19443522 19539618 19619828 19684518 19733890 19768046 
2482.121 19787258 19791696 19782160 19759688 19725916 19682402 19631128 
2485.497 19574246 19513556 19451110 19388568 19327108 19267114 19208338 
2488.872 19149744 19090016 19027836 18961722 18890460 18812254 18725450 
2492.247 18628286 18518800 18395826 18259614 18111046 17952410 17786410 
2495.622 17615262 17440010 17261070 17077550 16888252 16692564 16490424 
2498.998 16282495 16070163 15854806 15637428 15418852 15199391 14979630 
2502.373 14760425 14542874 14328924 14119905 13917317 13722141 13534949 
2505.748 13356073 13185843 13024317 12871692 12727718 12591978 12463645 
2509.123 12342578 12228428 12121429 12022257 11931554 11849723 11776622 
2512.499 11711942 11654419 11602927 11556647 11514522 11476349 11441886 
2515.874 11411170 11384365 11362188 11345183 11334503 11330762 11334334 
2519.249 11344468 11360385 11380658 11403856 11428960 11455528 11483697 
2522.624 11513638 11545418 11579548 11616199 11655236 11697203 11742000 
2526.000 11789423 11838657 11887555 11933699 11974502 12007337 12031012 
2529.375 12044842 12049100 12044366 12031216 12009790 11980633 11944326 
2532.750 11901993 11855716 11807673 11759703 11713133 11668714 11626408 
2536.125 11586320 11548786 11514421 11484004 11458216 11436716 11418109 
2539.500 11401032 11383548 11364943 11345319 11325967 11308044 11292911 
2542.876 11280465 11270093 11260504 11250473 11239422 11227588 11215382 
2546.251 11203720 11192602 11181757 11170333 11157856 11143986 11129131 
2549.626 11114106 11099556 11085791 11073044 11060569 11048606 11036948 
2553.001 11026276 11017338 11010814 11006939 11005206 11004594 11003778 
2556.377 11001501 10997321 10990626 10981893 10971257 10959057 10945635 
2559.752 10930922 10914952 10897455 10878157 10856209 10831037 10802230 
2563.127 10769656 10734095 10697144 10660809 10626581 10595955 10569269 
2566.502 10546285 10526052 10507891 10491699 10477443 10466174 10458639 
2569.878 10455483 10457145 10463255 10473404 10486675 10502426 10519738 
2573.253 10537968 10556164 10573750 10590420 10606106 10621318 10636699 
2576.628 10653032 10670894 10690386 10711850 10735284 10760995 10789323 
2580.003 10820506 10854376 10890353 10927184 10963577 10998477 11031273 
2583.379 11062541 11093540 11125833 11160746 11199198 11241257 11286586 
2586.754 11334435 11384672 11436920 11491353 11547630 11605172 11663234 
2590.129 11720452 11775908 11829191 11880948 11932201 11984652 12039392 
2593.504 12096830 12156525 12216670 12275291 12330544 12381203 12426616 
2596.880 12467772 12505827 12542591 12579869 12618992 12660678 12705336 
2600.255 12752694 12802822 12854968 12908725 12963582 13018956 13074169 
2603.630 13128602 13182461 13236088 13290371 13346847 13406782 13471476 
2607.005 13541239 13616005 13695262 13778366 13864734 13954439 14047381 
2610.381 14143215 14241162 14339745 14437084 14531156 14620828 14705856 
2613.756 14786959 14865677 14943448 15021337 15099445 15177088 15252925 
2617.131 15325926 15394991 15460257 15521927 15580720 15637564 15693145 
2620.506 15748044 15802607 15857143 15911961 15966922 16021788 16075939 
2623.882 16128996 16180580 16230624 16279435 16327595 16375523 16423799 
2627.257 16472287 16520953 16569760 16618334 16666843 16715599 16764395 
2630.632 16813094 16861694 16909576 16956568 17002772 17048568 17094404 
2634.007 17140794 17187674 17234488 17280860 17325684 17368790 17410486 
2637.383 17451254 17492130 17533804 17576930 17621370 17667058 17713442 
2640.758 17760314 17807502 17855006 17903032 17951720 18000792 18050458 
2644.133 18100786 18152020 18204674 18258924 18315186 18373530 18433712 
2647.508 18495496 18558704 18623236 18689370 18757034 18826372 18897276 
2650.884 18969336 19042272 19115672 19189602 19264100 19339338 19415558 
2654.259 19492486 19570016 19647804 19725464 19803002 19880588 19958430 
2657.634 20037154 20116900 20197562 20279002 20360562 20441616 20521434 
2661.009 20599496 20675522 20749614 20822016 20893492 20964596 21035850 
2664.385 21107778 21179996 21252226 21323808 21394078 21462966 21530542 
2667.760 21597502 21664718 21733092 21803186 21875136 21948632 22023290 
2671.135 22098274 22172994 22247098 22320308 22392834 22465124 22537568 
2674.510 22610724 22685182 22761154 22838468 22916668 22995300 23073808 
2677.885 23151806 23229502 23307388 23386268 23466594 23549106 23633872 
2681.261 23720824 23809856 23901640 23996804 24096508 24201802 24313326 
2684.636 24431224 24554762 24683318 24815978 24952296 25092552 25236892 
2688.011 25385776 25539492 25697444 25859110 26023546 26190086 26358272 
2691.386 26528078 26699672 26873486 27049590 27228236 27409956 27595034 
2694.762 27784112 27977798 28176624 28380776 28590014 28803496 29020342 
2698.137 29239634 29461096 29684052 29908686 30135176 30363382 30593666 
2701.512 30825706 31059830 31295500 31532622 31770546 32008674 32245542 
2704.887 32480110 32710622 32936006 33154712 33366192 33569648 33764608 
2708.263 33951052 34128796 34298368 34460256 34615496 34764972 34909584 
2711.638 35050328 35187308 35320704 35449860 35573980 35691776 35801756 
2715.013 35902408 35992320 36070260 36135792 36188980 36230684 36262056 
2718.388 36285000 36300780 36311192 36317424 36320772 36322252 36323472 
2721.764 36326140 36332120 36343684 36362956 36392032 36432352 36484964 
2725.139 36550412 36628348 36718480 36819816 36931236 37051780 37180296 
2728.514 37316180 37458248 37605892 37758212 37914380 38073644 38235316 
2731.889 38399184 38565072 38733124 38902980 39074028 39245248 39414868 
2735.265 39580928 39741564 39894960 40039944 40176220 40303956 40423916 
2738.640 40537500 40645912 40750748 40853172 40954348 41055508 41157604 
2742.015 41261544 41368572 41479560 41595688 41718152 41847728 41985048 
2745.390 42130148 42282964 42442964 42609084 42780280 42954760 43130232 
2748.766 43303680 43471856 43631228 43778860 43912608 44031512 44135592 
2752.141 44225612 44302588 44367572 44421004 44462556 44491812 44508148 
2755.516 44511196 44500328 44475296 44435688 44380892 44309920 44222092 
2758.891 44116412 43992536 43850476 43690360 43512836 43318984 43109480 
2762.267 42885888 42649764 42403360 42148840 41889288 41627812 41367152 
2765.642 41110580 40861000 40620916 40392820 40178620 39979636 39796720 
2769.017 39630220 39480400 39347208 39230848 39131636 39049808 38985432 
2772.392 38938096 38906896 38890080 38885260 38889972 38901640 38917912 
2775.768 38936576 38955820 38973508 38987788 38996452 38997064 38987968 
2779.143 38967276 38933676 38886820 38827028 38755292 38673576 38584336 
2782.518 38490340 38394804 38300380 38209484 38123956 38044272 37970392 
2785.893 37901004 37834372 37768404 37701036 37630208 37554264 37472336 
2789.269 37383636 37288056 37185892 37077256 36963056 36844196 36721944 
2792.644 36598140 36474552 36353484 36237168 36127584 36026804 35936132 
2796.019 35857208 35791036 35738688 35700660 35677204 35668180 35672856 
2799.394 35690160 35718936 35758404 35807728 35866960 35936164 36015968 
2802.770 36106516 36207704 36318828 36438624 36565484 36697640 36833124 
2806.145 36970452 37108144 37245128 37380204 37512252 37639856 37761612 
2809.520 37875732 37980480 38073788 38154020 38219432 38268644 38301356 
2812.895 38317496 38317712 38303204 38275772 38237308 38189436 38134376 
2816.271 38074296 38011400 37948588 37889108 37836832 37796164 37771404 
2819.646 37766960 37786076 37831300 37903532 38002504 38126888 38274540 
2823.021 38442768 38628808 38829604 39042160 39263128 39489180 39716620 
2826.396 39941928 40162044 40374276 40576896 40768584 40949068 41118480 
2829.771 41277828 41428636 41572384 41711948 41849624 41988328 42130732 
2833.147 42279460 42437264 42606636 42790628 42992292 43215428 43463104 
2836.522 43738880 44045700 44386876 44765888 45187736 45658872 46188224 
2839.897 46786380 47466072 48241684 49127820 50140528 51297156 52615388 
2843.272 54115160 55817480 57740616 59899196 62297240 64923360 67741976 
2846.648 70689960 73678232 76582584 79263184 81573736 83369128 84535776 
2850.023 85000600 84741000 83787336 82218664 80152128 77715976 75047040 
2853.398 72273936 69500456 66814444 64280964 61941520 59822144 57932764 
2856.773 56269896 54820228 53563060 52474372 51527804 50698684 49965660 
2860.149 49309996 48717332 48176152 47677352 47213668 46779700 46371012 
2863.524 45985256 45621296 45280220 44964544 44678444 44427652 44217868 
2866.899 44054868 43943404 43885996 43882768 43931416 44027112 44162628 
2870.274 44329116 44516080 44711128 44901968 45076272 45222740 45333252 
2873.650 45403508 45434076 45429700 45398580 45351384 45297648 45246348 
2877.025 45204356 45176048 45164060 45170128 45195532 45241312 45308388 
2880.400 45397584 45509168 45643084 45798540 45974096 46167628 46376508 
2883.775 46596888 46824796 47056000 47285888 47510760 47727904 47935804 
2887.151 48134764 48326592 48514952 48704652 48901852 49113316 49346004 
2890.526 49606708 49901912 50238308 50623320 51065844 51576724 52169716 
2893.901 52859880 53661988 54589624 55650488 56843920 58157004 59563828 
2897.276 61022848 62476452 63859976 65102584 66135488 66906660 67382664 
2900.652 67557208 67450416 67108088 66593184 65973116 65318620 64692408 
2904.027 64143600 63712760 63428768 63311720 63377120 63636108 64096896 
2907.402 64767248 65654300 66766024 68112136 69702976 71548224 73653504 
2910.777 76015752 78618776 81427312 84389160 87428792 90451536 93356512 
2914.153 96032024 98372776 100293264 101728912 102648464 103054792 102983256 
2917.528 102493088 101655624 100550880 99249352 97809536 96276288 94677064 
2920.903 93025944 91328120 89583432 87791216 85954520 84081344 82187592 
2924.278 80294848 78427424 76611664 74870944 73223016 71679704 70245688 
2927.654 68919752 67695544 66563636 65512956 64531000 63605992 62726824 
2931.029 61883244 61066856 60271104 59490068 58719424 57954800 57192356 
2934.404 56429132 55663256 54894552 54124848 53357400 52596540 51846272 
2937.779 51110308 50391404 49691624 49013712 48361260 47739040 47153200 
2941.155 46610128 46115560 45673596 45285736 44950508 44663420 44416936 
2944.530 44201364 44004672 43815432 43622584 43417768 43197532 42963504 
2947.905 42722876 42486844 42269816 42085972 41946652 41860132 41829156 
2951.280 41851852 41921620 42029096 42162748 42309772 42457356 42593768 
2954.656 42708000 42791360 42837176 42841456 42802112 42719880 42597204 
2958.031 42438432 42249436 42036908 41807520 41567320 41321596 41073680 
2961.406 40826240 40581152 40340280 40105716 39880468 39667244 39469004 
2964.781 39287720 39124276 38978364 38849244 38735696 38636556 38551240 
2968.156 38479224 38420612 38375660 38344968 38330092 38332844 38355680 
2971.532 38401396 38471804 38567752 38687920 38828988 38984632 39146468 
2974.907 39304552 39446796 39561364 39637116 39664488 39637188 39553308 
2978.282 39415704 39231760 39012252 38770800 38520424 38273888 38041884 
2981.657 37831804 37648676 37494008 37366916 37263720 37178240 37103132 
2985.033 37029516 36948696 36853360 36737448 36597924 36434332 36248480 
2988.408 36044304 35826480 35599948 35368544 35134928 34899744 34662180 
2991.783 34420692 34173636 33920744 33663480 33405018 33149670 32901942 
2995.158 32665078 32439798 32224846 32016416 31810440 31602674 31390306 
2998.534 31172630 30950616 30726686 30503728 30284364 30070900 29864566 
3001.909 29665994 29474890 29290922 29113516 28942026 28776164 28615920 
3005.284 28461466 28313222 28171814 28037276 27910164 27790294 27677522 
3008.659 27571450 27471582 27377064 27286872 27199768 27114374 27029350 
3012.035 26944130 26858824 26774694 26693224 26615750 26543574 26476832 
3015.410 26414856 26356760 26301346 26248440 26198074 26150986 26107952 
3018.785 26069284 26034980 26004338 25976690 25951396 25928324 25907572 
3022.160 25889602 25874548 25862380 25852886 25846098 25842548 25843320 
3025.536 25850176 25865336 25890164 25925686 25971166 26025094 26084236 
3028.911 26145216 26203812 26255798 26297826 26326974 26341514 26340846 
3032.286 26325708 26297898 26259564 26213208 26161544 26106614 26050918 
3035.661 25996388 25945100 25898710 25858442 25824120 25795040 25769408 
3039.037 25745430 25721488 25696810 25671676 25647034 25624190 25604612 
3042.412 25589290 25578498 25572454 25570838 25573474 25579728 25588830 
3045.787 25599550 25610516 25620886 25630164 25639232 25649392 25662606 
3049.162 25680886 25704896 25734566 25768740 25805308 25842370 25878452 
3052.538 25912602 25944644 25974860 26003424 26030934 26057988 26085326 
3055.913 26113968 26145180 26179670 26217854 26259248 26303036 26348170 
3059.288 26394222 26441264 26490144 26542342 26598770 26660564 26727580 
3062.663 26799400 26875038 26953826 27034886 27117620 27201460 27285602 
3066.039 27368912 27450684 27529790 27605874 27679004 27749674 27818308 
3069.414 27885184 27950094 28012608 28071984 28127588 28179062 28226620 
3072.789 28270962 28313116 28354708 28396906 28441230 28488602 28539412 
3076.164 28593694 28650674 28709184 28767702 28824848 28879448 28931084 
3079.540 28979606 29025620 29069760 29113340 29157310 29202920 29250728 
3082.915 29301238 29354128 29408724 29463754 29518330 29571708 29624064 
3086.290 29676460 29730460 29787412 29848914 29915358 29986180 30060636 
3089.665 30137732 30216440 30296302 30377100 30458624 30540730 30622996 
3093.041 30705350 30787682 30870600 30955098 31042568 31133686 31228988 
3096.416 31328016 31429630 31532444 31634998 31736254 31835292 31931426 
3099.791 32024156 32113124 32198400 32280516 32360862 32441478 32524246 
3103.166 32610782 32701730 32796874 32895080 32995168 33096210 33197950 
3106.542 33300720 33404872 33510874 33618336 33726288 33833480 33939048 
3109.917 34042140 34143064 34242684 34342184 34442644 34544920 34649368 
3113.292 34755964 34864376 34974044 35083840 35193132 35300468 35405460 
3116.667 35507888 35608260 35707748 35807620 35909140 36012548 36117536 
3120.042 36222688 36326824 36428856 36528140 36625320 36721224 36817004 
3123.418 36913380 37010896 37109268 37208128 37307300 37406856 37507304 
3126.793 37609432 37713976 37821432 37931772 38044488 38158796 38272912 
3130.168 38385540 38495412 38601572 38703748 38802864 38900444 38998300 
3133.543 39098972 39203904 39314272 39430324 39551348 39676068 39803328 
3136.919 39931396 40059168 40185124 40307996 40426712 40540920 40650392 
3140.294 40756172 40859944 40963668 41069096 41177528 41289456 41404508 
3143.669 41522032 41640980 41760828 41881184 42002128 42123644 42246228 
3147.044 42369824 42494624 42620928 42748800 42878320 43008976 43140292 
3150.420 43270920 43399532 43524704 43645700 43762440 43875400 43985972 
3153.795 44095432 44205140 44315904 44428016 44541520 44655784 44770484 
3157.170 44885028 44999052 45112740 45226088 45339688 45454164 45570064 
3160.545 45687804 45807412 45928828 46051636 46175328 46299276 46422816 
3163.921 46546060 46668416 46789812 46910172 47028824 47145740 47260472 
3167.296 47372536 47482076 47589132 47694436 47798216 47901616 48005184 
3170.671 48109404 48214432 48319892 48424928 48528660 48630304 48729560 
3174.046 48826728 48922436 49017680 49113096 49208824 49304692 49399868 
3177.422 49493916 49586352 49677360 49767308 49857160 49947260 50037488 
3180.797 50127844 50217512 50306048 50393372 50479188 50563944 50647860 
3184.172 50731008 50813388 50895188 50976300 51057084 51137592 51218000 
3187.547 51298088 51377556 51455924 51533144 51609520 51685576 51762088 
3190.923 51839592 51917740 51996200 52074080 52150552 52225132 52298156 
3194.298 52369880 52440724 52510940 52580160 52648232 52715152 52781372 
3197.673 52848168 52916764 52987768 53061108 53135060 53207900 53277192 
3201.048 53341852 53401872 53458604 53514032 53569732 53626932 53685492 
3204.424 53744628 53803356 53861004 53917456 53972680 54027088 54080412 
3207.799 54132164 54181636 54228708 54273648 54317276 54360872 54405148 
3211.174 54450444 54496080 54541536 54586056 54629604 54672932 54717128 
3214.549 54763244 54811656 54862108 54913952 54966448 55019324 55072580 
3217.925 55126672 55182012 55238188 55294520 55350296 55404764 55458368 
3221.300 55511868 55566652 55623972 55684084 55746240 55809456 55872156 
3224.675 55933508 55993364 56052284 56111208 56170784 56231424 56292792 
3228.050 56354504 56415664 56476488 56536528 56596012 56654784 56713152 
3231.426 56771300 56830100 56890608 56953840 57020484 57090348 57161964 
3234.801 57232912 57301036 57364368 57422868 57477972 57531760 57586764 
3238.176 57644916 57706520 57771236 57837776 57905128 57972748 58040344 
3241.551 58108328 58176132 58243764 58310416 58376016 58441100 58507020 
3244.927 58575420 58647928 58724656 58804776 58886276 58966880 59044688 
3248.302 59119208 59190932 59261488 59332436 59404540 59477944 59551968 
3251.677 59625476 59697700 59768416 59837508 59905204 59971204 60034888 
3255.052 60095268 60151664 60203692 60252068 60298092 60343052 60388440 
3258.427 60435200 60483260 60532316 60581456 60629800 60676396 60720828 
3261.803 60762288 60800780 60836224 60868628 60898360 60926076 60952040 
3265.178 60976480 60999852 61022048 61043248 61063536 61083100 61102016 
3268.553 61120440 61138292 61155416 61171628 61187040 61202104 61217252 
3271.928 61232628 61248648 61265096 61281460 61297144 61311492 61324428 
3275.304 61336448 61348240 61360452 61373848 61388848 61405560 61423956 
3278.679 61443804 61464840 61486864 61509808 61533248 61557492 61582804 
3282.054 61609992 61640424 61675096 61715200 61761264 61812760 61868652 
3285.429 61927268 61986880 62045928 62103840 62161032 62218308 62277428 
3288.805 62340116 62408048 62482384 62563464 62650920 62743632 62840156 
3292.180 62939384 63040584 63144036 63250156 63360520 63475744 63596284 
3295.555 63722088 63852452 63987232 64126432 64271396 64423300 64583824 
3298.930 64753324 64931436 65116056 65305100 65495924 65687256 65878628 
3302.306 66070864 66265500 66464044 66667736 66877404 67093200 67315184 
3305.681 67542960 67776176 68014000 68255728 68500488 68748120 68999144 
3309.056 69254696 69516320 69785184 70061648 70344720 70632648 70923424 
3312.431 71215680 71509392 71805168 72105064 72410608 72722672 73040880 
3315.807 73363560 73689232 74016352 74344128 74672184 75000568 75329240 
3319.182 75657176 75983576 76307112 76627008 76943104 77255520 77564392 
3322.557 77870344 78173592 78474264 78773200 79070672 79367712 79664000 
3325.932 79958976 80250520 80536648 80815208 81085056 81346672 81600928 
3329.308 81848856 82090352 82323784 82546112 82753888 82944352 83116320 
3332.683 83269904 83406152 83525808 83628912 83714288 83780624 83827560 
3336.058 83855936 83868072 83867064 83854928 83831696 83795296 83741848 
3339.433 83667280 83568864 83445616 83298600 83129528 82940104 82731040 
3342.809 82501840 82251776 81980128 81687216 81373648 81040168 80687120 
3346.184 80314064 79919904 79504336 79068240 78614616 78147688 77671992 
3349.559 77191512 76708360 76222080 75731168 75233128 74726096 74209280 
3352.934 73683768 73151688 72616056 72080536 71548608 71023032 70506472 
3356.310 70000256 69505160 69020888 68546664 68081944 67626592 67181144 
3359.685 66747056 66325672 65918008 65524400 65143660 64774132 64414264 
3363.060 64062408 63718168 63381688 63053580 62734900 62426564 62129148 
3366.435 61843320 61569820 61309124 61061132 60825212 60599172 60380708 
3369.811 60166392 59953020 59737808 59518868 59295064 59065300 58829512 
3373.186 58587100 58337968 58082236 57820136 57552376 57279448 57001252 
3376.561 56717532 56427396 56129948 55824264 55509760 55186188 54853084 
3379.936 54509756 54155360 53788316 53407532 53012288 52602972 52180780 
3383.312 51747756 51306068 50858568 50407140 49953952 49500896 49049284 
3386.687 48600360 48154640 47711892 47271664 46832772 46394572 45956232 
3390.062 45518292 45081236 44646604 44215924 43791392 43374524 42966980 
3393.437 42569140 42180604 41799680 41423608 41049208 40673932 40296248 
3396.813 39916356 39536396 39159264 38787720 38423076 38065104 37711984 
3400.188 37361100 37010284 36658704 36306756 35956108 35608584 35265392 
3403.563 34926928 34592064 34259680 33928556 33598468 33269848 32943550 
3406.938 32620390 32300718 31984780 31672240 31362918 31057052 30754962 
3410.313 30457238 30164120 29875248 29590294 29308538 29029728 28754036 
3413.689 28482198 28215234 27954050 27699522 27451922 27211092 26976354 
3417.064 26747066 26522054 26300150 26080296 25861712 25644364 25429196 
3420.439 25217684 25011994 24813838 24624050 24441950 24265812 24093004 
3423.814 23920860 23747454 23572052 23395010 23217234 23040126 22864346 
3427.190 22690732 22519212 22350098 22183768 22020500 21860850 21705120 
3430.565 21553140 21404032 21256994 21110910 20965186 20820070 20675174 
3433.940 20531300 20388898 20248138 20109264 19972758 19838688 19707470 
3437.315 19579236 19453882 19330608 19209032 19087730 18966014 18843362 
3440.691 18719360 18594220 18468458 18342318 18216490 18091218 17966672 
3444.066 17842542 17718620 17594044 17468398 17341652 17214182 17087270 
3447.441 16962908 16842612 16727583 16617818 16512314 16408795 16305165 
3450.816 16199876 16092271 15983285 15874602 15767971 15664838 15565266 
3454.192 15468429 15372506 15275679 15176333 15074265 14969821 14864030 
3457.567 14758403 14653658 14550480 14448868 14348170 14247872 14146947 
3460.942 14045498 13943251 13840482 13738146 13636895 13537444 13440512 
3464.317 13345822 13253339 13162686 13073622 12985738 12899270 12814424 
3467.693 12730925 12648432 12566397 12483696 12399442 12313160 12224713 
3471.068 12134615 12043309 11951410 11859257 11767362 11676032 11586048 
3474.443 11498702 11415149 11336714 11264210 11197600 11135725 11077700 
3477.818 11021689 10966397 10911113 10855224 10798120 10739359 10678195 
3481.194 10614018 10546829 10477070 10406270 10336262 10269082 10206322 
3484.569 10149167 10097819 10052276 10011823 9975714 9942761 9912420 9882895 
3488.426 9853168 9822359 9790062 9756580 9723305 9691658 9663334 9638975 
3492.284 9618513 9601305 9586264 9572749 9560623 9550733 9544399 9542638 
3496.141 9546228 9555068 9568854 9587112 9609875 9637654 9671669 9712496 
3499.999 9760511 9814903 9873642 9934354 9995176 10055090 10114538 10175454 
3503.856 10240958 10313597 10395580 10487829 10589945 10699997 10816259 
3507.231 10936427 11058768 11182402 11307194 11434029 11564201 11699484 
3510.606 11840802 11988671 12142520 12300684 12461565 12623087 12783439 
3513.982 12941870 13097765 13250743 13400563 13546572 13688287 13824712 
3517.357 13955500 14080031 14197955 14308651 14411018 14503200 14583100 
3520.732 14648449 14697013 14727381 14738624 14730878 14704588 14660649 
3524.107 14600027 14523619 14431570 14323444 14198399 14055320 13893300 
3527.483 13712669 13514440 13301884 13078573 12848791 12616230 12383964 
3530.858 12153083 11924504 11698089 11473117 11248636 11023727 10796761 
3534.233 10566383 10331207 10091037 9846085 9598730 9351923 9109282 8874792 
3538.091 8650973 8439906 8242009 8056927 7883195 7718907 7561796 7409258 
3541.948 7258896 7108249 6955735 6800010 6640472 6477360 6311923 6145809 
3545.805 5981774 5823073 5672689 5533028 5405187 5288520 5180836 5078744 
3549.663 4978352 4876710 4771942 4663817 4554045 4444937 4339236 4238847 
3553.520 4144837 4057336 3975370 3897900 3823485 3751021 3678870 3605695 
3557.378 3530295 3451467 3369348 3284541 3198748 3113941 3032753 2956885 
3561.235 2887701 2825765 2770507 2720557 2673747 2627242 2577276 2520217 
3565.093 2452368 2371837 2278597 2175620 2068572 1964813 1870462 1790372 
3568.950 1725731 1674771 1633794 1598541 1564654 1528875 1488743 1443528 
3572.807 1392833 1337757 1279199 1218721 1157853 1097326 1037937 979917 
3576.665 922934 866424 810153 754056 698098 643011 589490 538231 489897 
3581.004 444952 403594 366749 335014 309018 288991 274204 262600 250930 
3585.344 234088 207070 166000 109289 38867 -39228 -117079 -186769 -242738 
3589.684 -283269 -310355 -328532 -343066 -358627 -378093 -402292 -430131 
3593.541 -459326 -487823 -514465 -538988 -561821 -583793 -604738 -624591 
3597.398 -642159 -656915 -668395 -676699 -682223 -684705 -683481 -676996 
3601.256 -664293 -644707 -619363 -590577 -562020 -538193 -522077 -516782 
3605.113 -523831 -544183 -578697 -627602 -691222 -768294 -856200 -950006 
3608.971 -1043726 -1131245 -1208901 -1275376 -1331997 -1381808 -1427847 
3612.346 -1471967 -1514365 -1553391 -1587000 -1613377 -1632292 -1644769 
3615.721 -1653484 -1661736 -1672628 -1689230 -1712861 -1744148 -1781602 
3619.096 -1821594 -1860098 -1892529 -1916050 -1930004 -1936073 -1937261 
3622.472 -1937591 -1939603 -1943759 -1948872 -1951643 -1948707 -1938580 
3625.847 -1922483 -1905230 -1894805 -1900380 -1929014 -1982945 -2055765 
3629.222 -2135102 -2205788 -2257113 -2285756 -2294820 -2291425 -2283350 
3632.597 -2277615 -2278208 -2286745 -2302071 -2321516 -2341686 -2360239 
3635.973 -2375991 -2389271 -2401299 -2413326 -2426176 -2439784 -2453260 
3639.348 -2465055 -2473687 -2478365 -2478629 -2475499 -2469799 -2462617 
3642.723 -2454512 -2445287 -2434512 -2420839 -2403539 -2382483 -2358163 
3646.098 -2332590 -2309025 -2291722 -2285492 -2294688 -2321813 -2366303 
3649.474 -2424134 -2487392 -2546689 -2593066 -2620436 -2627220 -2615562 
3652.849 -2590629 -2559502 -2529230 -2505610 -2492960 -2492993 -2504391 
3656.224 -2522642 -2542472 -2558745 -2567935 -2569384 -2564871 -2557032 
3659.599 -2549324 -2544679 -2545141 -2551070 -2561347 -2573798 -2585952 
3662.975 -2595372 -2600213 -2599390 -2592342 -2577553 -2554759 -2522444 
3666.350 -2480605 -2430130 -2373652 -2314035 -2253685 -2190524 -2117693 
3669.725 -2021995 -1886656 -1697547 -1446308 -1132468 -761481 -342404 111477 
3673.583 582854 1039929 1436447 1716816 1826738 1738971 1463841 1042254 
3677.440 526620 -33497 -594977 -1125264 -1597597 -1991454 -2297753 -2517799 
3681.297 -2664072 -2754097 -2806938 -2838211 -2857336 -2869581 -2876823 
3684.673 -2880904 -2883768 -2888573 -2898579 -2916023 -2941332 -2972596 
3688.048 -3006358 -3039262 -3068742 -3094700 -3117762 -3139013 -3158388 
3691.423 -3174966 -3187202 -3193648 -3194109 -3189208 -3180853 -3170624 
3694.798 -3160328 -3151118 -3143684 -3138289 -3135098 -3134572 -3137138 
3698.174 -3143256 -3153486 -3167993 -3186708 -3208745 -3232853 -3256992 
3701.549 -3278829 -3296191 -3307503 -3312271 -3310758 -3304116 -3293528 
3704.924 -3280210 -3264918 -3248014 -3229663 -3210127 -3189669 -3168749 
3708.299 -3148782 -3131085 -3117663 -3110425 -3111873 -3123946 -3147631 
3711.675 -3181248 -3221539 -3262550 -3298427 -3323582 -3336242 -3336636 
3715.050 -3327758 -3314277 -3301124 -3291259 -3286392 -3285471 -3285734 
3718.425 -3283827 -3277349 -3265411 -3249659 -3232689 -3217428 -3206377 
3721.800 -3200457 -3198878 -3199996 -3201707 -3202989 -3203516 -3203812 
3725.176 -3204700 -3206279 -3208022 -3207627 -3202364 -3189636 -3168256 
3728.551 -3138388 -3102497 -3064301 -3028536 -2999283 -2979375 -2968877 
3731.926 -2965751 -2965751 -2965126 -2962065 -2957326 -2954792 -2958313 
3735.301 -2970950 -2992505 -3019388 -3045908 -3067229 -3080060 -3083580 
3738.677 -3078612 -3065715 -3044987 -3015769 -2977992 -2933631 -2887026 
3742.052 -2846638 -2823661 -2828171 -2866849 -2935605 -3019685 -3095786 
3745.427 -3144802 -3158848 -3141677 -3104307 -3058806 -3016295 -2984739 
3748.802 -2967232 -2964303 -2973583 -2992241 -3017546 -3047915 -3081211 
3752.177 -3113715 -3140920 -3157927 -3162039 -3153223 -3134473 -3110787 
3755.553 -3087133 -3068545 -3057227 -3055220 -3061965 -3076967 -3099109 
3758.928 -3127400 -3159341 -3192366 -3221737 -3243377 -3254328 -3254427 
3762.303 -3246107 -3233873 -3222723 -3216409 -3216409 -3221079 -3227098 
3765.678 -3230584 -3228643 -3221704 -3212330 -3205160 -3204700 -3214238 
3769.054 -3234760 -3264293 -3298164 -3331046 -3357350 -3373461 -3377800 
3772.429 -3370765 -3354687 -3332625 -3307766 -3283038 -3260445 -3240384 
3775.804 -3222789 -3207199 -3194010 -3184439 -3180689 -3184833 -3197891 
3779.179 -3218546 -3242555 -3264490 -3279453 -3284386 -3279815 -3268700 
3782.555 -3256072 -3246501 -3243015 -3246271 -3254888 -3265411 -3274784 
3785.930 -3280802 -3282577 -3281361 -3278171 -3274784 -3271988 -3270476 
3789.305 -3270114 -3270509 -3270969 -3270509 -3267648 -3261268 -3250612 
3792.680 -3236405 -3219994 -3204535 -3193385 -3188846 -3191576 -3199602 
3796.056 -3208285 -3211508 -3204733 -3185656 -3156118 -3120821 -3087331 
3799.431 -3063610 -3056240 -3068677 -3099109 -3140131 -3180327 -3208186 
3802.806 -3217231 -3206805 -3181774 -3150361 -3122038 -3105030 -3104603 
3806.181 -3121314 -3149835 -3180853 -3203614 -3211015 -3201411 -3178485 
3809.557 -3148782 -3119012 -3094075 -3075882 -3063182 -3052851 -3042059 
3812.932 -3029391 -3016657 -3007510 -3006983 -3018697 -3042454 -3072986 
3816.307 -3101181 -3118354 -3118683 -3102300 -3074039 -3042092 -3015539 
3819.682 -3002047 -3006621 -3028996 -3063610 -3100556 -3130822 -3147631 
3823.058 -3150065 -3140559 -3124045 -3105590 -3089305 -3077527 -3070749 
3826.433 -3067920 -3066735 -3065255 -3061965 -3056964 -3050778 -3044987 
3829.808 -3040710 -3038802 -3038769 -3039493 -3038670 -3034294 -3024423 
3833.183 -3007806 -2984936 -2957227 -2927707 -2900028 -2878370 -2866356 
3836.559 -2865994 -2877251 -2897295 -2921223 -2943504 -2959959 -2968416 
3839.934 -2970029 -2967232 -2963743 -2963085 -2967330 -2976972 -2991254 
3843.309 -3007904 -3024126 -3037321 -3045612 -3047488 -3043145 -3032945 
3846.684 -3017842 -2998592 -2975722 -2949000 -2918228 -2882945 -2843873 
3850.060 -2802559 -2764040 -2734869 -2723608 -2739413 -2787482 -2866158 
3853.435 -2963118 -3059431 -3137269 -3185458 -3203647 -3198056 -3178025 
3856.810 -3151381 -3124670 -3101379 -3082725 -3068677 -3058543 -3051008 
3860.185 -3045185 -3040710 -3037222 -3035149 -3035281 -3038703 -3047192 
3863.561 -3061340 -3080553 -3101740 -3120393 -3131381 -3130986 -3118650 
3866.936 -3097562 -3074138 -3055615 -3048804 -3057128 -3079106 -3107794 
3870.311 -3133289 -3147894 -3148157 -3136907 -3120295 -3106050 -3099832 
3873.686 -3103780 -3115722 -3130098 -3140427 -3141611 -3132072 -3113551 
3877.062 -3090588 -3068643 -3052752 -3046731 -3052292 -3068019 -3089930 
3880.437 -3112235 -3128815 -3134736 -3127631 -3108583 -3081573 -3052028 
3883.812 -3026825 -3011656 -3009912 -3020573 -3038867 -3057029 -3067558 
3887.187 -3066044 -3052423 -3030181 -3005173 -2983093 -2969107 -2965356 
3890.563 -2971510 -2983784 -2997572 -3007904 -3011722 -3007970 -2997737 
3893.938 -2982369 -2963842 -2943010 -2920400 -2896012 -2870371 -2843972 
3897.313 -2818625 -2796140 -2778560 -2767629 -2763975 -2767135 -2775662 
3900.688 -2787844 -2802263 -2818164 -2835808 -2855427 -2877185 -2900126 
3904.063 -2922606 -2942089 -2956602 -2964764 -2966738 -2963546 -2956668 
3907.439 -2947552 -2937054 -2925337 -2912534 -2898546 -2884130 -2870503 
3910.814 -2858785 -2850161 -2844696 -2841701 -2839495 -2836994 -2833636 
3914.189 -2830048 -2827974 -2829356 -2835479 -2846178 -2859970 -2873959 
3917.564 -2885414 -2892589 -2895551 -2895452 -2893774 -2891634 -2889199 
3920.940 -2885677 -2880081 -2872149 -2862735 -2854045 -2848383 -2847725 
3924.315 -2852300 -2860365 -2869285 -2875243 -2875704 -2870009 -2858785 
3927.690 -2844235 -2828599 -2814543 -2802922 -2794856 -2790379 -2790016 
3931.065 -2793868 -2802000 -2814082 -2828994 -2844532 -2858884 -2869680 
3934.441 -2875901 -2877415 -2874848 -2869285 -2862011 -2853913 -2845618 
3937.816 -2837224 -2828764 -2820468 -2812962 -2806312 -2801473 -2798675 
3941.191 -2798510 -2800815 -2805457 -2811514 -2818164 -2824056 -2827809 
3944.566 -2828237 -2825241 -2818756 -2810197 -2801177 -2793243 -2787712 
3947.942 -2784815 -2784420 -2785342 -2786527 -2786922 -2786659 -2785901 
3951.317 -2785276 -2785440 -2786165 -2787087 -2786922 -2784650 -2779317 
3954.692 -2770625 -2759102 -2745932 -2733058 -2722159 -2714915 -2712083 
3958.067 -2714026 -2719887 -2728218 -2737766 -2746755 -2754459 -2760452 
3961.443 -2764896 -2768189 -2770691 -2772173 -2772337 -2770362 -2766049 
3964.818 -2759201 -2750344 -2740203 -2730029 -2720447 -2712182 -2705300 
3968.193 -2699900 -2695619 -2692063 -2688770 -2685411 -2681065 -2675203 
3971.568 -2667201 -2656761 -2644247 -2630481 -2616681 -2604034 -2593099 
3974.944 -2584305 -2577355 -2571756 -2567111 -2563224 -2560227 -2558316 
3978.319 -2556966 -2555681 -2553573 -2549884 -2544416 -2537729 -2531305 
3981.694 -2526562 -2524980 -2526759 -2531404 -2537564 -2543592 -2548171 
3985.069 -2551169 -2553079 -2554660 -2556867 -2560128 -2563422 -2566354 
3988.445 -2567309 -2566452 -2563620 -2560029 -2556966 -2555583 -2556110 
3991.820 -2558415 -2561611 -2564740 -2567078 -2568495 -2569219 -2569648 
3995.195 -2569648 -2569450 -2568561 -2566848 -2564344 -2561611 -2559667 
3998.570 -2559601 -2562335 -2568034 -2576268 -2585754 
##END=
