
##TITLE=Z326a_1_c
##JCAMP-DX=5.01  $$ Nicolet v. 1
##DATATYPE=INFRARED SPECTRUM
##ORIGIN=UniL
##OWNER=Nicolet
##LONGDATE=2011/09/15
##TIME=15:19:30
##SPECTROMETER/DATA SYSTEM=Nicolet iS5
##DATA PROCESSING=
Ratio against background
%Transmittance->Absorbance
Truncated
ElementMultiply or ElementDivide
##COMMENTS=
Number of sample scans: 32
Collection length: 51.18 sec
Sample gain: 2.0
Background collected on: Jeu Sep 15 15:11:05 2011 (GMT+02:00);
Number of background scans: 32
Background gain: 2.0
Sample spacing:  1.000
Number of scan points: 12415
Resolution points: 8192
Number of FFT points: 65536
Apodization: N-B fort;
Phase correction: Mertz;
Laser frequency: 15798.0 cm-1
Number of rejected sample scans: 0
Number of rejected background scans: 0
Bench serial number: ASB1000141;
##RESOLUTION=4.000
##XUNITS=1/CM
##YUNITS=ABSORBANCE
##FIRSTX=649.893372
##LASTX=4000.122314
##FIRSTY=0.108651
##MAXX=4000.122314
##MINX=649.893372
##MAXY=0.278016
##MINY=-0.003940
##XFACTOR=1.000000
##YFACTOR=1.000000E-009
##NPOINTS=6950
##DELTAX=0.482117
##ZPD=6100
##XYDATA=(X++(Y..Y))
649.893 108650616 108010968 107407736 106885432 106459424 106123136 
652.786 105862104 105670824 105562184 105569960 105728600 106061632 
655.679 106564816 107208232 107948048 108745984 109583648 110465904 
658.571 111411496 112437528 113550544 114745728 116013928 117355432 
661.464 118785456 120325224 121992400 123783104 125668256 127600344 
664.357 129532840 131435048 133285152 135064416 136727488 138173920 
667.250 139257952 139834864 139848128 139372656 138568672 137589776 
670.142 136518208 135370352 134123672 132753056 131256032 129664704 
673.035 128033016 126423192 124878440 123413192 122020792 120688144 
675.928 119411776 118203136 117083400 116070240 115164960 114349240 
678.820 113589016 112846192 112094352 111321712 110530528 109729512 
681.713 108924184 108112960 107290352 106452016 105603344 104758304 
684.606 103938232 103160664 102432640 101748256 101092216 100448568 99806120 
687.981 99163288 98525608 97899816 97287536 96683192 96075256 95453520 
691.355 94814088 94162424 93511168 92875976 92270400 91702656 91178376 
694.730 90702888 90285488 89940448 89684240 89530216 89485872 89549560 
698.105 89712800 89963976 90293240 90694640 91166192 91705520 92307768 
701.480 92960272 93646512 94347176 95045472 95731624 96402160 97057568 
704.855 97697416 98317384 98908608 99461440 99969632 100434624 100864912 
708.229 101275128 101680328 102092576 102522456 102981288 103484656 
711.122 104056520 104724064 105510688 106426992 107459632 108569944 
714.015 109692920 110756528 111690416 112441608 112987320 113333440 
716.908 113514312 113581488 113602968 113655304 113812584 114147936 
719.800 114717808 115549824 116632368 117904144 119257824 120538288 
722.693 121575216 122212344 122326944 121869512 120870736 119444360 
725.586 117755456 115994800 114343200 112924832 111805792 110990192 
728.478 110439544 110092992 109890280 109788128 109758560 109785824 
731.371 109859640 109967440 110094992 110230440 110368240 110511888 
734.264 110671536 110857584 111073880 111314640 111564920 111808832 
737.156 112035040 112241920 112437440 112633656 112839968 113058064 
740.049 113282304 113502520 113711528 113908184 114098560 114291464 
742.942 114494208 114707928 114927744 115146424 115359032 115565696 
745.835 115771504 115981648 116197176 116411208 116611776 116785472 
748.727 116924720 117031208 117115464 117192488 117272992 117361080 
751.620 117453208 117541672 117620856 117691536 117760888 117838984 
754.513 117933832 118046440 118171424 118300360 118426904 118550568 
757.405 118676576 118812376 118962896 119127120 119297512 119464040 
760.298 119619112 119760880 119893520 120024072 120157408 120294632 
763.191 120433168 120570824 120712296 120872488 121078856 121367480 
766.083 121773848 122327912 123042136 123904728 124871280 125865488 
768.976 126787528 127519312 127958312 128042352 127773240 127227696 
771.869 126547608 125912560 125476152 125329096 125462128 125768320 
774.762 126062992 126135152 125821216 125030320 123771120 122128360 
777.654 120229896 118196568 116104960 113983904 111816288 109564840 
780.547 107192712 104683664 102048312 99321648 96552928 93797112 91109952 
783.922 88538240 86120448 83886240 81852696 80027576 78409720 76991448 
787.297 75761936 74710080 73827408 73109216 72553512 72160616 71931656 
790.671 71867800 71970912 72245248 72697640 73338568 74180312 75232968 
794.046 76499272 77969224 79616592 81397336 83247384 85095144 86862528 
797.421 88476888 89888288 91077752 92071008 92935352 93781568 94741472 
800.796 95932336 97436912 99261224 101318760 103412384 105262864 106561344 
804.171 107002840 106382160 104637960 101875720 98343056 94374928 90329096 
807.546 86477984 82979448 79856296 77021672 74326624 71620304 68809528 
810.920 65872848 62864052 59878924 57029436 54408116 52068028 50027448 
814.295 48273564 46777668 45504200 44420384 43498188 42712348 42042424 
817.670 41470884 40984424 40574752 40238048 39971824 39774464 39641580 
821.045 39567208 39545288 39571560 39645500 39770104 39951304 40195560 
824.420 40508036 40891688 41346852 41870644 42455564 43088916 43751740 
827.794 44417632 45057640 45645988 46165932 46617952 47023876 47429040 
831.169 47893772 48490684 49294852 50366100 51740888 53413600 55328244 
834.544 57363500 59335972 61032112 62213340 62674344 62290812 61038368 
837.919 59010904 56392272 53434584 50391328 47477016 44855748 42612920 
841.294 40772040 39309988 38178440 37320044 36678860 36210084 35876172 
844.669 35647136 35500696 35419768 35392736 35412868 35475244 35575064 
848.043 35706276 35861092 36031700 36212856 36402660 36602824 36816680 
851.418 37047520 37297080 37564884 37850496 38155104 38482556 38839712 
854.793 39234804 39674904 40165460 40710172 41312632 41978984 42718200 
858.168 43543640 44471952 45520720 46709960 48062288 49601880 51356336 
861.543 53349452 55591700 58067764 60725476 63470408 66160068 68630320 
864.917 70713904 72261488 73181840 73450152 73120040 72307704 71184728 
868.292 69952728 68800128 67901600 67392408 67355768 67834008 68826296 
871.667 70297768 72179400 74373264 76758576 79178568 81458848 83419560 
875.042 84878792 85694704 85781496 85122640 83776160 81862416 79548224 
878.417 77005216 74399736 71870344 69506720 67358432 65433592 63711920 
881.792 62157288 60732600 59411988 58185036 57058192 56049152 55180544 
885.166 54470652 53928524 53553048 53334880 53261688 53321396 53507360 
888.541 53817572 54252700 54813724 55499256 56304900 57225768 58258388 
891.916 59404044 60669500 62066532 63610212 65315232 67193520 69250696 
895.291 71481072 73860480 76337680 78832472 81221016 83352064 85062224 
898.666 86187680 86607840 86261920 85163344 83396312 81104024 78471208 
902.040 75680992 72909848 70306536 67973432 65977940 64351968 63098788 
905.415 62204888 61646612 61399532 61439416 61747476 62310856 63121236 
908.790 64174480 65469532 67006624 68785688 70805152 73056760 75523136 
912.165 78171648 80948536 83785128 86597448 89297072 91812024 94093984 
915.540 96132352 97955112 99628288 101242872 102891536 104659968 106599208 
918.914 108709896 110929696 113132360 115144608 116751616 117752328 
921.807 117997304 117423072 116086512 114168240 111970064 109847992 
924.700 108186408 107344432 107572744 108998792 111583944 115134376 
927.593 119296984 123605040 127576608 130728664 132680056 133207920 
930.485 132239328 129851208 126219688 121589944 116222456 110367720 
933.378 104276112 98169648 92247856 86694200 81649904 77220808 73476560 
936.753 70445248 68127520 66504240 65545164 65211064 65450312 66196492 
940.128 67349960 68776104 70318496 71793448 73023824 73869160 74232120 
943.502 74083864 73458904 72450232 71183320 69793008 68411584 67139376 
946.877 66043744 65160060 64493596 64030424 63744844 63609296 63595480 
950.252 63677156 63831844 64037228 64273164 64523652 64776556 65026640 
953.627 65275064 65527828 65793112 66078232 66387668 66723248 67084232 
957.002 67469344 67877968 68309968 68765464 69243544 69742504 70259560 
960.377 70792600 71340824 71905408 72488632 73092792 73718400 74364344 
963.751 75028208 75707504 76402152 77113664 77845296 78599880 79378616 
967.126 80180376 81002640 81843176 82701888 83581680 84487440 85424528 
970.501 86396280 87403832 88446104 89521664 90630712 91775472 92960056 
973.876 94189216 95465784 96791328 98165952 99590280 101066792 102599920 
977.251 104195488 105859224 107595360 109407432 111300512 113283720 
980.143 115371608 117585672 119949512 122485808 125212504 128137904 
983.036 131260200 134564336 138022096 141584720 145175376 148694144 
985.929 152005680 154950624 157373536 159126448 160102928 160255664 
988.821 159599984 158216240 156232816 153825536 151187664 148509632 
991.714 145978496 143744032 141915744 140563536 139712448 139355392 
994.607 139462272 139995120 140914112 142183232 143773888 145659632 
997.500 147813728 150210576 152821632 155618096 158571488 161646672 
1000.392 164798000 167966144 171068176 174006960 176682432 178997360 
1003.285 180881504 182299760 183257024 183797696 184000720 183976896 
1006.178 183848288 183747072 183803536 184123280 184788240 185846512 
1009.070 187311760 189171440 191395344 193949968 196801008 199918016 
1011.963 203274320 206837936 210572192 214437728 218391808 222395472 
1014.856 226412560 230397952 234290272 237997456 241384640 244293712 
1017.748 246554720 248014368 248578928 248230528 247046288 245183040 
1020.641 242878160 240420992 238099712 236203520 234974176 234574416 
1023.534 235094832 236538272 238837424 241863952 245458912 249457008 
1026.427 253683296 257976800 262184384 266147312 269719232 272764064 
1029.320 275167616 276857632 277803872 278016000 277530112 276397760 
1032.213 274675680 272417152 269678144 266513856 262973808 259099392 
1035.106 254915056 250428416 245635504 240534848 235139632 229489344 
1037.999 223649792 217704544 211752320 205886352 200192400 194748352 
1040.892 189612320 184824608 180398736 176313632 172509216 168887200 
1043.785 165333680 161728112 157973808 154023568 149884688 145623056 
1046.678 141343424 137181520 133274840 129741000 126678216 124148656 
1049.571 122179944 120770744 119894832 119509368 119559064 119988336 
1052.464 120742520 121769200 123022128 124452336 126001120 127601264 
1055.357 129166160 130594272 131784480 132635312 133062360 133012128 
1058.250 132461768 131428912 129967448 128173184 126171616 124105360 
1061.144 122134688 120408504 119055240 118181520 117855544 118112016 
1064.037 118952960 120350664 122248912 124561480 127183672 129984152 
1066.930 132811952 135521136 137966336 140025344 141613424 142678032 
1069.823 143200832 143189728 142670720 141680032 140258640 138453024 
1072.716 136310880 133880568 131216856 128378648 125433592 122465688 
1075.609 119566440 116838072 114388608 112313232 110695560 109597848 
1078.502 109051736 109059824 109589232 110576592 111918872 113479416 
1081.395 115104664 116617840 117851672 118674872 119002288 118822128 
1084.288 118194256 117249992 116162624 115124224 114333632 113955304 
1087.181 114115152 114892216 116307640 118327256 120860240 123776584 
1090.074 126904144 130046160 133016784 135637872 137766128 139307952 
1092.967 140209856 140461552 140085632 139132176 137668560 135770848 
1095.860 133524272 131012472 128314528 125509904 122669384 119857144 
1098.753 117129176 114522416 112052496 109706992 107448808 105219288 
1101.646 102950832 100588392 98098584 95484232 92784808 90075096 87452384 
1105.022 85015584 82864272 81080016 79719216 78818368 78390232 78429768 
1108.397 78916552 79819824 81100192 82707864 84588592 86679320 88905328 
1111.772 91186912 93431648 95536416 97402168 98931456 100043256 100686104 
1115.147 100838080 100510072 99738456 98582392 97111928 95398008 93513224 
1118.523 91520544 89469792 87400144 85335880 83290968 81273832 79290952 
1121.898 77352432 75474408 73677760 71987448 70429624 69025704 67793136 
1125.273 66743964 65885344 65223156 64763636 64513660 64481488 64673760 
1128.648 65092960 65733508 66579780 67605136 68768760 70018936 71295448 
1132.024 72527672 73647536 74595576 75328408 75830624 76117792 76236928 
1135.399 76254856 76251384 76305568 76476864 76801600 77283784 77896904 
1138.774 78584280 79267360 79861360 80275152 80428768 80262840 79736648 
1142.149 78834336 77560304 75936104 73995376 71780192 69342616 66737780 
1145.525 64024932 61266468 58518736 55834212 53258088 50823668 48555448 
1148.900 46468760 44570228 42861024 41337848 39995692 38827248 37824756 
1152.275 36979616 36282624 35724980 35299532 35000116 34822948 34765476 
1155.650 34826000 35003204 35296120 35704508 36229784 36875068 37644624 
1159.026 38542984 39573120 40735248 42026544 43440324 44965500 46587628 
1162.401 48284672 50026780 51777656 53490120 55111852 56590876 57874120 
1165.776 58915952 59680824 60142496 60288308 60119016 59648892 58903692 
1169.151 57918112 56734900 55395728 53943268 52417956 50854360 49284980 
1172.527 47738892 46240816 44813756 43477608 42247648 41136364 40151872 
1175.902 39298708 38579412 37994548 37544728 37230328 37051632 37008552 
1179.277 37100676 37327556 37690012 38190452 38833296 39624628 40571256 
1182.652 41678576 42950192 44386800 45985000 47735560 49620044 51610004 
1186.028 53659776 55708004 57683096 59500820 61078600 62345928 63245484 
1189.403 63744992 63838444 63545772 62909664 61989596 60859400 59593016 
1192.778 58263504 56939752 55677416 54522976 53511968 52666596 51999040 
1196.153 51510984 51194700 51033384 51001560 51067668 51190896 51325160 
1199.529 51422836 51432308 51306180 51004840 50498652 49774480 48837740 
1202.904 47713484 46442172 45075904 43674060 42290964 40974848 39763532 
1206.279 38679840 37735408 36931560 36262884 35719620 35289936 34961904 
1209.654 34722940 34561312 34466928 34432168 34452936 34528772 34662536 
1213.030 34858204 35119548 35448888 35845908 36307660 36828684 37401544 
1216.405 38016320 38660064 39318804 39976948 40618952 41232616 41808180 
1219.780 42339832 42825036 43263780 43658340 44012628 44334216 44634156 
1223.155 44927028 45231456 45567012 45951588 46400252 46921612 47517376 
1226.531 48181964 48903560 49664248 50441228 51210248 51946384 52626876 
1229.906 53235876 53764200 54211776 54586432 54904480 55189312 55469324 
1233.281 55781048 56166636 56670564 57342400 58229780 59373880 60810232 
1236.656 62563120 64645880 67061916 69805216 72860352 76199688 79786056 
1240.031 83568176 87480792 91454608 95413816 99281624 102989216 106468608 
1243.407 109655928 112496000 114937160 116937648 118467736 119507704 
1246.300 120048440 120089600 119639224 118714072 117340112 115554280 
1249.193 113397664 110911048 108131064 105083624 101786832 98256592 94512560 
1252.568 90588216 86534880 82417344 78315904 74318176 70503896 66947632 
1255.943 63706660 60814196 58282296 56099260 54234152 52638244 51252228 
1259.319 50013432 48854688 47716996 46552772 45327772 44026672 42651008 
1262.694 41217420 39751516 38284384 36847660 35467116 34163532 32950986 
1266.069 31836610 30822790 29907692 29086484 28351844 27695814 27111518 
1269.444 26593556 26139234 25748032 25420344 25156238 24954998 24814786 
1272.820 24733684 24709902 24742874 24832012 24975704 25169930 25407030 
1276.195 25675578 25959908 26242246 26501802 26716374 26865168 26929290 
1279.570 26895728 26760280 26528430 26215074 25840192 25426948 24995356 
1282.945 24559602 24128660 23707070 23298754 22909682 22549192 22229940 
1286.321 21965812 21768416 21646572 21605964 21649742 21781132 22003910 
1289.696 22322542 22740450 23258270 23872478 24573590 25346152 26169674 
1293.071 27015280 27848370 28630748 29319740 29878586 30280668 30514960 
1296.446 30589612 30530742 30379480 30180958 29981388 29821836 29732306 
1299.822 29734328 29839438 30048564 30351728 30726260 31139594 31547978 
1303.197 31903644 32163754 32291866 32266386 32081410 31746094 31280688 
1306.572 30712852 30076544 29405570 28732582 28088458 27497066 26975580 
1309.947 26533818 26173862 25894066 25690622 25561068 25504808 25522658 
1313.323 25615016 25780730 26016862 26319794 26686882 27117866 27614312 
1316.698 28178676 28811072 29507976 30261414 31060398 31893626 32750462 
1320.073 33622272 34500788 35374760 36229064 37042000 37785792 38431692 
1323.448 38951544 39323596 39539516 39606224 39550476 39413856 39254208 
1326.823 39135116 39114124 39239012 39535452 40004268 40622372 41350676 
1330.199 42143800 42957324 43759360 44532156 45271320 45982748 46678560 
1333.574 47373640 48081500 48814196 49580148 50382616 51217964 52074452 
1336.949 52934280 53772492 54561144 55273824 55885760 56377784 56737924 
1340.324 56961204 57050524 57015004 56869528 56632400 56323496 55963660 
1343.700 55571436 55162072 54747040 54332972 53922672 53516508 53113156 
1347.075 52709092 52297820 51869200 51408476 50898688 50325132 49679700 
1350.450 48966088 48201696 47419616 46663912 45983268 45430840 45053264 
1353.825 44887560 44958184 45270216 45806532 46524340 47362296 48242792 
1357.201 49080668 49801344 50342100 50661076 50741472 50589332 50234212 
1360.576 49721980 49119104 48505580 47963776 47576524 47406348 47482776 
1363.951 47797548 48305336 48935344 49596492 50196944 50650388 50880248 
1367.326 50836668 50499064 49882992 49034888 48025464 46937300 45843612 
1370.702 44806848 43871256 43061696 42392764 41873780 41513504 41322872 
1374.077 41310880 41478944 41815916 42298120 42895032 43574812 44313008 
1377.452 45095864 45919584 46789664 47718664 48726040 49836016 51076836 
1380.827 52476204 54049340 55786284 57635948 59507204 61262040 62734900 
1384.203 63765296 64201908 63938396 62936052 61245712 59018460 56479616 
1387.578 53902076 51523592 49501604 47906276 46725860 45901092 45350392 
1390.953 44994972 44763024 44591304 44428864 44231700 43965108 43610604 
1394.328 43166788 42650316 42087836 41506572 40924676 40348572 39778532 
1397.704 39215800 38670096 38164296 37729696 37397320 37190476 37117096 
1401.079 37172208 37342540 37613152 37971296 38407076 38914252 39488672 
1404.454 40126396 40822196 41569868 42361568 43189916 44048160 44931764 
1407.829 45838824 46767928 47717996 48686900 49670524 50664276 51663852 
1411.205 52665884 53666860 54660716 55635308 56572760 57451232 58249068 
1414.580 58954088 59567324 60105732 60596732 61075056 61575508 62126740 
1417.955 62749832 63454188 64234324 65070324 65929920 66775104 67566616 
1421.330 68270968 68866520 69344440 69716200 70013728 70287960 70593744 
1424.706 70974576 71451112 72016552 72645272 73304360 73968152 74620720 
1428.081 75257752 75883376 76507376 77143352 77808312 78526264 79326656 
1431.456 80237088 81279904 82462816 83778776 85207776 86728432 88326744 
1434.831 89998456 91753080 93604704 95564288 97624264 99760464 101940032 
1438.207 104127136 106286296 108374672 110340592 112110216 113591168 
1441.100 114691832 115321264 115408040 114910648 113815760 112144152 
1443.993 109948152 107317408 104366984 101220992 98013824 94867184 91888496 
1447.368 89175400 86800728 84805848 83192280 81925912 80950608 80209832 
1450.743 79669416 79324272 79195504 79311032 79685848 80301984 81108176 
1454.118 82016232 82914920 83690384 84231880 84473792 84427424 84204048 
1457.494 83971464 83883512 84041816 84479784 85192944 86164528 87374456 
1460.869 88797144 90390336 92094680 93818328 95434952 96808056 97799624 
1464.244 98314600 98336496 97935472 97243216 96396120 95509704 94654976 
1467.619 93864024 93147008 92496488 91888448 91273296 90571608 89677032 
1470.995 88467424 86850632 84807376 82423192 79865024 77322304 74940480 
1474.370 72787232 70875216 69195480 67746432 66545488 65617300 64973116 
1477.745 64597316 64443552 64450124 64551720 64698904 64867228 65054892 
1481.120 65278688 65563120 65935248 66419176 67040616 67832104 68832592 
1484.496 70085472 71627344 73474096 75604128 77944208 80375736 82725144 
1487.871 84776968 86307184 87087520 86936720 85769672 83625136 80673232 
1491.246 77161872 73363720 69497736 65697776 62034576 58523476 55162788 
1494.621 51968712 48984444 46284644 43959792 42083012 40687432 39758848 
1497.997 39254788 39120904 39308540 39781108 40507056 41454224 42587556 
1501.372 43864144 45236568 46657900 48069988 49404064 50574032 51453796 
1504.747 51882936 51680648 50694136 48888616 46410720 43562248 40657956 
1508.122 37910584 35397840 33105578 30990718 29020944 27185834 25498308 
1511.498 23980592 22647166 21500880 20530154 19715548 19036214 18474024 
1514.873 18013192 17637036 17328306 17072244 16860454 16695077 16585698 
1518.248 16542636 16567834 16650971 16768321 16893214 17004564 17101056 
1521.623 17203566 17344996 17551294 17827248 18159896 18526786 18909944 
1524.999 19301370 19707364 20143832 20628300 21170222 21767370 22409196 
1528.374 23084466 23787248 24519070 25287288 26100456 26963626 27877836 
1531.749 28839330 29842028 30880240 31948898 33042968 34153780 35270568 
1535.124 36379316 37465980 38513980 39505980 40427148 41258264 41980772 
1538.500 42576888 43031036 43331396 43473688 43467900 43335712 43107724 
1541.875 42813776 42472556 42087540 41647832 41138444 40551904 39899864 
1545.250 39212864 38533536 37897240 37317588 36785556 36275096 35758976 
1548.625 35222772 34674776 34144996 33674260 33294208 33014510 32823928 
1552.000 32699444 32619890 32574638 32568316 32614640 32726950 32907806 
1555.376 33144414 33408880 33667600 33879044 33999172 33990572 33837744 
1558.751 33571620 33268810 33024340 32902480 32917098 33049368 33266626 
1562.126 33537682 33836564 34147580 34464956 34792684 35142000 35525508 
1565.501 35950852 36416032 36909196 37411224 37903280 38368640 38798224 
1568.877 39191684 39558024 39911488 40264876 40627140 41000992 41384096 
1572.252 41769728 42147668 42504344 42818452 43064768 43218136 43261220 
1575.627 43197932 43057524 42887828 42730228 42603312 42497624 42385968 
1579.002 42234612 42014536 41710016 41319300 40853172 40327588 39758048 
1582.378 39153540 38516408 37847136 37148136 36426084 35691128 34951812 
1585.753 34211996 33470358 32724344 31975326 31233332 30515918 29844654 
1589.128 29239458 28711980 28265656 27897586 27603190 27377346 27213208 
1592.503 27099068 27013270 26924600 26799258 26605710 26325708 25958854 
1595.879 25522132 25042740 24548488 24062150 23597694 23162534 22763634 
1599.254 22409822 22112220 21882034 21725674 21642602 21626512 21669804 
1602.629 21766360 21913014 22107478 22343506 22605768 22870632 23106096 
1606.004 23278966 23363294 23342282 23211956 22978916 22656032 22257666 
1609.380 21797122 21289494 20752776 20210162 19688954 19213360 18799036 
1612.755 18449166 18154436 17897232 17657398 17418280 17170026 16911610 
1616.130 16651694 16405286 16189970 16020345 15906049 15849892 15848655 
1619.505 15893711 15971357 16065659 16159706 16241424 16307849 16366784 
1622.881 16433951 16525634 16652348 16813370 17000946 17204324 17417108 
1626.256 17637174 17865914 18103964 18348332 18591246 18824018 19040576 
1629.631 19241724 19433854 19626866 19827592 20036876 20247618 20446200 
1633.006 20617112 20744090 20815794 20827438 20783676 20697170 20586572 
1636.382 20471346 20365006 20274384 20199052 20133314 20067726 19991388 
1639.757 19894740 19773144 19629430 19473114 19318308 19177308 19054908 
1643.132 18947116 18840800 18717874 18559328 18352410 18095260 17800908 
1646.507 17494062 17204496 16959806 16776828 16661093 16609211 16611414 
1649.883 16652245 16708953 16751172 16736846 16620331 16373148 16013056 
1653.258 15615032 15271251 15039551 14920095 14877609 14868968 14861288 
1656.633 14836807 14790387 14727142 14655714 14583751 14513478 14441126 
1660.008 14359095 14259445 14136610 13988862 13818658 13631869 13437129 
1663.384 13244150 13063515 12904254 12771768 12666785 12583655 12511045 
1666.759 12432378 12330306 12190839 12007678 11786462 11542253 11296142 
1670.134 11066450 10863922 10691065 10544045 10415603 10296055 10174233 
1673.509 10036949 9871573 9670991 9439075 9193577 8958973 8757629 8598958 
1677.367 8478084 8379740 8286114 8184133 8070463 7952166 7842674 7753851 
1681.224 7688114 7633954 7566077 7453345 7269509 7010653 6703964 6400989 
1685.082 6149942 5969781 5851686 5771025 5703574 5631568 5546418 5446992 
1688.939 5336216 5218058 5096311 4975201 4860827 4760217 4680597 4624567 
1692.796 4588065 4557829 4514402 4436535 4310221 4139820 3950526 3780132 
1696.654 3657050 3588690 3559391 3541218 3500065 3407751 3252892 3049703 
1700.511 2836170 2652744 2523283 2446204 2405387 2380066 2353681 2315305 
1704.369 2258879 2183745 2093476 1994870 1895720 1803481 1723003 1656743 
1708.226 1603496 1560165 1522690 1487845 1454698 1424945 1401675 1387581 
1712.083 1383327 1386119 1391038 1392866 1387648 1375050 1356037 1332506 
1715.941 1303625 1266205 1216362 1153136 1082412 1015718 965338 938673 
1719.798 935818 950362 972146 991673 1003031 1004957 1001271 997186 998315 
1724.138 1006717 1021364 1039763 1059858 1081282 1105299 1132306 1160843 
1727.995 1186725 1204434 1209750 1202241 1185761 1166558 1149249 1132838 
1731.853 1108620 1061120 974072 838370 663020 474805 309582 193114 131064 
1736.192 112769 119994 135141 144322 139947 120425 88874 51327 13552 -19879 
1741.014 -46749 -65600 -75671 -76599 -69277 -55661 -38731 -21536 -5798 8714 
1745.836 23592 40458 59313 77971 92254 97159 88775 65444 28098 -20178 -75207 
1751.140 -132317 -186338 -233068 -269031 -292475 -304527 -308699 -311414 
1754.997 -319625 -339491 -372796 -415931 -460484 -496627 -518337 -525850 
1758.855 -525320 -526214 -538094 -566686 -611819 -667204 -723475 -771999 
1762.712 -807322 -829414 -840955 -846213 -848495 -850148 -853125 -859540 
1766.570 -871081 -888209 -909140 -929078 -941807 -942997 -931987 -913934 
1770.427 -898030 -895418 -914430 -955593 -1011364 -1067789 -1112606 -1138615 
1774.284 -1147306 -1144299 -1136929 -1129295 -1122554 -1114424 -1102889 
1777.660 -1087157 -1069739 -1055427 -1048717 -1051725 -1062599 -1076349 
1781.035 -1087256 -1092247 -1091850 -1089768 -1091024 -1098857 -1113597 
1784.410 -1132369 -1150413 -1163565 -1170240 -1170537 -1165779 -1156956 
1787.785 -1143803 -1125297 -1101072 -1073110 -1045841 -1025876 -1019694 
1791.161 -1030834 -1058633 -1097271 -1138846 -1176023 -1205134 -1226181 
1794.536 -1241281 -1252481 -1260840 -1266192 -1268471 -1268108 -1267381 
1797.911 -1269099 -1275442 -1287368 -1303324 -1320139 -1334739 -1345276 
1801.286 -1351949 -1356276 -1359975 -1363278 -1364566 -1361990 -1353534 
1804.662 -1339199 -1320799 -1301210 -1283239 -1268108 -1255917 -1245411 
1808.037 -1236325 -1229551 -1227172 -1231501 -1243693 -1262293 -1283239 
1811.412 -1301970 -1314457 -1319478 -1318487 -1314985 -1311616 -1309766 
1814.787 -1308412 -1304646 -1296189 -1281752 -1262392 -1241016 -1219937 
1818.163 -1200805 -1183028 -1164953 -1144629 -1121232 -1095089 -1067524 
1821.538 -1039528 -1011893 -984521 -957445 -931623 -908743 -890689 -878289 
1825.395 -869791 -861723 -850314 -833151 -811786 -791248 -778316 -779341 
1829.253 -796441 -825445 -857986 -882787 -891979 -883249 -859441 -826569 
1833.110 -790620 -755792 -722979 -691056 -658205 -623300 -586374 -548551 
1836.968 -509766 -469321 -424438 -372333 -311149 -240883 -163684 -82727 -994 
1841.307 79595 158210 234320 307725 378058 445616 512156 581062 656483 
1845.647 740480 832395 927317 1017378 1093473 1148750 1179814 1187987 
1849.504 1177322 1153136 1119184 1075768 1021496 954778 875687 787481 695377 
1853.844 604122 516469 431851 347516 260279 169314 76513 -13916 -98131 
1858.183 -174448 -244592 -312606 -382231 -454791 -528100 -597128 -656750 
1862.041 -704289 -740444 -769121 -794092 -818202 -840691 -859540 -872271 
1865.898 -879083 -883150 -890227 -905271 -930069 -961313 -992058 -1014207 
1869.756 -1023198 -1019496 -1007926 -994637 -984356 -978405 -975331 -972520 
1873.613 -968917 -965413 -965677 -973314 -990472 -1016488 -1047692 -1080084 
1877.470 -1111119 -1140697 -1170537 -1202755 -1237547 -1272403 -1302961 
1880.846 -1324995 -1336754 -1340784 -1342138 -1346532 -1358026 -1376754 
1884.221 -1399841 -1422365 -1440892 -1453805 -1463150 -1471901 -1482534 
1887.596 -1496270 -1512252 -1528926 -1545005 -1560391 -1575445 -1590533 
1890.971 -1604101 -1613179 -1614763 -1606973 -1590632 -1569833 -1549496 
1894.347 -1533714 -1523676 -1517370 -1510502 -1499374 -1482633 -1462325 
1897.722 -1442411 -1426725 -1416751 -1411632 -1408461 -1404003 -1397661 
1901.097 -1390957 -1386630 -1387456 -1393698 -1403276 -1412160 -1417775 
1904.472 -1419195 -1418237 -1418402 -1422167 -1429664 -1438184 -1443997 
1907.848 -1444162 -1438184 -1428970 -1420318 -1415727 -1415826 -1418600 
1911.223 -1420153 -1417940 -1411698 -1403804 -1397496 -1395713 -1398223 
1914.598 -1403804 -1409518 -1414934 -1422134 -1435179 -1458494 -1493068 
1917.973 -1534869 -1575709 -1607963 -1626581 -1632556 -1632358 -1634140 
1921.349 -1644736 -1666126 -1694709 -1723488 -1746425 -1760054 -1765961 
1924.724 -1768073 -1770647 -1774772 -1778335 -1777313 -1768766 -1752959 
1928.099 -1733653 -1715435 -1702300 -1693719 -1686193 -1674806 -1656454 
1931.474 -1631995 -1606940 -1588288 -1580629 -1584887 -1596970 -1610835 
1934.850 -1622026 -1630080 -1638498 -1652790 -1676094 -1706986 -1738801 
1938.225 -1763486 -1775497 -1775003 -1768040 -1764311 -1771802 -1793086 
1941.600 -1823310 -1852015 -1868676 -1866334 -1844592 -1809122 -1766687 
1944.975 -1724412 -1685005 -1649721 -1619352 -1595616 -1581850 -1580662 
1948.351 -1591754 -1610274 -1628133 -1636946 -1631368 -1612684 -1587330 
1951.726 -1565310 -1554118 -1557155 -1573035 -1597267 -1625558 -1657115 
1955.101 -1693917 -1739461 -1794999 -1857756 -1920668 -1977206 -2021632 
1958.476 -2054578 -2081058 -2107240 -2135663 -2164809 -2187029 -2195073 
1961.852 -2185678 -2163490 -2137971 -2120463 -2117528 -2128442 -2146543 
1965.227 -2162138 -2168171 -2165435 -2160325 -2160687 -2171930 -2191150 
1968.602 -2209677 -2219105 -2214062 -2198766 -2183667 -2182941 -2204337 
1971.977 -2248477 -2305696 -2362579 -2408218 -2436852 -2450163 -2452370 
1975.353 -2443738 -2418730 -2366501 -2277153 -2148917 -1993928 -1834232 
1978.728 -1694181 -1592744 -1536421 -1519384 -1527638 -1546656 -1567258 
1982.103 -1586439 -1606808 -1631269 -1659227 -1686821 -1707746 -1717845 
1985.478 -1716657 -1708901 -1701013 -1698471 -1702960 -1712333 -1723224 
1988.854 -1734874 -1749329 -1772099 -1807901 -1857162 -1913840 -1967179 
1992.229 -2005208 -2020412 -2012827 -1989541 -1960318 -1933368 -1910838 
1995.604 -1890417 -1866565 -1835617 -1799289 -1764509 -1739989 -1733323 
1998.979 -1747052 -1778071 -1818295 -1859966 -1896982 -1927365 -1952006 
2002.354 -1971961 -1986903 -1996303 -1998545 -1994654 -1987793 -1983440 
2005.730 -1984990 -1993334 -2003031 -2006659 -1997787 -1974237 -1939273 
2009.105 -1900380 -1863926 -1833209 -1806746 -1779721 -1747217 -1709726 
2012.480 -1671539 -1639950 -1621729 -1617800 -1623181 -1630179 -1630080 
2015.855 -1619517 -1601030 -1581685 -1567522 -1560457 -1555042 -1542232 
2019.231 -1513804 -1466716 -1404894 -1339232 -1281488 -1239662 -1216798 
2022.606 -1209297 -1211379 -1219342 -1232327 -1252150 -1281653 -1319775 
2025.981 -1362056 -1401327 -1430688 -1447497 -1454003 -1455654 -1457932 
2029.356 -1462820 -1467080 -1465263 -1451889 -1425536 -1388050 -1344087 
2032.732 -1297279 -1247822 -1192446 -1127280 -1051262 -968752 -888738 
2036.107 -820683 -771635 -741469 -724368 -711037 -694265 -671836 -647122 
2039.964 -626774 -616418 -617609 -626708 -637196 -643053 -642391 -637990 
2043.822 -633888 -633954 -637196 -639281 -631737 -607584 -564171 -503246 
2047.679 -431191 -356210 -284793 -223497 -175674 -145202 -134900 -146063 
2051.537 -175972 -217172 -258269 -285322 -287905 -262342 -213198 -153019 
2055.394 -95183 -51652 -26605 -17593 -17461 -19349 -19515 -18389 -19714 
2059.734 -25611 -35915 -46285 -49963 -41945 -21006 8747 40922 68659 88410 
2064.555 101037 109422 117807 128512 140013 150023 155691 156387 153636 
2068.895 150487 148366 146974 143626 134876 118901 97491 75353 58883 52752 
2073.717 58120 71641 88377 102561 112206 117873 122646 130269 142400 158674 
2078.539 176640 193943 209755 224110 238531 253980 269595 283918 294694 
2082.878 301359 305106 308720 314655 323475 333522 340751 340983 332527 
2087.218 316048 295656 275596 258721 244830 231403 214562 191987 163911 
2091.557 133749 105876 84201 69520 60076 53017 45959 38536 32837 32108 38271 
2096.861 50863 67399 84234 99910 114857 131992 155095 186816 226629 272579 
2101.683 320623 368043 413842 459679 506483 555051 603491 648552 686815 
2106.023 717082 740049 759366 778220 798236 817987 834387 843815 845508 
2110.362 841757 837839 839599 850853 871404 897998 925391 950130 971482 
2114.702 992370 1016681 1047868 1085966 1127556 1166757 1198819 1220515 
2118.559 1231946 1236166 1236731 1236365 1236664 1237595 1239954 1244938 
2122.417 1254940 1272121 1297510 1329116 1363450 1395825 1423150 1444625 
2126.274 1461979 1478137 1494262 1509855 1521227 1524253 1516106 1497354 
2130.132 1471853 1446387 1427105 1417797 1418496 1426574 1438142 1450077 
2133.989 1461148 1471920 1483656 1497520 1512914 1529174 1545800 1563457 
2137.846 1583143 1606456 1632829 1659637 1683386 1700583 1708533 1708766 
2141.704 1703676 1696857 1689972 1682487 1671677 1655180 1631765 1602232 
2145.561 1569043 1535093 1500645 1464240 1421820 1369931 1308112 1239788 
2149.419 1169714 1103505 1044413 990976 939935 886245 826585 760329 688441 
2153.758 611090 526421 431951 324669 209225 98120 11663 -24319 11033 123839 
2158.580 302552 518260 735635 921672 1058330 1140478 1175428 1175727 1153103 
2162.920 1117158 1074108 1029036 988086 956406 938042 932398 935685 940134 
2167.259 938939 928015 907129 879073 846770 810419 766436 709116 634051 
2171.599 541184 437523 336142 250797 193545 168751 173789 199015 232232 
2175.938 262268 280503 281498 261937 220861 159801 82379 -3147 -85245 
2180.278 -152952 -196175 -211111 -200812 -174481 -143082 -115688 -98198 
2184.135 -90943 -92301 -99225 -110256 -124599 -141326 -157060 -166830 
2187.993 -164810 -147123 -113668 -70503 -24319 15407 43142 58518 65378 69752 
2192.815 77142 90299 108626 129639 151680 173590 197026 223811 253648 285112 
2197.636 313528 334020 343404 341713 331367 317308 304044 293766 287466 
2201.976 283885 281366 279542 279244 281432 287897 299071 314356 332760 
2206.316 354148 377361 402698 429231 455467 479084 497660 509436 514677 
2210.655 515374 514047 513118 514445 518094 523667 531132 540387 551634 
2214.995 564971 579370 592310 600804 601965 594831 580730 562682 543307 
2219.334 524994 507280 488537 466612 440574 411321 381938 355574 334318 
2223.674 318435 306200 295391 284747 275132 268866 268700 276558 291379 
2228.014 310311 329245 345261 357099 366053 374178 383729 395369 408536 
2232.353 421536 433808 446047 460442 479216 503631 532890 565435 598249 
2236.693 629472 658640 687180 715854 745990 776195 804576 829274 849924 
2241.032 867353 884917 905967 931767 961918 993566 1023024 1047668 1067033 
2245.372 1082378 1096064 1110182 1124865 1138850 1150046 1156923 1159714 
2249.229 1160445 1161375 1165063 1172438 1182738 1194865 1208055 1222509 
2253.087 1239223 1259127 1281625 1303957 1322003 1330944 1328052 1313628 
2256.944 1290930 1265009 1241050 1222642 1211046 1205630 1204367 1205995 
2260.802 1209783 1216229 1225732 1238126 1252648 1267967 1283353 1298740 
2264.659 1314559 1331741 1350520 1369366 1386185 1397720 1402008 1398384 
2268.517 1388213 1373754 1358231 1344305 1333337 1326125 1322801 1323532 
2272.374 1328385 1338223 1352381 1370396 1390839 1412080 1432491 1451274 
2276.231 1467764 1481395 1492101 1499581 1503970 1506398 1508592 1513480 
2280.089 1523322 1539615 1561894 1588830 1616932 1643639 1667054 1687311 
2283.946 1705473 1723403 1742331 1762558 1783485 1803913 1822313 1838617 
2287.804 1852293 1863640 1872692 1879048 1882642 1883773 1883673 1884539 
2291.661 1888698 1898183 1913392 1933826 1957158 1981455 2005089 2028124 
2295.519 2051760 2078161 2109058 2144885 2184778 2226773 2268072 2306477 
2299.376 2340655 2370005 2395159 2417349 2438007 2459033 2482126 2508319 
2303.233 2538214 2571843 2607908 2645110 2682249 2718357 2753568 2789481 
2307.091 2827566 2869489 2915987 2966893 3020574 3075698 3130527 3183895 
2310.948 3235200 3284407 3331049 3375226 3416768 3455809 3492883 3529226 
2314.806 3566306 3605929 3649799 3699087 3754731 3816799 3884861 3957916 
2318.663 4034226 4111654 4187992 4261198 4330166 4394125 4452603 4504292 
2322.521 4546980 4577317 4592017 4587998 4565329 4526824 4478513 4427965 
2326.378 4383247 4350816 4334049 4333312 4345628 4366880 4392250 4417789 
2330.235 4441355 4461373 4477341 4489628 4499337 4508075 4518688 4534090 
2334.093 4556624 4587596 4626442 4670482 4716771 4762093 4804740 4844576 
2337.950 4882707 4920406 4958612 4996887 5033724 5067179 5096143 5120014 
2341.808 5139661 5155151 5165613 5167558 5155856 5124372 5068486 4987703 
2345.665 4886762 4776197 4670582 4584951 4533487 4525652 4566032 4653669 
2349.522 4783600 4946546 5130608 5323939 5514739 5694140 5857193 6002166 
2353.380 6130048 6242370 6341038 6427251 6502182 6567974 6627418 6684212 
2357.237 6740812 6798664 6856558 6911395 6959607 6998396 7026614 7044765 
2361.095 7054497 7057528 7054464 7044899 7027995 7003245 6971122 6933009 
2364.952 6890759 6846224 6800145 6752826 6703560 6652483 6599159 6544226 
2368.810 6487988 6430446 6370592 6307283 6239547 6166780 6089723 6009523 
2372.667 5927692 5845842 5764411 5683800 5603910 5525242 5448568 5375229 
2376.524 5306330 5242136 5183083 5128898 5078945 5033624 4993770 4960488 
2380.382 4934984 4917860 4908745 4906902 4911258 4920876 4935554 4955495 
2384.239 4980497 5010428 5043713 5078208 5111364 5141069 5165714 5185128 
2388.097 5199648 5209909 5216817 5220841 5222417 5222417 5221680 5221579 
2391.954 5223356 5227884 5235027 5244182 5254042 5263701 5271850 5278692 
2395.812 5284294 5289123 5294154 5299856 5307168 5317332 5331755 5351814 
2399.669 5378584 5412501 5452997 5498967 5548902 5601191 5655300 5710691 
2403.526 5767735 5826834 5888797 5954094 6023499 6097855 6177299 6262135 
2407.384 6351662 6444537 6539012 6633508 6727418 6820878 6915166 7011461 
2411.241 7110741 7212537 7315065 7415897 7512404 7602628 7685753 7762014 
2415.099 7832248 7896657 7955406 8007986 8053856 8093047 8126130 8154590 
2418.956 8180250 8204696 8228874 8252883 8276725 8299420 8320867 8340423 
2422.813 8358055 8373626 8387341 8399198 8410684 8423251 8439231 8461427 
2426.671 8491971 8532485 8583817 8645971 8718614 8801108 8892885 8992765 
2430.528 9099639 9211887 9327988 9447101 9569430 9695928 9828698 9969442 
2434.386 10118541 10275358 10437494 10602202 10767210 10931567 11096021 
2437.761 11262374 11432702 11608338 11789832 11976511 12167803 12362759 
2441.136 12561827 12765387 12973994 13187652 13405313 13625441 13846365 
2444.511 14067127 14287386 14507448 14727964 14949107 15170362 15390770 
2447.887 15608952 15824392 16036950 16247306 16456490 16665295 16873716 
2451.262 17081582 17287686 17490888 17689940 17884006 18071736 18252324 
2454.637 18424620 18587164 18739080 18879558 19008140 19124396 19227768 
2458.012 19317618 19393140 19453430 19497788 19525894 19537610 19532826 
2461.388 19511374 19473010 19417638 19345572 19257968 19157086 19046012 
2464.763 18928702 18809106 18691202 18578934 18475718 18385040 18310246 
2468.138 18254432 18219772 18207576 18218148 18250596 18304162 18377610 
2471.513 18469738 18579834 18706978 18849106 19004020 19168304 19338610 
2474.889 19511580 19684690 19855754 20023658 20186592 20343062 20491180 
2478.264 20629202 20755348 20868946 20969222 21055536 21127224 21183372 
2481.639 21222514 21243736 21246870 21232708 21203132 21161314 21109902 
2485.014 21051884 20989668 20924540 20857092 20787950 20717016 20644526 
2488.390 20570314 20494272 20416368 20336568 20254282 20168960 20079142 
2491.765 19982784 19876946 19759136 19626898 19479246 19316994 19142056 
2495.140 18957532 18766480 18570842 18371248 18167152 17957004 17739500 
2498.515 17514484 17282480 17045226 16805070 16563805 16322814 16082644 
2501.891 15843604 15605312 15368524 15134268 14903943 14679465 14462981 
2505.266 14255782 14059256 13873834 13699503 13535667 13381393 13235303 
2508.641 13096159 12963206 12836095 12715196 12601119 12494677 12396306 
2512.016 12306035 12223725 12148688 12080715 12019498 11964693 11916433 
2515.392 11874376 11838044 11807469 11782411 11763379 11750988 11745677 
2518.767 11747652 11756128 11770018 11787585 11807741 11830145 11854865 
2522.142 11883298 11916161 11953793 11995791 12040891 12087427 12134172 
2525.517 12180241 12225020 12268167 12309070 12346532 12379020 12405170 
2528.893 12423785 12434287 12436674 12431253 12418194 12397192 12368384 
2532.268 12331942 12288788 12240526 12189613 12138295 12088074 12040243 
2535.643 11995041 11952704 11913232 11877066 11844819 11816729 11792658 
2539.018 11771516 11751566 11731549 11710479 11688592 11666842 11646795 
2542.394 11629608 11615689 11604561 11594998 11586320 11578050 11570054 
2545.769 11562908 11556817 11551134 11545418 11538170 11528881 11517483 
2549.144 11504894 11492475 11481350 11472062 11464000 11455767 11446037 
2552.519 11433654 11418550 11401849 11384977 11369876 11357597 11348754 
2555.895 11342666 11338687 11335353 11331136 11325184 11316649 11305017 
2559.270 11290700 11273902 11255131 11234933 11213478 11190427 11165097 
2562.645 11136984 11105675 11071412 11035487 10999224 10964562 10932486 
2566.020 10903638 10877579 10853865 10831852 10811877 10794554 10781340 
2569.396 10773698 10772475 10777434 10788065 10802468 10818943 10835826 
2572.771 10852133 10867421 10881758 10896027 10910807 10927015 10945159 
2576.146 10965242 10987297 11010915 11035691 11061556 11088849 11118014 
2579.521 11149935 11185020 11223271 11263870 11305834 11347768 11388719 
2582.896 11428620 11467775 11507276 11548344 11591696 11637912 11687025 
2586.272 11738936 11793203 11850165 11909690 11971880 12036292 12102111 
2589.647 12168451 12234426 12299185 12362657 12425491 12488027 12550878 
2593.022 12614320 12678111 12741537 12804016 12864490 12922720 12978329 
2596.397 13031248 13081544 13129524 13175596 13220478 13264715 13309469 
2599.773 13355424 13403501 13454456 13508527 13565749 13626296 13689655 
2603.148 13755212 13822318 13890803 13960188 14030885 14103237 14178235 
2606.523 14256672 14338924 14425027 14514985 14608628 14705685 14806534 
2609.898 14911247 15019485 15130528 15242492 15353248 15460292 15561969 
2613.274 15657865 15748765 15836557 15923029 16009687 16096672 16182885 
2616.649 16266327 16344832 16416950 16482268 16541397 16595991 16647976 
2620.024 16699279 16751241 16804482 16859386 16915502 16972312 17029064 
2623.399 17085166 17139932 17193258 17245176 17296066 17346548 17397002 
2626.775 17448012 17499410 17551122 17603118 17654982 17706818 17758692 
2630.150 17810748 17862844 17914840 17966672 18017854 18068592 18119026 
2633.525 18169500 18220120 18271296 18322652 18374014 18425036 18475372 
2636.900 18524990 18573954 18622788 18671418 18720676 18770598 18821702 
2640.276 18874436 18928806 18985052 19042550 19100784 19158782 19215750 
2643.651 19271512 19326450 19381570 19438462 19498202 19561870 19629604 
2647.026 19701158 19775502 19851904 19929532 20008182 20087678 20168370 
2650.401 20250430 20333962 20418868 20504866 20591922 20679656 20767722 
2653.777 20856398 20945194 21034598 21124824 21216110 21308844 21403336 
2657.152 21499382 21596946 21695508 21794510 21893464 21992058 22089908 
2660.527 22186698 22282186 22376086 22468232 22558754 22648282 22737480 
2663.902 22826872 22916946 23007634 23098338 23188432 23277044 23364134 
2667.278 23449842 23534904 23620400 23707140 23795506 23885396 23976530 
2670.653 24068312 24160360 24252570 24344796 24437252 24530010 24623136 
2674.028 24717164 24812154 24908852 25007430 25108208 25210766 25314120 
2677.403 25417532 25519848 25620674 25720364 25819936 25920374 26022912 
2680.779 26128220 26236614 26347992 26462782 26581580 26705346 26835454 
2684.154 26972828 27117866 27270290 27429296 27594258 27764014 27938856 
2687.529 28118682 28303744 28494334 28690000 28890074 29093640 29299890 
2690.904 29508294 29718680 29931192 30146220 30364022 30584776 30809236 
2694.280 31038048 31272036 31511954 31758286 32010994 32269276 32531924 
2697.655 32797806 33065814 33335854 33607920 33882732 34160804 34442140 
2701.030 34726856 35014408 35304240 35595632 35888192 36181092 36473612 
2704.405 36764240 37051524 37333476 37608316 37874104 38130072 38375548 
2707.781 38610084 38833912 39047124 39249820 39442012 39623724 39795160 
2711.156 39956532 40108588 40252152 40388168 40517496 40640348 40756716 
2714.531 40865624 40965344 41053688 41128352 41187660 41230536 41256916 
2717.906 41267556 41264896 41250904 41228352 41200192 41168824 41136548 
2721.281 41105480 41077724 41055036 41039264 41032272 41035772 41051468 
2724.657 41080492 41123944 41181828 41254004 41339928 41438624 41549452 
2728.032 41671684 41804896 41948548 42102144 42264340 42434120 42609928 
2731.407 42789968 42973528 43159508 43347468 43537008 43727260 43917044 
2734.782 44104860 44289120 44468064 44640728 44806296 44964912 45116600 
2738.158 45261868 45401260 45535216 45664912 45791068 45915128 46038556 
2741.533 46162468 46287996 46415920 46546944 46681812 46821880 46968272 
2744.908 47122476 47285372 47457536 47638604 47827368 48022020 48219800 
2748.283 48417892 48613108 48801964 48981220 49148008 49300236 49436848 
2751.659 49557460 49662836 49754004 49832044 49897564 49950828 49991496 
2755.034 50019080 50033100 50033100 50018676 49989344 49944584 49883252 
2758.409 49804168 49705968 49587616 49448504 49288208 49106788 48905040 
2761.784 48683600 48443856 48187924 47918560 47638492 47351620 47061872 
2765.160 46772576 46487532 46209712 45941536 45685152 45442244 45214208 
2768.535 45002064 44806668 44628756 44469016 44328124 44206864 44105520 
2771.910 44024252 43962504 43918768 43891272 43877088 43873240 43877052 
2775.285 43885736 43896848 43908396 43917960 43923352 43922104 43911288 
2778.661 43888744 43852528 43801472 43734956 43653980 43560012 43454680 
2782.036 43340804 43220956 43097884 42974076 42851912 42733336 42619684 
2785.411 42511836 42409676 42312328 42218140 42124960 42029756 41929936 
2788.786 41822916 41706808 41580920 41445588 41301772 41151812 40998004 
2792.162 40843092 40689392 40539140 40393948 40255500 40124796 40003104 
2795.537 39891112 39790220 39701264 39625752 39564628 39518756 39488780 
2798.912 39474812 39476296 39492516 39522456 39564664 39618420 39682568 
2802.287 39756524 39839756 39931464 40030972 40137148 40249172 40365768 
2805.663 40486068 40609348 40734700 40861400 40988356 41113856 41236184 
2809.038 41352828 41461112 41558456 41642396 41710744 41761956 41795084 
2812.413 41810184 41807852 41789208 41755500 41708668 41650748 41583504 
2815.788 41509492 41431444 41352280 41275648 41205292 41145292 41099724 
2819.164 41072116 41065888 41083696 41127588 41198732 41297688 41424008 
2822.539 41576468 41752988 41950664 42166036 42395288 42634304 42879124 
2825.914 43125692 43370496 43610456 43842776 44064920 44275288 44472392 
2829.289 44655856 44826024 44984132 45131928 45272240 45407848 45541620 
2832.665 45676872 45815812 45961608 46117252 46285456 46470160 46675388 
2836.040 46904892 47162620 47452580 47778316 48144016 48554780 49017236 
2839.415 49539964 50133236 50809364 51582652 52468092 53482624 54644596 
2842.790 55973576 57490796 59218616 61176356 63378884 65829620 68516440 
2846.166 71401704 74419944 77479072 80451656 83194168 85556976 87391512 
2849.541 88581384 89051248 88777432 87790616 86171608 84040896 81531088 
2852.916 78783728 75932192 73083776 70328552 67732456 65336368 63165152 
2856.291 61227364 59518680 58025424 56727276 55600700 54619532 53759368 
2859.667 52997992 52315644 51697032 51129504 50603180 50110852 49647236 
2863.042 49208268 48791804 48396964 48024576 47677096 47358528 47074536 
2866.417 46831292 46635064 46491404 46403680 46372896 46397152 46472192 
2869.792 46590728 46743684 46920616 47108956 47296084 47469436 47617268 
2873.167 47730568 47804392 47837796 47834804 47803064 47752948 47694736 
2876.543 47638304 47591684 47560224 47547136 47554232 47582364 47631984 
2879.918 47703572 47797368 47913636 48052372 48212840 48393480 48592320 
2883.293 48806192 49031256 49263416 49498632 49732640 49962128 50185116 
2886.668 50400444 50608504 50810968 51011064 51213080 51422572 51645416 
2890.044 51888392 52157876 52460576 52803376 53194156 53641968 54157612 
2893.419 54754372 55446884 56249192 57174400 58230200 59416352 60720788 
2896.794 62118672 63569748 65017252 66397436 67639632 68675688 69453448 
2900.169 69940032 70129280 70041520 69722384 69235072 68646424 68027024 
2903.545 67439040 66931284 66543788 66304824 66234240 66346788 66653676 
2906.920 67162888 67882728 68820784 69985808 71387992 73038336 74946616 
2910.295 77118968 79552920 82233232 85125784 88179728 91320024 94451200 
2913.670 97470056 100260496 102711344 104731648 106250704 107234104 
2916.563 107683208 107634384 107149072 106301576 105174456 103839696 
2919.457 102356720 100770792 99109712 97388904 95615536 93792048 91920720 
2922.832 90007144 88061336 86099848 84144560 82218744 80347712 78554104 
2926.207 76854232 75259840 73775496 72400312 71128792 69952296 68860152 
2929.582 67840008 66879644 65967024 65090612 64241244 63411816 62596916 
2932.958 61793276 60998596 60211036 59429424 58652932 57881536 57116576 
2936.333 56360352 55615876 54886392 54174316 53481576 52809660 52160492 
2939.708 51537284 50944364 50387868 49874444 49410080 48999096 48642648 
2943.083 48338628 48081348 47862212 47670072 47492204 47316296 47131112 
2946.458 46928220 46703944 46460060 46203996 45947756 45706760 45497320 
2949.834 45332844 45223552 45174024 45183032 45243924 45346640 45478444 
2953.209 45625156 45773212 45910008 46024336 46107488 46152924 46156312 
2956.584 46115708 46031448 45905884 45743132 45548684 45329168 45091384 
2959.959 44841564 44585540 44327428 44070932 43818584 43572944 43336448 
2963.335 43111640 42900848 42705988 42528132 42367412 42223000 42093708 
2966.710 41978292 41875824 41785888 41708628 41645024 41596268 41563852 
2970.085 41549924 41556308 41585220 41638536 41716584 41818760 41942744 
2973.460 42084292 42236768 42392360 42541692 42674220 42779184 42846904 
2976.836 42868264 42837324 42751576 42612740 42426412 42201708 41950628 
2980.211 41685652 41419344 41163068 40925404 40712540 40527312 40369840 
2983.586 40236924 40122612 40020000 39919952 39814044 39694908 39557008 
2986.961 39397636 39216488 39015876 38799388 38571264 38335192 38093320 
2990.337 37846120 37592020 37328712 37053944 36766408 36467020 36159232 
2993.712 35848352 35540180 35240632 34953432 34679692 34418252 34165716 
2997.087 33918056 33671036 33421942 33169448 32913666 32656040 32398776 
3000.462 32144308 31894944 31652636 31418480 31193206 30976662 30768298 
3003.838 30567322 30373084 30185360 30004252 29830354 29664220 29506450 
3007.213 29357282 29216316 29083400 28957718 28838302 28724300 28614362 
3010.588 28507390 28402176 28297590 28193276 28089446 27987232 27887692 
3013.963 27792238 27701818 27616714 27536534 27460816 27388676 27319970 
3017.339 27254624 27192854 27134972 27080976 27030902 26984606 26942050 
3020.714 26903342 26868446 26837320 26809690 26784808 26762112 26741286 
3024.089 26722646 26707318 26697206 26694422 26701046 26718136 26746008 
3027.464 26783716 26829392 26880254 26933484 26985168 27030866 27066660 
3030.840 27088278 27092580 27078120 27044936 26995252 26932390 26860832 
3034.215 26784984 26709080 26636606 26569780 26510220 26457852 26411898 
3037.590 26370244 26330426 26289836 26246892 26201242 26153592 26106368 
3040.965 26061930 26022560 25989740 25963990 25944890 25931384 25922626 
3044.341 25917630 25915380 25915206 25915662 25915804 25914994 25913096 
3047.716 25911196 25911020 25914818 25924210 25940108 25961986 25988614 
3051.091 26017776 26047538 26075934 26102110 26125192 26145074 26162212 
3054.466 26177240 26191318 26206098 26223240 26244392 26270194 26300502 
3057.842 26334334 26370456 26407884 26446230 26486236 26529380 26577072 
3061.217 26630088 26688714 26751998 26818924 26888396 26959926 27033512 
3064.592 27109436 27187916 27268666 27350598 27432720 27513198 27591150 
3067.967 27665620 27736042 27801916 27862960 27918608 27968610 28012996 
3071.343 28052298 28087928 28120836 28152866 28185002 28218414 28253386 
3074.718 28290660 28330446 28372958 28418412 28466562 28516836 28568428 
3078.093 28620272 28671026 28719910 28766180 28809338 28849598 28887524 
3081.468 28924176 28961046 28999584 29041064 29086058 29134526 29185378 
3084.844 29237046 29288334 29338492 29387842 29437446 29488932 29543900 
3088.219 29603382 29667556 29735924 29807604 29881460 29956466 30031804 
3091.594 30106870 30181276 30254914 30328064 30401726 30477210 30555946 
3094.969 30639388 30727862 30821010 30917596 31016018 31114606 31212004 
3098.344 31308002 31402026 31494178 31584286 31672132 31757642 31840994 
3101.720 31923078 32005142 32088616 32174494 32263636 32356046 32451260 
3105.095 32548852 32648574 32750320 32853660 32957956 33062168 33164832 
3108.470 33264518 33360824 33454112 33545736 33637560 33731480 33828392 
3111.845 33928480 34030920 34134636 34238848 34343084 34447196 34551484 
3115.221 34655648 34759016 34860968 34961008 35059056 35155872 35252636 
3118.596 35350464 35450112 35551292 35652928 35753868 35852924 35949484 
3121.971 36043980 36137340 36230828 36325564 36422264 36521076 36621640 
3125.346 36723312 36825296 36927196 37028540 37129332 37230148 37331528 
3128.722 37434592 37540104 37647876 37757164 37866584 37974040 38077912 
3132.097 38177680 38273928 38368272 38463368 38561596 38664448 38772720 
3135.472 38886236 39003916 39124784 39247824 39371768 39495532 39617948 
3138.847 39737424 39853124 39964524 40072140 40177276 40281636 40386564 
3142.223 40492868 40600760 40709884 40819900 40931008 41043816 41159204 
3145.598 41277868 41399808 41524112 41649220 41773668 41896548 42017640 
3148.973 42137740 42257836 42379028 42501496 42624688 42747884 42870308 
3152.348 42991344 43111056 43229924 43348420 43466872 43585144 43702528 
3155.724 43818660 43932772 44044860 44154960 44264024 44372380 44481276 
3159.099 44591708 44704664 44820512 44939924 45062084 45186160 45310812 
3162.474 45434628 45556524 45676208 45794564 45912512 46031556 46152224 
3165.849 46274504 46397560 46519764 46639232 46754828 46865840 46972408 
3169.225 47075720 47177280 47278868 47381848 47487252 47594936 47704532 
3172.600 47814160 47922628 48028020 48129356 48225984 48318744 48408372 
3175.975 48496092 48582984 48669884 48757108 48844972 48933488 49022168 
3179.350 49111092 49199548 49286612 49371728 49454188 49533764 49611240 
3182.726 49687724 49764744 49843860 49925888 50011388 50100104 50191252 
3186.101 50283912 50376812 50468508 50557576 50642384 50721916 50796032 
3189.476 50865424 50932072 50998468 51067148 51140016 51217628 51299168 
3192.851 51383228 51467636 51550792 51631500 51709164 51783628 51854936 
3196.227 51923076 51988696 52052412 52115732 52180104 52246844 52316432 
3199.602 52388236 52460728 52532108 52600544 52665664 52728024 52788672 
3202.977 52849288 52910928 52973508 53036584 53099000 53159928 53218908 
3206.352 53275916 53331472 53385724 53439044 53491356 53542892 53594020 
3209.728 53645232 53697120 53749612 53801968 53852864 53901176 53946156 
3213.103 53988364 54029376 54071516 54116776 54166172 54219436 54275336 
3216.478 54331848 54387648 54441880 54495104 54547696 54600296 54653088 
3219.853 54705812 54758132 54810644 54864324 54920536 54981036 55046216 
3223.229 55115576 55187392 55259300 55329220 55396064 55459952 55521660 
3226.604 55582660 55644084 55706460 55769596 55832856 55895748 55957704 
3229.979 56018468 56078068 56136736 56194844 56252924 56312104 56373180 
3233.354 56436904 56503468 56572232 56641840 56710548 56777196 56841092 
3236.729 56902768 56963512 57024492 57086572 57150064 57214392 57279300 
3240.105 57344480 57410616 57478428 57548972 57621988 57696756 57771616 
3243.480 57844896 57915540 57983768 58050912 58118936 58189316 58263200 
3246.855 58339940 58418732 58497960 58576976 58655552 58734368 58813804 
3250.230 58894128 58974848 59055088 59133524 59209540 59282948 59354132 
3253.606 59423728 59491928 59558468 59622812 59684204 59742336 59797580 
3256.981 59850668 59902696 59954576 60006428 60057560 60107028 60153680 
3260.356 60197256 60237984 60276924 60315564 60355160 60396436 60438932 
3263.731 60481740 60523404 60562564 60598296 60630368 60659064 60685696 
3267.107 60711568 60737516 60763736 60790412 60816636 60841868 60865272 
3270.482 60886884 60907204 60926876 60946396 60966488 60987156 61007936 
3273.857 61028640 61048856 61068380 61087448 61106404 61125360 61144700 
3277.232 61164532 61185476 61207944 61233008 61260972 61292300 61326832 
3280.608 61363656 61402048 61441324 61481480 61523280 61568104 61617360 
3283.983 61672160 61733000 61799464 61870524 61945184 62022116 62100516 
3287.358 62180188 62260716 62342372 62425032 62509468 62596260 62686360 
3290.733 62780692 62880172 62984892 63095072 63210108 63330308 63455112 
3294.109 63585200 63720860 63862428 64009844 64162880 64320812 64483828 
3297.484 64651756 64825564 65005748 65192552 65385520 65583312 65784440 
3300.859 65987892 66193252 66401376 66614160 66833264 67060024 67294912 
3304.234 67537192 67785280 68037992 68294152 68553496 68816280 69082920 
3307.610 69354240 69630664 69912792 70201056 70496376 70798840 71108424 
3310.985 71424392 71745128 72069112 72395496 72723888 73054800 73389616 
3314.360 73729592 74075144 74425960 74780688 75137784 75496488 75856384 
3317.735 76218048 76582184 76949200 77318344 77688512 78057456 78423656 
3321.111 78785912 79144096 79498488 79850048 80199632 80547696 80894760 
3324.486 81240752 81585776 81929512 82271440 82610104 82943992 83271432 
3327.861 83590600 83900432 84200552 84490496 84769800 85037872 85293536 
3331.236 85535632 85763328 85976160 86173624 86355488 86520368 86666048 
3334.612 86790416 86891664 86969704 87025816 87063104 87085128 87094120 
3337.987 87090800 87073104 87038168 86981848 86901296 86794904 86662768 
3341.362 86505608 86324528 86120568 85893736 85644264 85372096 85077328 
3344.737 84759848 84418856 84053312 83661656 83242896 82797504 82327944 
3348.113 81838688 81334608 80820880 80301544 79778016 79250424 78717824 
3351.488 78178664 77632208 77078168 76516896 75949400 75376808 74801032 
3354.863 74224376 73649856 73080912 72521056 71972632 71436856 70913400 
3358.238 70401840 69900952 69410448 68930480 68461776 68004936 67560424 
3361.614 67127616 66705748 66294216 65892980 65502508 65124100 64758904 
3364.989 64407692 64070672 63747256 63437016 63139172 62853292 62578620 
3368.364 62314104 62057932 61807640 61560620 61314772 61068608 60821172 
3371.739 60572616 60322380 60069968 59814428 59554136 59287660 59014436 
3375.115 58734632 58448832 58157576 57861248 57559264 57250948 56934652 
3378.490 56609336 56274348 55928948 55572492 55204736 54824364 54430760 
3381.865 54023444 53602528 53168800 52723868 52270276 51810284 51346304 
3385.240 50880360 50414288 49949116 49486044 49025024 48566308 48109740 
3388.615 47654944 47202068 46751176 46302816 45857272 45415168 44976892 
3391.991 44543132 44114540 43692268 43277360 42870968 42473028 42082576 
3395.366 41697688 41315580 40933920 40550888 40166372 39781576 39398724 
3398.741 39019832 38646588 38279424 37917852 37560624 37206720 36855016 
3402.116 36505148 36156604 35809280 35462444 35115848 34769172 34422448 
3405.492 34076576 33732588 33391740 33055230 32723594 32396990 32075736 
3408.867 31759388 31448082 31141660 30840220 30543290 30250224 29960442 
3412.242 29673550 29389544 29109158 28833450 28563474 28300278 28044204 
3415.617 27795170 27552914 27316298 27084504 26856390 26630722 26406406 
3418.993 26182766 25959452 25737240 25517494 25302458 25093920 24893588 
3422.368 24701274 24516162 24336280 24158960 23982062 23803942 23623934 
3425.743 23441728 23257992 23073144 22888096 22703756 22521446 22342598 
3429.118 22168286 21999658 21836806 21679346 21525876 21375074 21225748 
3432.494 21076960 20928642 20780930 20634276 20489200 20346012 20204816 
3435.869 20065782 19929290 19795788 19665380 19538302 19413826 19291152 
3439.244 19168928 19045768 18920880 18793778 18665122 18535604 18406576 
3442.619 18279278 18154404 18032084 17911768 17792072 17671304 17548086 
3445.995 17421524 17291858 17160544 17029648 16901548 16777826 16659200 
3449.370 16544530 16432332 16320646 16208060 16094025 15979676 15866525 
3452.745 15756290 15649896 15547339 15447553 15348477 15248291 15145418 
3456.120 15039517 14931034 14820968 14711169 14602426 14495903 14391940 
3459.496 14290023 14189944 14090709 13991702 13892069 13791431 13689518 
3462.871 13586432 13482823 13379104 13275988 13174264 13074339 12976930 
3466.246 12882170 12790297 12701140 12614286 12528711 12443323 12356861 
3469.621 12268406 12177447 12084088 11988910 11892867 11796608 11701084 
3472.997 11606976 11514931 11425660 11339843 11258055 11180736 11107680 
3476.372 11038953 10973534 10911113 10851216 10793841 10738272 10684477 
3479.747 10631097 10577044 10520417 10460302 10396326 10329205 10260669 
3483.122 10192482 10126545 10063806 10004601 9948625 9895606 9844933 9796094 
3486.980 9748990 9703144 9657540 9611230 9564247 9516728 9470196 9427020 
3490.837 9389640 9359981 9338381 9323824 9314548 9307812 9301956 9296438 
3494.695 9291597 9288415 9288415 9292105 9299519 9310419 9324467 9342004 
3498.552 9364348 9392686 9428070 9470636 9519369 9572072 9626847 9681629 
3502.409 9736181 9791452 9849610 9913268 9984699 10064992 10154459 10252051 
3506.267 10355977 10464680 10576161 10689232 10803250 10918452 11036235 
3509.642 11158299 11286790 11423416 11568217 11720316 11877032 12035713 
3513.017 12193259 12347725 12498564 12646009 12790775 12933609 13074305 
3516.393 13212279 13346437 13475749 13599423 13717183 13828543 13932371 
3519.768 14026847 14109260 14176900 14227226 14258863 14271738 14266704 
3523.143 14245202 14208430 14156909 14089785 14006143 13903906 13781854 
3526.518 13639357 13477184 13297135 13102273 12896027 12681830 12462282 
3529.894 12239027 12012822 11783704 11551951 11317499 11081337 10844354 
3533.269 10607057 10370060 10133193 9896352 9659607 9423228 9188365 8956674 
3537.126 8729635 8509169 8295772 8090447 7893283 7704573 7524473 7352807 
3540.984 7189090 7032406 6880861 6732264 6584188 6434414 6281330 6124671 
3544.841 5964877 5803429 5643014 5486585 5337256 5197468 5068620 4950434 
3548.698 4840991 4737104 4634948 4530808 4422107 4308080 4190234 4071484 
3552.556 3956010 3847519 3748915 3661260 3583879 3514695 3450532 3387882 
3556.413 3323504 3254795 3180090 3099124 3012967 2923793 2834570 2748099 
3560.271 2667246 2593442 2527549 2469030 2416549 2368239 2321267 2272369 
3564.128 2218347 2155174 2079925 1991341 1890196 1780623 1669582 1565020 
3567.986 1473582 1399249 1341945 1298474 1263248 1230583 1195596 1155129 
3571.843 1107723 1053481 993798 930106 863867 796543 729262 663054 598946 
3576.183 538098 480974 427805 378124 330936 284681 238498 191225 142665 
3580.522 93315 44302 -3048 -46915 -85477 -117676 -143016 -162492 -177992 
3584.862 -193592 -213960 -243764 -286415 -342636 -409542 -481071 -549875 
3588.719 -609602 -656650 -691189 -716098 -736045 -755725 -777886 -804014 
3592.577 -833250 -863640 -893235 -920911 -946435 -970834 -994637 -1018670 
3596.434 -1042172 -1064252 -1083488 -1098956 -1110854 -1119050 -1124173 
3599.809 -1126090 -1123975 -1116737 -1103418 -1083852 -1059525 -1032818 
3603.185 -1007100 -986075 -972388 -968487 -975959 -996257 -1030504 -1079721 
3607.042 -1144365 -1222976 -1312442 -1407305 -1501422 -1588618 -1665399 
3610.417 -1731277 -1788103 -1839280 -1888306 -1937426 -1986441 -2033637 
3613.792 -2076013 -2110670 -2135861 -2151522 -2159533 -2163061 -2166358 
3617.168 -2174205 -2190062 -2216139 -2252069 -2294787 -2338819 -2378298 
3620.543 -2408976 -2429274 -2440344 -2445023 -2447132 -2449306 -2452074 
3623.918 -2454248 -2452996 -2446044 -2432569 -2414743 -2397641 -2388711 
3627.293 -2395598 -2424232 -2474939 -2541319 -2611774 -2672766 -2715310 
3630.669 -2737338 -2742014 -2736219 -2726934 -2721040 -2722093 -2732037 
3634.044 -2749619 -2772370 -2796766 -2819843 -2840055 -2857040 -2871655 
3637.419 -2884920 -2897822 -2910362 -2922507 -2933499 -2942912 -2950777 
3640.794 -2957326 -2963250 -2968581 -2972991 -2975162 -2973451 -2966277 
3644.170 -2952192 -2931360 -2905063 -2875671 -2846441 -2821719 -2805819 
3647.545 -2802757 -2815267 -2844137 -2887224 -2939423 -2993196 -3040216 
3650.920 -3073480 -3088877 -3086739 -3070289 -3044790 -3016690 -2992077 
3654.295 -2975327 -2969667 -2975919 -2992274 -3014453 -3037058 -3055516 
3657.671 -3066373 -3069038 -3064728 -3056602 -3047817 -3041960 -3041072 
3661.046 -3045612 -3054134 -3064005 -3072230 -3076606 -3075586 -3069038 
3664.421 -3056865 -3038571 -3013169 -2978749 -2934026 -2878699 -2813884 
3667.796 -2740993 -2660022 -2566156 -2449043 -2292908 -2079542 -1797507 
3671.172 -1443072 -1022273 -545805 -27268 517032 1066866 1586602 2023963 
3675.029 2316870 2405887 2263442 1904805 1379836 750604 74723 -598286 
3678.886 -1231005 -1793350 -2262782 -2630053 -2898085 -3082100 -3202430 
3682.262 -3280341 -3332789 -3369252 -3394633 -3410874 -3419750 -3424878 
3685.637 -3431355 -3444241 -3467119 -3500974 -3542846 -3587442 -3628977 
3689.012 -3663016 -3688282 -3705661 -3717783 -3726193 -3731778 -3734570 
3692.387 -3734143 -3730563 -3724354 -3716667 -3708651 -3701259 -3694787 
3695.763 -3689300 -3684372 -3679838 -3675633 -3672347 -3670803 -3671953 
3699.138 -3676914 -3686508 -3700536 -3718342 -3738019 -3756842 -3772544 
3702.513 -3783186 -3788409 -3788803 -3786044 -3781576 -3776452 -3770967 
3705.888 -3764397 -3755857 -3744721 -3730858 -3714663 -3697645 -3681382 
3709.264 -3667846 -3658745 -3656215 -3661998 -3677111 -3701160 -3731942 
3712.639 -3764956 -3795175 -3817181 -3828282 -3827625 -3817312 -3801087 
3716.014 -3783416 -3767814 -3756317 -3748630 -3742783 -3736016 -3726160 
3719.389 -3712691 -3696889 -3681547 -3669259 -3661932 -3659632 -3661111 
3722.765 -3663772 -3665152 -3663871 -3659862 -3653718 -3646687 -3639787 
3726.140 -3633182 -3625789 -3616194 -3602689 -3584878 -3562893 -3538640 
3729.515 -3514450 -3493250 -3477112 -3467152 -3462550 -3461367 -3460446 
3732.890 -3457882 -3453609 -3449960 -3450947 -3460183 -3480004 -3509224 
3736.266 -3543733 -3577682 -3606008 -3625526 -3635384 -3636041 -3627958 
3739.641 -3611068 -3585174 -3550931 -3511130 -3471129 -3439474 -3426851 
3743.016 -3442104 -3489405 -3562466 -3645044 -3714433 -3753919 -3758485 
3746.391 -3734505 -3693965 -3649348 -3611266 -3586193 -3576236 -3580508 
3749.767 -3595131 -3616852 -3642612 -3671000 -3700470 -3728197 -3750272 
3753.142 -3762591 -3762952 -3751553 -3731121 -3706121 -3680988 -3659632 
3756.517 -3644485 -3637125 -3637947 -3647705 -3666565 -3694130 -3728624 
3759.892 -3766401 -3801646 -3829005 -3844309 -3846871 -3839613 -3827757 
3763.268 -3817509 -3813437 -3817345 -3827297 -3839252 -3848053 -3850155 
3766.643 -3845525 -3837018 -3829399 -3827658 -3835212 -3852520 -3876658 
3770.018 -3902731 -3924798 -3937899 -3939541 -3929821 -3911203 -3887297 
3773.393 -3862109 -3839153 -3820630 -3806835 -3796686 -3787949 -3778817 
3776.769 -3768700 -3758583 -3750798 -3748334 -3752933 -3764332 -3779080 
3780.144 -3791989 -3798525 -3795602 -3783744 -3766138 -3748104 -3734866 
3783.519 -3730103 -3734866 -3747710 -3764989 -3782365 -3796719 -3806047 
3786.894 -3810743 -3811663 -3810842 -3809660 -3809298 -3809922 -3811203 
3790.270 -3811959 -3810579 -3805390 -3795602 -3781182 -3763872 -3746363 
3793.645 -3732271 -3724748 -3724617 -3730497 -3738315 -3741797 -3735589 
3797.020 -3716699 -3686048 -3648724 -3611725 -3583367 -3570550 -3577254 
3800.395 -3603182 -3642580 -3686015 -3721890 -3741075 -3740352 -3721791 
3803.771 -3692060 -3659205 -3631375 -3615406 -3615044 -3630159 -3655985 
3807.146 -3684668 -3707304 -3717980 -3715221 -3701653 -3682006 -3660848 
3810.521 -3641200 -3624081 -3608177 -3591484 -3573212 -3554152 -3537982 
3813.896 -3529700 -3534433 -3554415 -3587113 -3624803 -3655887 -3670770 
3817.271 -3664659 -3639130 -3601539 -3562072 -3531015 -3516915 -3524277 
3820.647 -3551851 -3592009 -3632722 -3663378 -3677111 -3673530 -3656708 
3824.022 -3633084 -3609622 -3591023 -3580442 -3577616 -3580080 -3583695 
3827.397 -3584418 -3579883 -3569992 -3556354 -3542452 -3531705 -3526578 
3830.772 -3527662 -3533512 -3540447 -3544292 -3541104 -3528648 -3506956 
3834.148 -3478821 -3448613 -3421953 -3404135 -3398940 -3407685 -3428166 
3837.523 -3455746 -3484014 -3506825 -3520629 -3524934 -3522338 -3516685 
3840.898 -3512051 -3511624 -3516455 -3526085 -3538344 -3550767 -3560429 
3844.273 -3565621 -3565391 -3560067 -3550569 -3538410 -3525132 -3511295 
3847.649 -3496965 -3480990 -3461761 -3437535 -3407784 -3373625 -3339990 
3851.024 -3314047 -3305596 -3324470 -3376387 -3458638 -3556879 -3650137 
3854.399 -3719065 -3753459 -3754543 -3731384 -3695345 -3656347 -3621583 
3857.774 -3594638 -3576071 -3564339 -3557044 -3551687 -3546396 -3540809 
3861.150 -3535221 -3531343 -3531212 -3536766 -3549781 -3570025 -3595492 
3864.525 -3621485 -3641758 -3650991 -3645898 -3627597 -3601046 -3574330 
3867.900 -3555598 -3552246 -3566936 -3596675 -3632558 -3663312 -3680364 
3871.275 -3680988 -3668503 -3650367 -3634562 -3627136 -3629469 -3639130 
3874.651 -3650137 -3656018 -3652075 -3637224 -3613993 -3587113 -3562170 
3878.026 -3544358 -3537424 -3542452 -3557997 -3579850 -3601966 -3618232 
3881.401 -3623522 -3616129 -3597300 -3571503 -3544259 -3522272 -3510506 
3884.776 -3511130 -3522371 -3538410 -3552048 -3557077 -3550865 -3535156 
3888.152 -3514877 -3496241 -3484737 -3484047 -3494631 -3513793 -3536142 
3891.527 -3555433 -3567100 -3568677 -3560363 -3544457 -3523357 -3499167 
3894.902 -3473233 -3446410 -3418797 -3391510 -3365504 -3343015 -3326114 
3898.277 -3316447 -3314803 -3319998 -3329797 -3341404 -3351892 -3360014 
3901.653 -3365833 -3370798 -3377077 -3386151 -3398184 -3411696 -3424385 
3905.028 -3433590 -3437830 -3436811 -3431617 -3423728 -3414819 -3405647 
3908.403 -3396442 -3387039 -3377274 -3367510 -3358370 -3350775 -3345284 
3911.778 -3341568 -3338839 -3335748 -3331507 -3326048 -3320853 -3317993 
3915.154 -3319538 -3326739 -3339102 -3354917 -3371422 -3385855 -3396836 
3918.529 -3404233 -3408868 -3411433 -3412156 -3410151 -3404660 -3395061 
3921.904 -3381844 -3367247 -3354194 -3345941 -3344133 -3348572 -3357021 
3925.279 -3366129 -3372277 -3373428 -3369515 -3361756 -3352616 -3343837 
3928.655 -3336998 -3331869 -3328416 -3325753 -3324109 -3323747 -3325588 
3932.030 -3330027 -3336899 -3344856 -3352320 -3357285 -3358633 -3356101 
3935.405 -3350676 -3343475 -3336077 -3329665 -3325029 -3322201 -3320755 
3938.780 -3320393 -3320755 -3321577 -3322925 -3324931 -3327660 -3331079 
3942.156 -3335189 -3339266 -3342916 -3345218 -3345941 -3344462 -3340911 
3945.531 -3335452 -3328613 -3320919 -3312731 -3304511 -3296652 -3289680 
3948.906 -3284024 -3280210 -3278631 -3279519 -3282216 -3286227 -3290239 
3952.281 -3293133 -3294054 -3292443 -3288398 -3282281 -3274718 -3266398 
3955.656 -3257880 -3249593 -3241996 -3235221 -3229762 -3226078 -3224170 
3959.032 -3224006 -3225453 -3228380 -3232228 -3237260 -3243081 -3249461 
3962.407 -3255776 -3261268 -3265017 -3266299 -3265115 -3261531 -3256499 
3965.782 -3250875 -3245581 -3240812 -3236241 -3231241 -3224993 -3216672 
3969.157 -3206081 -3193221 -3178584 -3162598 -3145855 -3128979 -3112630 
3972.533 -3097826 -3085653 -3076902 -3072065 -3070947 -3072328 -3074993 
3975.908 -3077066 -3077428 -3075421 -3071342 -3065748 -3059629 -3053246 
3979.283 -3046830 -3040216 -3033043 -3025541 -3018138 -3011623 -3007049 
3982.658 -3004844 -3004877 -3006687 -3009188 -3011425 -3013071 -3014387 
3986.034 -3016098 -3019224 -3024521 -3031727 -3040085 -3047850 -3053838 
3989.409 -3056240 -3054957 -3050449 -3044066 -3037584 -3032550 -3030345 
3992.784 -3031102 -3034689 -3040348 -3047356 -3054661 -3061438 -3067295 
3996.159 -3071671 -3074335 -3075158 -3074500 -3072789 -3070947 -3070190 
3999.535 -3071111 -3074500 -3080060 
##END=
