
##TITLE=Z326a_2_d
##JCAMP-DX=5.01  $$ Nicolet v. 1
##DATATYPE=INFRARED SPECTRUM
##ORIGIN=UniL
##OWNER=Nicolet
##LONGDATE=2011/09/15
##TIME=15:45:58
##SPECTROMETER/DATA SYSTEM=Nicolet iS5
##DATA PROCESSING=
Ratio against background
%Transmittance->Absorbance
Truncated
ElementMultiply or ElementDivide
##COMMENTS=
Number of sample scans: 32
Collection length: 51.16 sec
Sample gain: 2.0
Background collected on: Jeu Sep 15 15:37:39 2011 (GMT+02:00);
Number of background scans: 32
Background gain: 2.0
Sample spacing:  1.000
Number of scan points: 12415
Resolution points: 8192
Number of FFT points: 65536
Apodization: N-B fort;
Phase correction: Mertz;
Laser frequency: 15798.0 cm-1
Number of rejected sample scans: 0
Number of rejected background scans: 0
Bench serial number: ASB1000141;
##RESOLUTION=4.000
##XUNITS=1/CM
##YUNITS=ABSORBANCE
##FIRSTX=649.893372
##LASTX=4000.122314
##FIRSTY=0.125494
##MAXX=4000.122314
##MINX=649.893372
##MAXY=0.293442
##MINY=-0.001972
##XFACTOR=1.000000
##YFACTOR=1.000000E-009
##NPOINTS=6950
##DELTAX=0.482117
##ZPD=6100
##XYDATA=(X++(Y..Y))
649.893 125494288 124837536 124276776 123862336 123606672 123491648 
652.786 123481912 123550656 123692304 123923368 124267432 124740240 
655.679 125336976 126033752 126802968 127628920 128519296 129501152 
658.571 130606352 131849080 133222864 134699952 136254288 137877216 
661.464 139588368 141423168 143414816 145565248 147838176 150162160 
664.357 152461264 154674768 156755840 158670976 160371136 161768512 
667.250 162748608 163213760 163157856 162680400 161933392 161031840 
670.142 160014560 158855744 157504864 155925152 154121552 152150864 
673.035 150102640 148078496 146153296 144359072 142692624 141133216 
675.928 139664608 138283840 137000560 135824848 134756576 133779704 
678.820 132869752 132001000 131159752 130343528 129557488 128802032 
681.713 128066688 127327728 126557408 125734912 124857592 123941576 
684.606 123019048 122122704 121274072 120479080 119730104 119012488 
687.498 118313504 117626640 116951344 116287496 115631976 114975712 
690.391 114307288 113619152 112910000 112187600 111463624 110748712 
693.284 110049488 109368048 108706704 108075136 107491544 106984144 
696.177 106583536 106312912 106183928 106192272 106323752 106558000 
699.069 106878016 107273888 107741464 108278784 108881696 109539128 
701.962 110234800 110950744 111670016 112382376 113082016 113764960 
704.855 114425304 115053744 115638328 116170112 116647672 117079576 
707.747 117482000 117875632 118277872 118700528 119151704 119640928 
710.640 120182968 120802736 121529360 122387368 123386688 124513632 
713.533 125727568 126964408 128154096 129230456 130143928 130872976 
716.425 131420568 131814288 132097200 132328552 132578072 132915112 
719.318 133408336 134109136 135035888 136165040 137421520 138689168 
722.211 139809952 140621328 140982512 140792992 140024000 138724192 
725.104 137018192 135074096 133081008 131215472 129596872 128288880 
727.996 127295304 126579000 126082208 125748976 125539008 125427720 
730.889 125401048 125447568 125550552 125688296 125839544 125988680 
733.782 126131696 126274584 126428560 126602024 126795336 127000320 
736.674 127205264 127400888 127585280 127764392 127947896 128143728 
739.567 128352600 128567456 128777416 128973616 129153136 129320320 
742.460 129482832 129647376 129815024 129981296 130139320 130284872 
745.352 130420104 130552960 130692752 130845264 131008256 131171856 
748.245 131323856 131453352 131557672 131641880 131715416 131786152 
751.138 131856976 131924136 131981104 132022696 132049728 132068768 
754.031 132091000 132126032 132178856 132248936 132332784 132426712 
756.923 132530464 132646736 132778480 132925824 133084296 133244528 
759.816 133396712 133533824 133654416 133760992 133858472 133949440 
762.709 134033248 134107512 134171960 134233648 134308992 134424928 
765.601 134615568 134913328 135345920 135926432 136647264 137471536 
768.494 138331808 139137056 139775952 140149504 140196032 139914576 
771.387 139377552 138720784 138117360 137713520 137594704 137747552 
774.279 138064768 138364528 138442128 138139440 137369248 136139520 
777.172 134528928 132654432 130624888 128506240 126320200 124048432 
780.065 121656368 119112816 116409040 113561344 110611136 107613360 
782.958 104629648 101723336 98948144 96347592 93952912 91778824 89827728 
786.332 88091728 86557696 85211320 84041456 83041304 82207896 81540112 
789.707 81037536 80697848 80518856 80498800 80638248 80941384 81415488 
793.082 82069304 82909216 83936160 85139728 86497840 87974048 89515880 
796.457 91063936 92552536 93919216 95120616 96139336 96997992 97757576 
799.832 98518744 99402080 100514752 101931736 103656464 105605536 107592984 
803.206 109355520 110602672 111047008 110494624 108885352 106316088 
806.099 103017200 99303032 95511152 91900488 88623272 85704152 83063040 
809.474 80559176 78048024 75437904 72704072 69893440 67093508 64409076 
812.849 61927952 59701996 57751216 56066760 54624792 53394940 52348164 
816.224 51459616 50705684 50066376 49524332 49065568 48680632 48364296 
819.598 48112700 47922224 47787452 47701800 47659604 47658420 47700284 
822.973 47791596 47940868 48156308 48442044 48798480 49221740 49704480 
826.348 50236076 50802696 51387588 51968972 52524328 53033632 53484536 
829.723 53879532 54238696 54603076 55027412 55577348 56322288 57317484 
833.098 58597036 60156500 61943964 63846888 65694228 67287016 68402352 
836.473 68848896 68510656 67365168 65500892 63090392 60370388 57578480 
839.847 54915384 52532220 50506024 48854020 47549464 46543072 45779396 
843.222 45206380 44784480 44482124 44274624 44144140 44075808 44059016 
846.597 44086412 44152208 44250484 44373960 44514060 44662280 44813020 
849.972 44964544 45119872 45285036 45467260 45672416 45904152 46164308 
853.347 46454452 46776452 47133660 47529576 47967476 48449676 48978100 
856.721 49555676 50189208 50888744 51669340 52548784 53545256 54678344 
860.096 55968260 57436068 59105236 60996500 63120588 65467140 67993856 
863.471 70620288 73220904 75647152 77743000 79365328 80422472 80884464 
866.846 80796136 80265032 79454000 78557200 77757304 77222944 77083872 
870.221 77417256 78259680 79604808 81413048 83610760 86095600 88741664 
873.596 91385160 93843376 95927624 97447496 98255720 98264448 97460680 
876.970 95909608 93742712 91140688 88289304 85368952 82531968 79878720 
880.345 77466952 75309968 73389064 71667048 70103696 68670336 67352672 
883.720 66154668 65091572 64183852 63447328 62888028 62501168 62273412 
887.095 62188716 62232420 62395924 62677024 63077524 63599972 64245388 
890.470 65011980 65896524 66897736 68018576 69267560 70659632 72213712 
893.844 73948704 75881208 78019664 80358752 82869880 85493352 88135928 
897.219 90657864 92890544 94656624 95780576 96137400 95668104 94394576 
900.594 92413560 89883760 87005568 83976368 80983112 78182592 75679856 
903.969 73542536 71799424 70449808 69475568 68849168 68542896 68530400 
907.344 68790928 69309968 70077648 71088712 72341408 73836360 75574752 
910.719 77556304 79774072 82209856 84828440 87570856 90361120 93107224 
914.093 95711840 98096792 100209200 102037504 103611920 105003696 106311904 
917.468 107638368 109078824 110694920 112496768 114431680 116382440 
920.361 118184344 119631240 120528752 120731456 120175496 118911528 
923.254 117107656 115047568 113066408 111527272 110770176 111032968 
926.146 112437920 114951056 118390960 122424880 126611648 130493848 
929.039 133610520 135595680 136232336 135446256 133308336 129986168 
931.932 125716848 120753680 115340536 109719616 104103016 98677624 93611776 
935.306 89031928 85029936 81663344 78952944 76895600 75471648 74653768 
938.681 74407712 74688200 75435976 76560648 77938496 79425592 80852496 
942.056 82057256 82911672 83328544 83283184 82809216 81992856 80949016 
945.431 79800232 78665920 77636328 76771352 76101648 75630832 75344648 
948.806 75218472 75225800 75339920 75535200 75790184 76083648 76396264 
952.181 76712904 77023096 77322464 77613352 77902776 78200128 78513528 
955.555 78849672 79212008 79601904 80020240 80467968 80945816 81453968 
958.930 81991056 82553968 83138792 83742088 84362040 84999024 85654792 
962.305 86331432 87029536 87748360 88485704 89240056 90011824 90802976 
965.680 91617336 92457992 93326520 94222232 95142928 96086336 97052064 
969.055 98041728 99058392 100105304 101184144 102295328 103438568 104615232 
972.429 105828744 107084832 108390232 109750376 111167512 112640952 
975.322 114168416 115748576 117383000 119076512 120836256 122669472 
978.215 124581920 126578736 128666240 130854752 133160096 135605008 
981.108 138213744 141009040 144007680 147216656 150631648 154234160 
984.000 157992016 161850256 165724256 169503184 173039088 176158720 
986.893 178695200 180491952 181440016 181495104 180682336 179095728 
989.786 176879600 174227376 171348752 168448336 165725568 163337872 
992.678 161398816 159978576 159099728 158750528 158896272 159495056 
995.571 160504976 161888752 163617440 165663744 167999168 170595664 
998.464 173421200 176442848 179628848 182939824 186325744 189722000 
1001.356 193038928 196171360 199012320 201458800 203437440 204913696 
1004.249 205896288 206435536 206617440 206560848 206395328 206259872 
1007.142 206291360 206600608 207272832 208358416 209870912 211795792 
1010.035 214100528 216748240 219701296 222926432 226394816 230071808 
1012.927 233918896 237894432 241953184 246053120 250154144 254205376 
1015.820 258137520 261848096 265189648 267992736 270078240 271288224 
1018.713 271531104 270797440 269178208 266846656 264058016 261118832 
1021.605 258331024 255995872 254363296 253600304 253798400 254958656 
1024.498 257009328 259815728 263211760 267024784 271072288 275186336 
1027.391 279207424 282971936 286329856 289145120 291305792 292745600 
1030.284 293442048 293413760 292704320 291371040 289473088 287062720 
1033.177 284191616 280908832 277255872 273266080 268956288 264328368 
1036.070 259374224 254090672 248491728 242619568 236543040 230350032 
1038.963 224142224 218015760 212057520 206346384 200941056 195882656 
1041.856 191186576 186835456 182775664 178918448 175161424 171397312 
1044.750 167541824 163556224 159451728 155292080 151173728 147220256 
1047.643 143554512 140280464 137483728 135217296 133502496 132334752 
1050.536 131686568 131515160 131765680 132382752 133311856 134500160 
1053.429 135900224 137460944 139120720 140808720 142434112 143891280 
1056.322 145076064 145885024 146233936 146070976 145377568 144176752 
1059.215 142529744 140541040 138346304 136097856 133965552 132106360 
1062.108 130653752 129716920 129363568 129624920 130497024 131944744 
1065.001 133903664 136278720 138957984 141803056 144659040 147377376 
1067.894 149812640 151843792 153388480 154395680 154848576 154754688 
1070.787 154139024 153037440 151490656 149546944 147256608 144672688 
1073.680 141855232 138867952 135783440 132689952 129682120 126864912 
1076.573 124348336 122229200 120591816 119497976 118977752 119029440 
1079.466 119614128 120660368 122055072 123650712 125283824 126769376 
1082.359 127934920 128649208 128831936 128480408 127667072 126536784 
1085.252 125275776 124085728 123172616 122703936 122805648 123553784 
1088.146 124964848 126998944 129558832 132508200 135668464 138837136 
1091.039 141822992 144443296 146551696 148052176 148890640 149056960 
1093.932 148575456 147498384 145896000 143847440 141441216 138762960 
1096.825 135893520 132913080 129892856 126896992 123982784 121188952 
1099.718 118535024 116015184 113599088 111237416 108871312 106452736 
1102.611 103952624 101375000 98757056 96168568 93699584 91441848 89487456 
1105.986 87910552 86761888 86072376 85850408 86087760 86761648 87839816 
1109.361 89282016 91037376 93050120 95254984 97573616 99922672 102205472 
1112.737 104315584 106151736 107616680 108631640 109149280 109153496 
1115.630 108661808 107717504 106385928 104742568 102862352 100820024 
1118.523 98678912 96487344 94281792 92083544 89903936 87749984 85628440 
1121.898 83551152 81537560 79612456 77804312 76142984 74652624 73352616 
1125.273 72256832 71373424 70708952 70269496 70061336 70090928 70362176 
1128.648 70873768 71615624 72567496 73698256 74962920 76306512 77665768 
1132.024 78967888 80143712 81133216 81893544 82411736 82706424 82829176 
1135.399 82850912 82855448 82924064 83116608 83468264 83980424 84623136 
1138.774 85335960 86036984 86638376 87046384 87178840 86974640 86392512 
1142.149 85416824 84053520 82326864 80274120 77940752 75382640 72657336 
1145.525 69825960 66952200 64093480 61303020 58627600 56101484 53750100 
1148.900 51589148 49625056 47858476 46285672 44901048 43697360 42666180 
1152.275 41798804 41084788 40514036 40078100 39770288 39587276 39527936 
1155.650 39592612 39781652 40094960 40531788 41091748 41775820 42586644 
1159.026 43527600 44601912 45811244 47153976 48623744 50209036 51893284 
1162.401 53651156 55448996 57246864 58994168 60636580 62120392 63391768 
1165.776 64404964 65124796 65525824 65596564 65339148 64769560 63914940 
1169.151 62812128 61505492 60039300 58458084 56804800 55115688 53424580 
1172.527 51761604 50151200 48616372 47176508 45846816 44639588 43562832 
1175.902 42620412 41813472 41141284 40602328 40195156 39918428 39771556 
1179.277 39753620 39864632 40105280 40478392 40988140 41640464 42441464 
1182.652 43396052 44507084 45774796 47195788 48761628 50456152 52254240 
1186.028 54115760 55985372 57798412 59477336 60945560 62136600 62996000 
1189.403 63492768 63620152 63396216 62860148 62066952 61085312 59984020 
1192.778 58831372 57692140 56618696 55655008 54834400 54177732 53695732 
1196.153 53389360 53250484 53261688 53396776 53622924 53897124 54170336 
1199.529 54392120 54507952 54468624 54234452 53776128 53082788 52161872 
1202.904 51041176 49763220 48381668 46957568 45546480 44197988 42951032 
1206.279 41829484 40845892 40002380 39294428 38713416 38248524 37889032 
1209.654 37622872 37438024 37323584 37270112 37271556 37326256 37435856 
1213.030 37604448 37836180 38133872 38497292 38923456 39406124 39937096 
1216.405 40506108 41100016 41704764 42304696 42884132 43430108 43932404 
1219.780 44384856 44784992 45133364 45433232 45689424 45910192 46107084 
1223.155 46294668 46491660 46717856 46991312 47327012 47733600 48212100 
1226.531 48756660 49355432 49992280 50647112 51299840 51930024 52519244 
1229.906 53054036 53526512 53935576 54286900 54593232 54873576 55151464 
1233.281 55457428 55827280 56299468 56917956 57726616 58764676 60068136 
1236.656 61662728 63564068 65777920 68300240 71117824 74206800 77534600 
1240.031 81056616 84715912 88451176 92193816 95872416 99421368 102774272 
1243.407 105868488 108649048 111064976 113074792 114648688 115766096 
1246.300 116416400 116597128 116314136 115582120 114425000 112877216 
1249.193 110977952 108766288 106277784 103537896 100565248 97376424 93991704 
1252.568 90443168 86779936 83062520 79365568 75769592 72347864 69168312 
1255.943 66282324 63719288 61488580 59577356 57954952 56573628 55375704 
1259.319 54299780 53280412 52260144 51193392 50048008 48811456 47488028 
1262.694 46097356 44666944 43229228 41816060 40452896 39159664 37950468 
1266.069 36832728 35810572 34884412 34051528 33306550 32642606 32052908 
1269.444 31531836 31076344 30685792 30360860 30102432 29909644 29780280 
1272.820 29711442 29700196 29744476 29842988 29993566 30191720 30429872 
1276.195 30695570 30972570 31242126 31483598 31675554 31799782 31840316 
1279.570 31787838 31640556 31405408 31097022 30734226 30338438 29927854 
1282.945 29515706 29110540 28716866 28338438 27981438 27654674 27370182 
1286.321 27141568 26980658 26896364 26894988 26980304 27155676 27424884 
1289.696 27792096 28260140 28829166 29495210 30248198 31071788 31944476 
1293.071 32835684 33708924 34523392 35234488 35803124 36202232 36421004 
1296.446 36469540 36376648 36187396 35950600 35715516 35525184 35410060 
1299.822 35390540 35476356 35666668 35949776 36302580 36692808 37077796 
1303.197 37411224 37651852 37764392 37728032 37537140 37200224 36736656 
1306.572 36172596 35540000 34871308 34197584 33549570 32951270 32421056 
1309.947 31970226 31602424 31316902 31110620 30981358 30928626 30953604 
1313.323 31057302 31239706 31498526 31831120 32235548 32712020 33262480 
1316.698 33889684 34594036 35371920 36214480 37108944 38041416 38997248 
1320.073 39963544 40927188 41872432 42780136 43625548 44378288 45008608 
1323.448 45488380 45797988 45932140 45903564 45745524 45506480 45251200 
1326.823 45049112 44961420 45038452 45306036 45763748 46386020 47130488 
1330.199 47948716 48793772 49632000 50445396 51229744 51992168 52745380 
1333.574 53504212 54281192 55085744 55922504 56790032 57679804 58575156 
1336.949 59453668 60286900 61044848 61700420 62230164 62618076 62856472 
1340.324 62946088 62894768 62715648 62427100 62049064 61603040 61111856 
1343.700 60595892 60072400 59554136 59047836 58555060 58074240 57601592 
1347.075 57132940 56662188 56181116 55678132 55139388 54553144 53913144 
1350.450 53224080 52503464 51783668 51107400 50521172 50074596 49810412 
1353.825 49761288 49947368 50370152 51009984 51821932 52743024 53693744 
1357.201 54586544 55344236 55901888 56216452 56271704 56075992 55662388 
1360.576 55080704 54401656 53708220 53085032 52616960 52368084 52369284 
1363.951 52613332 53055344 53624160 54227844 54773464 55174188 55354060 
1367.326 55264264 54887072 54240944 53374968 52362332 51286752 50222124 
1370.702 49230832 48356408 47622516 47041528 46619428 46361172 46272812 
1374.077 46358516 46615736 47030448 47577264 48224948 48940940 49700060 
1377.452 50487264 51296968 52132804 53005664 53933364 54937832 56046060 
1380.827 57284480 58669092 60193908 61816616 63458832 64999124 66289968 
1384.203 67186712 67551984 67288680 66361068 64816332 62793404 60499028 
1387.578 58182840 56060464 54273308 52881584 51871288 51185604 50747316 
1390.953 50482760 50324612 50212268 50097020 49935512 49694596 49356728 
1394.328 48922696 48411964 47853260 47275912 46698964 46129340 45567380 
1397.704 45014708 44481976 43993048 43580748 43277216 43106480 43077284 
1401.079 43185016 43417072 43759400 44199676 44728204 45338620 46025664 
1404.454 46783684 47606396 48485684 49412604 50377672 51372448 52389956 
1407.829 53425480 54475344 55535892 56603788 57674356 58743204 59807200 
1411.205 60864660 61914200 62951872 63968152 64947024 65868184 66710428 
1414.580 67461216 68119736 68699552 69224424 69724832 70231864 70771848 
1417.955 71365688 72026096 72753152 73534608 74344480 75148392 75907256 
1421.330 76585856 77159576 77616448 77965296 78235712 78477240 78743808 
1424.706 79078264 79501384 80006104 80567160 81152232 81736776 82306920 
1428.081 82861376 83408320 83960968 84535856 85150736 85828488 86595792 
1431.456 87476776 88490056 89640616 90919872 92307440 93781856 95330328 
1434.831 96950072 98651504 100450280 102358144 104368176 106455616 108587648 
1438.207 110728568 112844264 114893864 116829008 118579912 120058704 
1441.100 121178752 121854112 122018640 121634968 120693520 119216272 
1443.993 117254208 114891824 112236168 109401896 106512688 103680776 
1446.886 101005240 98576160 96461656 94700960 93297400 92221560 91424344 
1450.261 90856520 90488712 90317064 90359448 90637688 91159728 91901472 
1453.636 92808768 93792880 94743528 95548680 96099896 96335024 96270664 
1457.011 96025816 95775496 95676896 95831184 96268432 96981256 97951960 
1460.387 99161584 100587680 102191384 103914608 105663344 107304264 
1463.280 108689208 109665320 110123000 110036416 109473856 108571432 
1466.173 107473632 106304784 105144312 104031304 102983968 102001920 
1469.066 101064624 100122616 99090528 97851464 96270912 94248120 91765072 
1472.441 88919120 85896240 82903040 80093192 77534048 75232256 73173400 
1475.816 71353472 69791528 68516512 67542656 66855332 66406972 66133484 
1479.192 65967484 65859116 65784440 65742528 65749468 65827192 65998724 
1482.567 66284336 66705792 67293168 68082992 69115592 70424632 72023320 
1485.942 73890648 75958872 78121232 80222344 82068896 83458872 84182408 
1489.317 84068920 83034160 81106976 78439536 75258664 71815688 68312768 
1492.693 64873308 61560888 58387880 55350636 52462708 49762700 47318884 
1496.068 45213660 43512948 42246008 41398748 40932868 40800392 40959084 
1499.443 41377500 42027128 42877296 43894316 45037164 46262268 47528944 
1502.818 48787356 49979264 51030664 51830856 52236904 52086968 51242532 
1506.194 49670712 47500448 45000228 42449464 40035404 37824828 35803588 
1509.569 33933496 32188196 30561528 29068874 27733322 26569250 25578990 
1512.944 24750660 24065300 23502688 23045714 22679876 22389554 22158662 
1516.319 21973202 21825030 21715886 21654618 21650124 21703484 21803950 
1519.695 21929708 22056788 22170100 22274894 22396636 22569608 22816920 
1523.070 23138736 23517414 23927862 24351350 24780582 25223688 25697724 
1526.445 26221552 26804756 27444792 28131230 28853138 29605264 30389536 
1529.820 31213784 32086260 33011508 33990072 35018540 36091000 37201740 
1533.196 38345400 39515348 40701076 41889872 43067328 44219668 45331192 
1536.571 46385100 47366032 48253048 49024616 49659564 50140824 50458572 
1539.946 50613716 50623244 50514140 50318328 50063812 49766196 49426304 
1543.321 49032516 48571012 48036752 47443636 46823764 46219552 45665976 
1546.697 45176048 44740840 44335424 43933320 43519248 43099128 42698532 
1550.072 42353860 42094040 41930044 41854880 41852068 41906836 42013188 
1553.447 42176004 42405548 42707928 43078528 43498956 43939740 44368272 
1556.822 44747968 45042128 45223588 45289116 45278748 45267160 45338104 
1560.198 45539856 45873696 46316160 46836788 47410632 48020024 48656508 
1563.573 49320316 50015624 50748768 51523556 52337172 53180184 54037704 
1566.948 54891396 55725256 56524716 57280016 57987140 58649596 59276908 
1570.323 59878924 60464904 61038712 61599068 62139012 62647052 63107864 
1573.698 63497908 63789508 63955100 63976212 63857980 63634036 63359676 
1577.074 63083464 62827556 62580384 62308368 61968344 61521336 60945064 
1580.449 60235244 59406024 58480524 57483268 56431172 55331968 54189628 
1583.824 53011020 51808344 50599124 49399312 48217320 47053452 45903308 
1587.199 44765412 43647752 42567824 41549124 40613204 39772208 39027588 
1590.575 38373124 37800864 37304700 36879396 36516788 36199604 35899816 
1593.950 35584952 35222772 34793436 34295032 33742832 33162222 32577708 
1597.325 32007072 31458448 30933180 30433638 29966230 29542342 29174854 
1600.700 28871836 28633580 28453684 28324044 28238996 28197980 28202894 
1604.076 28252114 28334336 28427928 28501304 28521720 28464368 28315414 
1607.451 28075590 27755290 27369654 26931404 26450280 25935852 25401620 
1610.826 24867868 24360846 23904406 23513148 23187490 22914500 22672300 
1614.201 22437002 22190604 21923958 21639782 21350710 21076510 20837278 
1617.577 20647374 20514974 20441164 20421194 20444986 20497188 20559890 
1620.952 20613986 20646438 20654812 20650468 20654152 20688102 20765498 
1624.327 20886086 21038460 21207726 21383288 21560696 21740966 21926152 
1627.702 22115324 22303148 22482676 22649714 22806722 22961692 23125666 
1631.078 23305676 23500976 23700946 23887812 24041312 24142250 24178368 
1634.453 24147890 24061588 23938994 23804010 23676976 23568904 23482192 
1637.828 23412914 23353854 23294874 23224504 23133248 23015424 22872974 
1641.203 22715452 22557462 22412020 22285324 22173308 22062296 21932600 
1644.579 21763364 21541616 21266806 20955312 20635840 20341222 20098678 
1647.954 19921554 19811118 19759688 19755148 19781224 19814898 19826238 
1651.329 19773976 19614488 19323228 18924756 18501340 18147942 17920366 
1654.704 17812474 17783994 17787998 17790000 17772602 17731322 17672340 
1658.080 17604946 17536356 17467536 17393208 17304582 17193638 17056390 
1661.455 16894314 16712673 16519886 16324671 16135393 15959669 15804153 
1664.830 15673356 15568013 15483331 15409136 15329358 15226363 15085208 
1668.205 14899588 14674976 14428007 14181625 13955363 13760136 13596619 
1671.581 13459275 13338817 13224337 13104629 12967268 12800365 12597640 
1674.956 12363372 12115194 11877918 11674568 11515407 11396542 11303249 
1678.331 11217320 11124847 11020465 10909312 10803046 10713479 10643728 
1681.706 10583902 10511048 10395987 10214226 9962424 9667670 9380125 9145522 
1685.564 8981975 8879357 8812504 8757087 8695154 8618088 8525288 8419737 
1689.421 8306174 8188455 8071071 7959287 7859981 7779386 7720357 7678874 
1693.279 7642823 7594232 7513551 7388597 7224092 7044496 6884464 6769215 
1697.136 6703022 6668499 6637108 6575207 6456778 6273867 6044867 5811387 
1700.993 5614651 5476284 5391366 5340946 5303009 5261051 5205449 5131547 
1704.851 5040127 4935186 4823301 4711378 4605478 4510419 4428333 4358714 
1708.708 4299011 4245606 4195252 4147346 4103627 4068373 4045631 4037404 
1712.566 4042152 4055396 4071317 4084562 4092622 4094529 4090114 4077437 
1716.423 4052186 4009613 3948587 3874999 3801156 3740894 3703331 3690298 
1720.281 3696280 3711953 3727961 3738354 3741930 3741362 3742164 3748681 
1724.138 3762317 3781502 3802894 3823585 3842906 3861727 3880849 3899739 
1727.995 3915352 3923543 3921470 3909534 3891882 3874197 3860189 3847820 
1731.853 3827563 3783374 3699388 3567275 3396096 3212501 3050871 2935201 
1735.710 2869489 2842774 2837004 2836070 2827966 2807656 2776109 2738863 
1739.568 2702853 2673881 2655078 2647411 2650444 2663946 2686816 2717423 
1743.425 2752400 2788114 2821296 2851145 2879229 2908615 2942140 2980371 
1747.282 3020808 3058079 3086910 3102995 3104897 3093984 3073528 3046901 
1751.140 3017739 2989312 2964891 2948445 2943274 2950913 2969662 2994183 
1754.997 3017071 3030251 3028549 3012500 2988478 2966192 2953582 2953449 
1758.855 2962523 2973599 2977535 2967727 2942573 2905646 2864386 2826532 
1762.712 2797518 2779044 2770373 2769207 2773875 2782678 2793716 2804288 
1766.570 2811124 2812025 2806789 2798619 2792816 2793716 2802387 2814793 
1770.427 2823063 2817628 2792049 2746798 2691050 2638210 2599675 2580576 
1774.284 2577843 2584242 2592009 2596775 2598375 2599642 2604142 2612842 
1778.142 2623576 2632009 2633543 2626476 2612975 2598375 2588442 2586176 
1781.999 2590675 2597442 2601608 2599475 2590742 2578309 2566577 2559044 
1785.857 2557211 2560277 2567310 2577476 2591542 2610809 2634776 2660579 
1789.714 2682782 2693951 2688050 2662846 2622075 2574376 2529215 2493856 
1793.572 2469796 2454601 2443338 2432909 2422613 2413950 2408686 2407986 
1797.429 2410319 2412684 2411685 2405721 2395159 2382698 2371571 2363242 
1801.286 2357445 2352315 2346185 2338823 2332793 2331028 2336158 2349117 
1805.144 2367706 2388296 2407220 2422713 2434775 2445238 2455834 2466530 
1809.001 2476361 2482359 2482459 2476527 2466530 2455901 2447537 2442605 
1812.859 2439806 2437574 2434042 2429943 2427878 2431376 2443272 2464098 
1816.716 2491223 2520450 2547579 2570710 2590209 2608708 2629176 2652878 
1820.573 2679148 2705987 2730927 2752167 2769273 2782245 2791415 2796884 
1824.431 2798518 2797685 2797251 2801453 2814226 2837304 2868322 2901543 
1828.288 2928996 2943908 2943708 2932032 2916954 2908849 2914252 2934034 
1832.146 2963857 2996852 3027214 3052039 3072361 3091515 3112906 3138136 
1836.003 3166105 3194509 3221647 3248386 3278331 3316559 3367445 3432765 
1839.861 3510887 3597610 3687826 3777659 3863799 3944273 4017706 4082622 
1843.718 4138716 4187490 4233494 4282246 4339135 4406141 4480622 4556121 
1847.575 4623194 4673831 4702200 4707794 4693324 4664186 4624868 4577049 
1851.433 4520530 4453908 4377155 4292653 4204988 4118712 4036801 3959420 
1855.290 3884293 3808543 3731436 3654711 3582209 3517668 3462355 3414163 
1859.148 3368748 3321600 3270586 3217541 3167340 3125221 3094485 3074663 
1863.005 3061983 3051572 3039927 3026180 3012200 3000756 2992749 2986743 
1866.863 2978570 2963991 2941339 2913085 2884832 2863386 2853713 2855815 
1870.720 2866721 2881363 2896440 2910516 2924293 2938437 2952181 2962356 
1874.577 2964524 2954616 2931999 2899375 2863085 2830034 2804755 2788214 
1878.435 2778543 2771707 2765005 2757602 2751033 2747232 2746665 2747699 
1882.292 2746632 2740363 2727192 2708821 2688783 2670680 2656512 2645077 
1886.150 2633009 2616742 2595408 2570610 2546879 2529048 2520183 2519850 
1890.007 2525416 2532614 2539180 2544812 2550712 2558044 2565977 2571810 
1893.865 2572010 2564144 2549979 2533614 2522316 2521616 2533214 2555111 
1897.722 2581242 2606142 2626176 2641510 2654778 2669080 2686249 2704387 
1901.579 2720457 2731194 2736028 2737162 2738963 2744898 2756202 2770840 
1905.437 2784279 2792049 2792282 2786213 2777043 2768339 2761270 2754668 
1909.294 2745598 2731961 2714256 2696385 2683682 2680115 2686750 2700686 
1913.152 2716623 2729493 2736862 2738963 2738596 2738196 2737696 2735128 
1917.009 2726992 2711788 2691484 2671414 2657545 2653711 2658512 2666413 
1920.866 2669413 2661646 2641110 2612475 2583876 2563077 2555045 2558944 
1924.724 2570043 2582042 2591175 2596775 2601442 2607809 2616642 2626009 
1928.581 2631976 2631043 2621875 2607108 2590942 2577809 2569476 2564977 
1932.439 2560944 2555211 2547345 2539847 2536314 2538980 2546479 2555278 
1936.296 2560111 2557578 2548812 2538447 2532581 2535881 2548312 2566177 
1940.154 2583109 2594242 2597709 2596509 2595509 2598442 2606075 2615242 
1944.011 2621842 2624009 2624142 2627542 2640577 2666680 2703687 2744298 
1947.868 2779544 2802620 2812392 2812992 2811058 2812525 2818328 2824664 
1951.726 2825064 2814993 2793516 2765338 2736962 2713689 2697252 2683849 
1955.583 2667880 2644244 2612842 2577643 2544846 2519750 2503120 2491923 
1959.441 2481059 2467263 2451202 2437874 2432443 2436941 2448270 2458799 
1963.298 2460699 2450236 2430143 2408486 2395492 2398024 2416816 2445937 
1967.156 2477893 2505953 2529715 2552278 2577309 2605009 2630543 2645344 
1971.013 2642010 2619109 2582709 2545212 2519150 2511285 2521183 2541946 
1974.870 2566443 2592009 2624809 2675348 2752467 2856048 2973399 3082505 
1978.728 3162333 3197881 3187199 3139171 3069157 2990480 2912885 2840206 
1982.585 2774108 2718624 2681282 2669980 2690217 2738196 2801987 2862652 
1986.443 2902011 2910049 2888468 2849411 2808656 2779410 2765972 2763771 
1990.300 2763404 2756802 2741897 2723791 2711122 2709988 2720757 2736662 
1994.157 2747999 2747199 2733061 2710688 2689283 2676681 2676048 2683716 
1998.015 2693251 2698219 2696852 2692251 2690184 2694751 2705887 2718490 
2001.872 2724492 2719457 2703320 2681882 2664279 2658212 2666880 2686783 
2005.730 2710888 2732361 2749166 2764038 2782378 2810257 2849077 2895940 
2009.587 2944875 2990280 3028148 3059147 3085041 3107867 3127890 3144778 
2013.445 3157494 3167306 3177119 3189169 3204423 3220579 3231695 3231761 
2017.302 3218976 3197046 3176051 3167573 3179589 3213002 3260704 3310716 
2021.159 3350149 3373857 3381603 3380702 3378665 3380535 3385678 3391354 
2025.017 3393191 3390686 3387982 3390319 3401306 3420007 3439478 3451000 
2028.874 3449163 3435103 3417336 3408586 3419807 3455442 3510052 3572954 
2032.732 3632491 3682011 3722346 3758507 3798281 3845079 3896495 3946079 
2036.589 3987275 4016535 4034360 4045932 4054627 4062018 4065430 4060213 
2040.447 4043423 4017104 3986840 3961995 3949523 3951730 3964536 3981556 
2044.304 3996136 4005801 4013325 4024929 4046300 4079678 4121422 4164307 
2048.161 4202245 4230148 4247413 4256581 4259258 4256146 4245539 4225999 
2052.019 4198364 4167451 4142128 4131256 4141392 4172269 4218103 4267924 
2055.876 4311057 4340340 4354397 4355802 4348841 4336692 4320729 4299948 
2059.734 4274382 4246643 4221449 4204888 4201843 4212482 4232523 4254573 
2063.591 4271504 4278966 4277595 4270735 4264277 4262236 4265414 4272207 
2067.448 4280003 4286897 4293021 4299479 4307711 4317349 4326887 4332810 
2071.306 4333145 4327724 4318487 4308682 4301219 4297438 4296434 4296367 
2075.163 4296066 4295396 4296267 4300550 4309251 4320629 4331806 4338801 
2079.021 4340039 4336558 4331572 4329966 4335555 4349142 4369223 4392351 
2082.878 4414944 4434827 4451665 4465156 4474798 4479384 4476572 4465223 
2086.736 4446376 4423178 4400618 4382979 4371566 4363768 4354430 4337730 
2090.593 4310790 4275185 4236907 4204687 4185550 4182974 4195486 4217936 
2094.450 4243565 4266285 4283885 4296467 4305804 4314069 4322670 4331706 
2098.308 4341947 4354095 4368922 4387899 4410961 4436334 4461842 4485544 
2102.165 4506836 4527460 4550094 4576915 4607689 4640005 4669343 4691951 
2106.023 4706388 4714627 4722030 4734725 4756633 4788759 4828427 4870779 
2109.880 4910822 4945239 4972453 4992630 5005568 5010998 5007210 4994507 
2113.738 4973727 4949228 4926372 4910755 4905829 4911928 4926170 4944167 
2117.595 4962499 4978955 4993200 5006909 5020383 5032953 5043210 5049345 
2121.452 5051155 5051322 5053702 5062720 5081191 5109017 5143182 5179495 
2125.310 5214235 5245356 5273058 5298448 5321759 5342288 5357148 5363655 
2129.167 5360033 5347755 5329977 5312568 5300695 5297844 5306162 5325885 
2133.025 5356343 5396666 5445079 5499034 5553164 5601225 5636469 5655401 
2136.882 5658221 5649258 5636234 5625761 5622136 5625056 5632072 5639221 
2140.740 5644222 5648721 5655569 5668358 5688265 5712605 5736039 5753465 
2144.597 5760953 5758401 5748865 5736610 5724322 5712538 5699579 5682390 
2148.454 5660772 5635361 5608441 5581020 5551955 5516786 5470613 5409884 
2152.312 5334371 5248173 5157599 5067078 4977648 4887700 4794287 4700158 
2156.169 4616764 4562249 4561211 4632436 4781121 4991658 5233518 5468130 
2160.027 5660805 5791407 5855917 5862466 5827540 5766862 5694980 5622136 
2163.884 5555647 5499638 5457259 5426794 5403375 5381100 5352955 5315084 
2167.741 5268363 5217689 5169637 5128798 5095808 5065871 5033154 4991491 
2171.599 4939375 4880261 4821157 4768592 4726820 4695904 4672123 4651727 
2175.456 4633341 4617702 4608526 4608024 4614051 4621720 4624031 4614989 
2179.314 4592921 4561043 4525685 4492406 4463984 4437438 4407279 4369022 
2183.171 4321231 4268024 4216664 4174711 4145941 4130286 4122994 4118913 
2187.029 4116237 4115802 4122024 4138883 4167752 4204519 4243732 4277929 
2190.886 4303294 4320495 4333714 4349041 4369825 4396334 4424852 4451029 
2194.743 4470512 4482598 4488590 4491804 4493712 4495286 4495319 4491905 
2198.601 4485343 4477341 4470512 4467533 4469240 4473492 4476873 4476371 
2202.458 4470579 4461139 4451230 4443933 4439882 4438476 4436735 4433187 
2206.316 4427697 4423178 4423246 4431547 4448117 4469809 4491770 4508611 
2210.173 4517650 4520161 4519492 4520965 4528264 4542359 4561646 4583243 
2214.031 4603469 4621218 4635183 4646033 4653033 4656683 4655679 4649785 
2217.888 4639704 4626643 4611741 4595901 4578321 4557460 4531947 4502685 
2221.745 4471383 4442426 4419664 4405036 4397874 4395162 4392184 4385657 
2225.603 4374511 4360588 4346833 4336759 4331605 4331204 4334116 4338566 
2229.460 4344089 4351351 4361291 4373808 4388067 4401187 4409890 4413003 
2233.318 4410425 4404769 4399179 4396870 4399514 4407647 4420133 4436267 
2237.175 4456050 4479384 4505966 4534859 4563354 4588367 4608157 4622055 
2241.032 4632068 4640876 4651693 4665258 4681200 4697143 4711278 4723537 
2244.890 4736366 4752848 4776833 4809397 4848932 4891018 4930393 4962499 
2248.747 4985223 4998831 5004998 5005132 5000741 4992127 4980263 4966890 
2252.605 4954858 4947351 4947049 4953216 4962566 4970677 4972185 4964510 
2256.462 4948591 4927545 4905829 4887365 4873158 4861665 4850909 4838680 
2260.320 4824574 4810201 4798308 4790669 4788324 4789932 4793249 4796800 
2264.177 4799782 4802328 4805477 4809330 4812613 4813350 4809598 4800251 
2268.034 4786884 4772277 4759715 4752077 4750134 4752446 4756499 4760083 
2271.892 4761390 4760318 4757940 4754757 4751642 4748526 4745779 4743770 
2275.749 4744138 4748024 4756801 4770736 4788726 4808995 4830806 4853791 
2279.607 4879055 4908175 4942089 4979726 5018875 5055278 5085415 5107005 
2283.464 5119880 5125244 5125177 5120953 5112672 5100300 5083337 5063122 
2287.322 5041702 5022797 5009288 5002953 5003389 5007914 5013646 5017802 
2291.179 5019545 5019545 5019646 5021355 5025277 5030908 5036607 5040931 
2295.036 5043244 5044417 5045858 5049948 5057591 5069391 5084879 5102614 
2298.894 5120618 5137381 5150893 5159846 5163131 5160617 5153039 5142679 
2302.751 5132050 5123936 5119947 5120416 5124070 5129133 5133793 5137214 
2306.609 5139829 5143081 5147909 5154883 5162562 5169335 5173090 5172688 
2310.466 5168329 5161656 5154783 5149317 5146199 5145260 5145294 5145864 
2314.323 5146266 5146702 5147440 5148513 5149150 5148546 5145763 5140835 
2318.181 5134464 5128831 5125613 5126786 5133156 5144053 5157767 5171548 
2322.038 5181976 5185061 5177349 5155822 5118740 5066978 5003557 4933946 
2325.896 4864479 4801222 4748727 4708464 4679425 4658057 4640977 4625471 
2329.753 4610200 4596002 4584014 4575174 4569749 4566802 4565463 4564994 
2333.611 4565764 4568778 4574738 4584081 4595466 4607755 4619477 4629925 
2337.468 4639838 4650588 4663549 4679190 4696909 4715096 4732481 4748493 
2341.325 4763902 4779614 4796699 4814992 4832984 4849066 4862603 4874699 
2345.183 4889577 4911895 4946748 4996585 5060441 5134162 5212189 5288016 
2349.040 5355772 5412132 5454675 5482927 5497927 5501517 5496484 5485478 
2352.898 5471217 5455514 5439811 5424042 5407871 5390929 5373585 5356880 
2356.755 5343059 5334606 5333700 5340744 5355102 5374290 5395727 5416929 
2360.613 5435819 5452427 5466888 5479471 5490880 5501886 5512926 5525007 
2364.470 5539035 5555681 5575247 5597298 5620994 5645632 5671245 5698236 
2368.327 5728082 5762027 5800440 5842887 5887958 5933402 5977676 6019535 
2372.185 6058374 6094092 6126822 6156630 6183617 6208758 6233833 6261295 
2376.042 6293802 6333204 6380040 6433338 6490813 6549877 6608444 6665538 
2379.900 6721395 6776922 6832793 6889311 6945837 7001696 7055743 7107912 
2383.757 7158537 7207989 7256638 7304383 7350077 7392641 7430896 7464536 
2387.615 7493088 7517192 7536914 7552490 7563582 7570393 7573259 7573495 
2391.472 7572585 7572113 7573023 7575114 7577372 7578654 7578114 7575754 
2395.329 7572787 7570528 7570461 7573259 7578958 7587454 7598446 7612237 
2399.187 7629637 7651321 7677693 7708114 7741742 7777362 7814436 7853335 
2403.044 7895037 7941064 7991685 8046532 8103748 8161816 8219351 8276285 
2406.902 8334410 8396597 8465211 8542048 8626739 8717667 8812098 8907292 
2410.759 9001087 9092432 9180819 9266345 9348639 9427697 9502571 9572614 
2414.616 9637552 9696808 9750210 9798094 9840527 9878523 9913132 9945541 
2418.474 9976731 10007313 10036712 10063602 10086662 10104433 10116404 
2421.849 10123221 10126037 10126206 10125426 10124612 10124985 10127223 
2425.224 10133362 10145097 10164837 10194111 10233325 10282042 10339045 
2428.600 10402978 10473607 10551513 10637310 10731819 10834536 10943563 
2431.975 11056186 11169653 11282165 11393685 11505847 11620759 11741047 
2435.350 11868315 12002978 12144326 12291754 12443868 12599959 12759450 
2438.725 12920638 13082023 13241998 13399333 13554092 13707846 13863059 
2442.101 14022604 14188643 14361664 14540852 14724194 14909464 15094745 
2445.476 15279453 15463484 15646975 15830338 16013263 16195061 16375661 
2448.851 16555028 16733265 16911298 17089820 17268586 17447564 17625994 
2452.226 17802498 17976584 18147354 18313908 18475338 18630154 18777032 
2455.602 18914546 19041684 19157674 19262332 19355586 19437006 19505724 
2458.977 19561282 19602252 19628424 19639724 19636572 19619446 19589566 
2462.352 19547590 19494670 19432676 19363624 19290424 19216302 19143822 
2465.727 19075266 19011498 18953518 18901362 18855750 18817930 18790180 
2469.103 18775406 18776202 18795578 18834884 18894924 18975186 19074574 
2472.478 19190952 19321358 19463134 19612756 19767422 19924676 20082474 
2475.853 20239286 20393446 20543528 20687512 20823754 20950512 21066596 
2479.228 21171264 21263954 21343854 21410124 21461400 21496910 21515886 
2482.604 21519610 21509966 21489878 21462340 21429408 21391918 21350014 
2485.979 21302822 21250278 21193078 21132232 21069692 21006638 20942828 
2489.354 20876874 20806270 20728240 20640810 20543354 20436128 20320942 
2492.729 20199262 20072270 19939940 19801720 19656470 19502604 19339512 
2496.104 19166608 18983806 18792360 18593424 18388532 18180072 17969988 
2499.480 17759866 17550778 17342582 17135246 16927938 16720558 16513655 
2502.855 16308708 16107677 15912030 15722964 15541158 15365881 15197092 
2506.230 15034989 14879838 14732866 14595059 14466715 14347108 14235443 
2509.605 14129900 14029413 13933500 13842157 13756135 13675703 13600961 
2512.981 13531634 13467136 13407055 13351494 13301474 13257643 13221434 
2516.356 13193391 13173752 13162345 13158383 13161319 13170063 13184032 
2519.731 13202443 13224337 13249513 13277731 13308819 13343260 13381188 
2523.106 13422194 13465769 13510919 13556246 13600722 13643255 13683294 
2526.482 13719953 13752441 13779392 13799230 13810962 13813972 13808533 
2529.857 13796048 13777784 13755144 13729562 13700905 13669412 13635014 
2533.232 13597679 13558092 13517619 13477184 13438017 13401110 13366870 
2536.607 13335606 13307658 13282787 13260445 13239948 13219931 13199061 
2539.983 13176826 13153362 13129729 13107770 13089467 13075637 13066793 
2543.358 13061500 13057642 13053442 13047023 13037633 13025444 13011070 
2546.733 12995263 12978671 12962012 12945387 12929445 12914494 12900875 
2550.108 12888792 12878211 12868893 12860906 12854251 12849336 12846607 
2553.484 12846231 12847425 12849269 12850224 12849029 12845139 12838894 
2556.859 12831726 12824969 12819679 12815755 12812035 12806644 12797225 
2560.234 12782244 12760951 12733518 12701037 12664772 12626395 12587305 
2563.609 12548935 12512580 12479399 12450075 12424706 12402545 12382736 
2566.985 12364021 12345748 12328226 12312409 12299696 12291481 12288823 
2570.360 12291788 12299662 12311557 12326011 12342169 12359180 12376464 
2573.735 12393374 12409432 12424195 12437458 12449529 12460440 12470840 
2577.110 12481581 12492835 12505214 12519912 12537612 12559712 12587168 
2580.486 12620084 12657983 12698888 12740854 12781288 12819134 12853740 
2583.861 12886164 12917941 12950848 12986045 13024215 13065188 13108487 
2587.236 13153704 13200872 13250059 13301748 13356175 13413070 13472433 
2590.611 13533719 13596107 13659120 13721833 13783325 13842465 13898431 
2593.987 13950608 13999128 14044814 14088861 14132707 14177346 14222947 
2597.362 14269033 14314781 14359301 14402250 14444004 14485488 14528107 
2600.737 14573231 14621821 14674290 14730672 14790318 14852373 14915945 
2604.112 14980247 15044593 15108570 15172044 15235526 15299909 15365915 
2607.488 15434679 15507024 15583537 15664220 15749212 15838036 15930109 
2610.863 16024573 16120434 16216487 16311908 16405836 16497927 16587935 
2614.238 16676037 16761778 16844678 16923840 16998396 17067660 17132178 
2617.613 17192672 17250968 17308650 17366962 17425836 17484990 17543050 
2620.989 17599218 17653360 17705814 17757724 17810610 17864810 17920470 
2624.364 17976652 18032084 18085622 18136542 18185014 18231866 18278034 
2627.739 18324346 18371214 18418814 18467040 18515516 18564238 18613346 
2631.114 18662736 18712650 18763124 18813674 18864262 18914478 18963798 
2634.490 19012224 19059202 19104626 19148428 19190952 19232616 19274110 
2637.865 19315850 19358530 19402114 19446570 19491758 19537644 19584332 
2641.240 19632514 19682506 19735244 19790656 19848506 19908164 19968942 
2644.615 20030284 20091842 20153516 20215646 20278410 20342054 20406330 
2647.990 20471172 20536442 20602346 20669266 20737728 20808112 20880592 
2651.366 20954652 21029696 21105100 21179962 21254070 21327218 21400136 
2654.741 21473306 21547812 21624284 21703484 21785346 21869594 21955880 
2658.116 22043160 22130664 22217314 22302380 22385506 22466346 22545246 
2661.491 22622558 22698692 22773760 22848386 22922430 22995964 23068986 
2664.867 23141460 23213354 23285330 23357176 23429350 23502094 23575026 
2668.242 23648004 23720648 23792776 23864182 23935284 24006470 24078434 
2671.617 24151570 24225836 24301064 24376968 24452816 24528748 24604832 
2674.992 24681668 24759746 24839486 24920606 25002306 25083706 25164102 
2678.368 25242896 25320478 25397720 25475750 25556008 25639442 25726446 
2681.743 25817404 25912392 26011268 26114530 26222606 26335812 26454716 
2685.118 26579538 26709996 26846240 26988096 27135360 27287894 27445356 
2688.493 27607074 27772208 27940058 28109842 28281428 28454886 28630784 
2691.869 28809692 28992642 29179954 29372242 29569828 29772862 29981210 
2695.244 30194704 30412850 30634732 30859856 31087412 31317330 31549652 
2698.619 31784844 32023262 32265134 32510176 32757894 33007360 33257794 
2701.994 33508942 33760596 34012824 34265308 34518296 34770572 35020980 
2705.370 35267940 35510080 35745596 35973532 36192796 36402988 36603908 
2708.745 36795688 36978608 37153080 37319864 37479308 37631760 37777368 
2712.120 37916008 38047528 38171964 38288908 38398428 38499900 38592628 
2715.495 38675456 38747288 38806992 38853988 38888232 38910300 38921460 
2718.871 38923200 38917112 38905080 38889100 38871092 38853336 38838228 
2722.246 38827864 38824496 38830216 38846200 38873592 38913088 38964736 
2725.621 39028352 39103936 39190960 39288664 39397020 39515456 39643432 
2728.996 39781072 39927472 40081732 40242956 40409512 40579808 40752716 
2732.372 40926820 41101256 41275100 41447628 41617748 41784432 41946360 
2735.747 42102764 42252980 42397220 42535404 42668336 42796296 42919612 
2739.122 43038680 43154272 43266964 43378148 43489216 43601628 43716672 
2742.497 43835484 43958216 44085384 44217504 44354692 44498088 44648144 
2745.873 44805308 44969432 45139944 45315120 45492608 45669912 45844052 
2749.248 46012256 46171976 46321248 46458400 46582760 46693836 46791728 
2752.623 46876984 46950184 47011768 47062208 47101680 47130044 47147256 
2755.998 47152756 47145668 47124948 47089456 47037800 46968572 46881008 
2759.374 46774496 46648864 46504424 46341336 46160516 45963044 45750128 
2762.749 45523812 45286468 45040844 44790244 44538032 44286844 44039688 
2766.124 43798836 43566060 43342964 43131144 42931792 42746092 42575276 
2769.499 42420384 42282344 42161984 42059836 41976140 41910596 41862028 
2772.875 41828720 41808508 41799024 41797600 41802452 41811464 41823572 
2776.250 41837292 41851192 41863488 41872320 41874800 41868416 41850756 
2779.625 41820036 41774728 41714904 41641196 41555248 41459876 41358404 
2783.000 41253928 41149844 41048988 40953112 40863188 40779468 40701040 
2786.375 40626740 40554924 40483960 40411768 40336168 40255424 40167644 
2789.751 40071740 39967032 39854208 39734268 39609092 39481380 39353664 
2793.126 39228492 39108252 38995072 38890552 38795908 38712188 38639748 
2796.501 38578944 38529516 38491568 38465036 38450228 38447476 38457760 
2799.876 38481940 38520500 38573872 38641196 38721460 38812684 38912656 
2803.252 39018852 39129316 39242276 39357148 39473504 39592032 39713428 
2806.627 39837976 39965540 40094776 40223436 40348680 40466940 40575548 
2810.002 40672220 40755556 40825216 40881788 40925876 40957952 40978632 
2813.377 40987812 40985808 40972480 40948812 40915792 40875380 40830024 
2816.753 40782452 40735900 40694124 40660868 40640200 40636380 40653116 
2820.128 40693796 40760652 40854484 40975392 41121872 41292300 41484080 
2823.503 41694408 41920412 42158988 42406828 42660292 42915736 43169680 
2826.878 43418756 43660352 43893068 44116116 44329884 44535608 44735184 
2830.254 44930700 45124760 45319936 45518552 45722920 45935348 46157972 
2833.629 46393540 46644916 46915488 47209160 47530796 47884632 48275932 
2837.004 48709584 49190564 49725064 50320148 50984496 51729876 52569988 
2840.379 53521676 54604540 55839448 57249508 58859788 60694688 62780424 
2843.755 65141620 67798560 70763352 74032824 77582728 81355256 85256400 
2847.130 89158152 92887832 96254456 99063544 101128056 102309368 102528464 
2850.505 101778832 100125160 97694512 94661280 91206816 87517264 83761336 
2853.880 80069680 76547768 73268976 70275608 67589576 65213336 63135536 
2857.256 61333664 59778836 58439732 57282584 56276688 55394900 54612284 
2860.631 53909732 53271200 52683880 52138636 51628700 51149336 50698384 
2864.006 50275096 49880432 49517240 49189420 48902632 48662956 48476720 
2867.381 48349444 48284452 48282636 48341664 48456416 48618448 48816940 
2870.757 49039452 49271248 49497112 49702400 49873592 50000568 50078424 
2874.132 50107576 50093336 50046076 49978712 49903512 49832300 49773812 
2877.507 49734128 49716964 49724652 49758428 49819668 49909420 50028232 
2880.882 50176156 50352892 50556984 50786496 51038676 51309872 51595452 
2884.258 51890108 52188140 52483720 52772468 53051448 53320160 53580640 
2887.633 53836396 54092944 54355880 54630768 54922904 55236872 55577652 
2891.008 55950544 56362200 56821452 57339148 57928032 58603596 59382124 
2894.383 60278868 61307944 62477408 63787320 65225124 66764288 68361632 
2897.759 69956192 71478960 72854320 74009320 74889368 75460768 75719800 
2901.134 75690856 75425800 74994624 74470680 73930912 73442816 73059152 
2904.509 72823792 72768272 72914552 73280672 73880160 74724600 75825136 
2907.884 77193256 78841448 80784520 83037536 85614320 88522472 91759096 
2911.260 95302344 99104840 103096000 107171584 111200176 115040400 118535240 
2914.635 121537472 123928968 125623120 126582768 126819608 126391904 
2917.528 125389904 123919584 122096720 120022800 117781968 115440200 
2920.421 113038600 110601768 108141608 105661744 103164312 100654104 
2923.314 98140824 95640848 93176488 90771288 88449832 86232944 84134632 
2926.689 82163216 80320560 78602976 77003160 75511272 74116088 72804872 
2930.064 71565136 70384496 69251512 68156552 67092120 66052348 65032764 
2933.440 64029960 63040628 62062176 61092940 60132748 59182692 58245960 
2936.815 57326180 56426904 55551628 54702732 53882496 53093532 52339644 
2940.190 51625380 50956736 50339164 49777528 49274548 48830732 48443564 
2943.565 48108296 47817600 47562624 47332480 47116564 46904556 46688636 
2946.941 46465184 46235952 46008092 45792944 45605508 45460820 45370988 
2950.316 45344688 45384964 45489224 45649412 45853588 46087372 46333484 
2953.691 46574976 46796008 46981380 47119960 47203324 47226260 47187364 
2957.066 47087388 46929700 46719332 46463084 46169360 45847072 45505708 
2960.442 45154648 44801376 44452204 44111460 43781864 43465300 43162764 
2963.817 42875616 42605320 42352948 42119520 41905488 41710784 41534576 
2967.192 41376112 41234364 41108720 40998916 40905088 40827948 40768548 
2970.567 40728624 40710172 40715376 40745544 40801560 40882336 40985008 
2973.943 41104056 41231632 41358108 41471540 41560060 41611984 41617124 
2977.318 41568668 41463960 41305012 41098120 40853720 40585120 40305920 
2980.693 40030028 39769452 39533272 39327548 39154696 39013596 38899608 
2984.068 38805036 38721024 38637100 38543564 38433032 38300304 38143564 
2987.444 37964424 37766816 37555748 37336292 37112876 36887552 36660580 
2990.819 36430300 36194056 35949304 35694688 35430696 35160288 34888180 
2994.194 34619836 34360548 34114028 33881696 33662372 33452790 33248742 
2997.569 33045828 32840542 32631070 32416948 32199186 31979676 31760924 
3000.945 31545270 31334710 31130732 30934568 30746424 30566610 30394938 
3004.320 30231112 30074806 29925830 29783898 29648540 29519288 29395430 
3007.695 29276426 29161884 29051940 28946914 28847650 28754674 28668124 
3011.070 28587856 28512626 28441372 28372712 28305582 28239456 28174220 
3014.446 28110162 28047456 27986138 27926558 27868720 27812972 27760024 
3017.821 27710436 27665126 27624800 27589632 27559376 27533640 27511716 
3021.196 27492936 27476630 27462262 27449626 27438366 27428732 27421214 
3024.571 27416910 27417296 27424072 27439214 27464168 27499714 27545288 
3027.947 27599448 27659228 27720748 27779804 27831660 27872888 27900554 
3031.322 27913520 27911790 27896774 27870488 27835476 27794110 27748402 
3034.697 27699770 27649976 27600190 27551678 27505468 27462156 27421956 
3038.072 27384652 27349820 27317464 27287720 27261258 27238856 27221358 
3041.448 27208694 27200650 27196736 27195606 27196594 27199416 27204002 
3044.823 27210280 27218146 27227284 27236950 27247182 27257694 27269302 
3048.198 27282990 27299856 27320744 27345798 27374416 27405720 27438720 
3051.573 27472816 27507552 27542606 27577770 27612194 27645068 27675366 
3054.948 27702420 27726718 27749180 27771432 27795064 27821486 27851408 
3058.324 27885112 27922674 27964192 28010630 28062478 28120554 28185002 
3061.699 28255154 28329772 28407094 28485700 28564676 28643704 28723096 
3065.074 28802964 28883414 28963740 29043048 29120318 29194412 29265154 
3068.449 29332608 29397166 29459464 29519926 29578696 29635556 29690190 
3071.825 29742418 29792308 29840006 29886112 29931618 29977766 30025590 
3075.200 30076048 30129316 30185610 30243864 30303370 30362530 30420666 
3078.575 30477246 30531986 30585132 30636970 30687782 30737926 30787468 
3081.950 30836768 30886254 30936242 30987088 31038868 31091362 31144364 
3085.326 31197906 31251882 31307004 31364198 31424250 31487978 31555496 
3088.701 31626158 31699256 31774040 31849730 31926360 32004074 32083266 
3092.076 32163932 32246254 32329668 32413450 32497570 32581672 32666326 
3095.451 32752070 32839686 32929894 33023056 33118986 33217158 33316676 
3098.827 33416144 33514022 33609280 33700648 33788532 33873452 33957072 
3102.202 34041420 34128188 34218772 34313464 34411940 34513384 34616604 
3105.577 34720932 34825712 34930660 35035420 35139704 35242788 35344388 
3108.952 35444068 35541800 35638180 35734440 35831368 35930336 36032132 
3112.328 36136908 36244624 36354852 36466444 36578348 36689528 36798900 
3115.703 36906308 37011944 37116520 37221160 37326728 37433692 37541404 
3119.078 37648960 37754708 37857296 37956108 38051364 38144000 38235572 
3122.453 38327268 38420252 38514852 38611496 38709904 38810580 38913672 
3125.829 39019360 39127720 39238176 39349928 39462112 39573664 39684164 
3129.204 39793200 39900736 40006524 40110660 40212968 40313704 40413440 
3132.579 40513204 40614548 40718796 40827292 40940548 41058460 41180260 
3135.954 41305124 41431808 41559076 41685580 41810332 41932164 42050672 
3139.330 42165452 42277416 42387540 42497108 42607656 42719808 42833996 
3142.705 42950260 43068352 43188200 43309832 43433000 43557192 43681788 
3146.080 43805396 43927276 44047060 44165816 44285232 44407428 44534432 
3149.455 44666764 44803760 44943156 45082044 45217816 45348624 45474032 
3152.831 45594796 45712284 45828000 45943264 46058712 46174520 46290612 
3156.206 46406776 46522196 46636432 46748700 46858680 46966468 47073580 
3159.581 47181420 47292208 47407860 47528876 47654612 47783348 47912676 
3162.956 48040416 48165340 48287596 48408000 48528256 48649244 48771600 
3166.332 48894884 49018272 49140400 49261040 49379784 49496888 49612392 
3169.707 49726660 49839324 49949900 50057972 50163252 50265908 50366768 
3173.082 50466496 50566104 50666176 50766684 50867360 50967244 51065396 
3176.457 51161076 51253904 51344028 51432232 51519524 51606832 51695052 
3179.833 51784112 51873868 51963896 52053984 52143864 52233652 52323232 
3183.208 52412348 52499908 52585284 52667308 52745904 52821936 52897040 
3186.583 52973472 53052948 53136112 53222056 53309480 53395576 53478504 
3189.958 53557096 53631736 53703532 53774252 53845324 53917568 53991552 
3193.333 54066712 54142600 54218872 54294748 54369620 54443004 54514224 
3196.709 54582824 54649292 54713932 54777864 54841656 54905912 54970548 
3200.084 55035008 55098836 55161884 55224604 55287860 55352028 55417372 
3203.459 55482992 55547376 55608756 55666192 55719832 55770540 55820080 
3206.834 55870012 55921148 55973648 56026420 56078936 56130628 56181984 
3210.210 56233576 56286528 56340772 56396380 56452448 56508148 56562832 
3213.585 56616808 56670564 56724632 56779080 56833272 56885884 56935708 
3216.960 56981608 57023088 57061292 57097304 57132940 57169976 57210004 
3220.335 57253780 57302284 57355864 57414096 57476764 57542276 57609312 
3223.711 57676172 57741564 57804696 57865752 57925228 57983920 58042468 
3227.086 58101588 58161548 58222888 58285708 58350132 58415816 58482568 
3230.461 58549032 58614024 58676828 58736756 58794532 58850836 58906996 
3233.836 58963764 59021912 59081436 59142560 59205740 59271476 59340300 
3237.212 59412480 59487064 59562308 59636348 59707128 59773856 59837244 
3240.587 59898892 59960932 60024800 60091008 60158820 60226756 60293484 
3243.962 60358552 60422784 60487296 60553764 60623172 60695636 60770328 
3247.337 60846404 60923484 61001264 61080316 61161024 61243080 61325764 
3250.713 61407548 61486864 61562952 61635308 61704432 61770852 61835032 
3254.088 61896508 61954892 62009696 62060872 62109192 62155908 62202632 
3257.463 62250584 62300376 62351624 62403308 62454680 62504464 62552252 
3260.838 62597372 62640012 62680088 62718020 62754272 62789380 62824188 
3264.214 62858732 62892772 62925368 62955128 62980676 63001588 63018292 
3267.589 63031776 63044152 63056872 63070664 63085260 63100084 63113420 
3270.964 63124956 63134648 63143312 63151932 63161740 63173012 63185500 
3274.339 63198380 63210024 63219652 63226508 63230380 63232028 63232868 
3277.715 63234060 63237892 63245864 63258932 63277676 63301676 63329696 
3281.090 63360176 63391880 63423940 63456260 63489208 63523412 63559504 
3284.465 63597940 63638756 63682528 63729532 63780604 63836096 63896208 
3287.840 63960240 64026968 64095244 64163724 64232484 64302556 64375416 
3291.216 64453164 64537300 64628304 64725904 64829180 64937444 65049620 
3294.591 65166256 65287112 65412596 65542928 65677852 65817400 65961704 
3297.966 66111452 66267044 66428824 66596852 66769816 66946440 67125144 
3301.341 67305128 67486416 67670264 67858440 68052720 68254608 68464688 
3304.717 68682864 68908768 69141592 69380440 69624160 69871648 70121768 
3308.092 70373704 70627384 70883360 71142928 71407560 71678416 71955744 
3311.467 72239144 72527472 72819680 73115528 73415080 73719384 74029008 
3314.842 74344168 74664272 74988200 75314616 75642976 75972768 76304424 
3318.218 76637680 76972344 77306944 77640016 77969976 78295944 78617992 
3321.593 78937088 79254120 79569432 79883384 80195048 80504344 80811184 
3324.968 81116088 81420208 81724816 82029712 82334152 82636400 82934160 
3328.343 83225272 83507976 83781184 84043104 84292624 84527928 84747808 
3331.719 84951680 85139808 85313136 85472976 85619680 85752144 85868824 
3335.094 85967232 86045592 86103920 86143520 86166392 86174632 86168808 
3338.469 86147728 86109056 86049832 85967840 85862408 85733624 85582600 
3341.844 85410536 85217808 85004224 84769272 84512632 84234216 83934112 
3345.219 83612368 83268296 82901440 82511136 82097840 81663504 81211544 
3348.595 80745856 80270896 79789760 79304192 78814392 78320152 77820800 
3351.970 77316200 76806536 76292696 75775112 75254720 74732472 74210104 
3355.345 73689576 73173880 72665448 72166288 71677560 71198944 70730048 
3358.720 70270512 69820672 69381840 68955792 68543672 68146240 67762736 
3362.096 67391368 67030752 66679752 66338180 66006712 65686600 65378160 
3365.471 65081640 64796136 64520232 64253040 63993760 63742116 63497872 
3368.846 63260736 63029780 62803820 62581412 62360920 62140924 61919812 
3372.221 61696256 61468540 61235260 60995204 60748340 60495068 60236616 
3375.597 59973864 59707360 59435884 59157744 58870492 58571896 58260624 
3378.972 57936700 57600764 57253400 56895100 56524828 56140996 55741908 
3382.347 55326172 54893952 54446840 53987912 53520892 53049916 52578740 
3385.722 52109832 51645304 51185604 50730300 50278556 49829176 49381160 
3389.098 48933892 48487612 48042672 47600332 47161512 46727004 46297504 
3392.473 45873512 45455416 45043856 44639296 44242008 43851796 43467532 
3395.848 43087968 42710924 42335452 41960812 41587296 41215528 40846588 
3399.223 40480976 40118800 39759540 39402640 39047888 38695164 38344968 
3402.599 37997876 37653912 37312680 36973264 36634804 36296604 35959132 
3405.974 35623256 35290404 34961976 34638960 34321136 34008024 33698572 
3409.349 33391490 33086446 32783404 32483074 32186270 31893876 31606380 
3412.724 31323846 31046802 30774984 30508704 30248838 29996050 29751394 
3416.100 29515742 29288688 29069124 28854838 28642748 28429876 28214068 
3419.475 27994266 27771538 27548572 27328508 27114692 26909476 26713344 
3422.850 26525014 26342432 26162882 25983758 25803480 25621306 25437522 
3426.225 25253116 25069032 24887342 24709130 24536146 24369468 24209510 
3429.601 24056054 23907696 23762992 23620156 23477576 23334904 23192278 
3432.976 23050398 22910242 22772328 22636972 22503754 22371726 22239984 
3436.351 22107828 21974526 21839872 21703832 21566756 21429512 21292836 
3439.726 21157974 21025800 20897038 20771998 20649948 20530120 20411922 
3443.102 20294034 20176248 20057488 19937616 19815070 19689302 19559168 
3446.477 19424636 19286924 19148496 19012502 18882188 18759458 18644922 
3449.852 18537506 18434786 18334334 18234080 18132776 18029734 17925406 
3453.227 17820104 17713754 17606154 17497374 17387552 17277170 17167646 
3456.603 17060182 16955432 16853704 16754271 16656308 16559228 16462170 
3459.978 16365236 16268805 16172498 16076488 15980294 15883125 15784876 
3463.353 15685689 15586353 15487932 15391284 15296614 15203577 15111453 
3466.728 15018936 14925239 14829881 14732900 14635324 14538111 14441880 
3470.104 14347794 14255987 14166254 14078182 13991326 13904727 13817905 
3473.479 13730554 13643083 13556314 13471613 13390311 13313535 13241930 
3476.854 13175083 13112073 13052008 12993180 12934736 12875651 12815687 
3480.229 12754708 12692679 12630352 12568239 12507396 12448574 12392214 
3483.604 12338623 12286778 12235790 12184160 12131072 12076082 12019873 
3486.980 11963944 11909724 11859053 11812848 11771549 11735056 11702820 
3490.355 11674738 11650709 11631105 11615757 11604492 11596597 11591016 
3493.730 11586184 11581318 11575771 11569713 11563929 11560050 11559641 
3497.105 11564643 11576553 11596222 11624197 11660409 11703534 11752417 
3500.481 11804847 11859394 11914560 11970040 12026413 12084701 12146882 
3503.856 12214489 12289027 12371418 12461633 12559133 12663032 12772041 
3507.231 12885003 13001169 13119791 13241451 13367383 13498546 13636827 
3510.606 13783120 13937161 14097760 14262664 14429377 14595161 14758369 
3513.982 14917934 15073373 15224716 15372026 15514853 15653331 15787214 
3517.357 15916634 16042417 16164554 16283080 16396511 16502263 16596645 
3520.732 16675794 16736122 16774727 16790844 16784576 16757645 16712086 
3524.107 16650042 16573031 16481476 16374663 16251331 16110014 15950080 
3527.483 15771819 15577286 15369863 15152692 14929216 14701538 14471100 
3530.858 14237669 14001762 13763830 13524866 13286339 13049208 12813981 
3534.233 12580347 12347078 12113559 11879110 11644855 11412393 11184136 
3537.608 10962082 10747884 10542449 10346273 10159004 9980766 9811006 
3540.984 9648935 9493326 9342376 9193915 9046419 8897958 8747621 8595004 
3544.841 8440007 8282162 8122247 7960670 7799795 7642384 7492515 7353683 
3548.698 7228068 7115995 7015165 6921731 6831009 6738490 6641784 6540492 
3552.556 6435995 6331490 6229934 6133072 6042011 5956445 5875497 5798325 
3556.413 5723852 5651104 5579577 5508397 5436892 5364427 5291069 5216951 
3560.271 5143249 5071369 5002283 4937062 4876040 4818744 4764002 4710340 
3564.128 4655277 4596069 4530071 4454511 4368319 4272341 4169258 4064159 
3567.986 3962062 3867577 3783107 3708845 3642615 3581774 3523480 3465595 
3571.843 3407183 3348145 3289382 3231594 3175317 3120448 3066521 3013201 
3575.700 2959654 2905746 2851612 2797318 2743131 2689217 2635443 2582042 
3579.558 2529182 2477860 2428577 2382465 2340189 2302380 2268905 2239895 
3583.415 2214151 2190406 2166829 2140023 2106827 2063612 2008018 1939418 
3587.273 1860379 1776132 1693564 1619426 1558170 1511152 1476940 1451806 
3591.130 1431028 1411149 1389310 1364713 1337890 1310438 1284017 1259991 
3594.988 1239024 1221446 1207491 1197490 1191642 1190678 1194566 1202939 
3598.845 1215133 1230783 1249291 1271290 1297377 1328351 1364280 1404733 
3602.702 1447285 1488876 1525616 1553481 1568079 1566017 1544004 1500014 
3606.560 1433056 1344238 1236697 1116294 990710 868084 755184 655289 568919 
3610.899 493646 425682 362040 300994 243371 191159 147438 114393 92486 80821 
3615.721 76214 74491 71277 61865 42678 11762 -30747 -82065 -137418 -191240 
3620.543 -238896 -277673 -306779 -327505 -341775 -351641 -357634 -360083 
3624.400 -358362 -352370 -343199 -333631 -328432 -333233 -353727 -393123 
3628.258 -450753 -520058 -591238 -653739 -700881 -731381 -748382 -756519 
3632.115 -761018 -764987 -770312 -776464 -782252 -785659 -785493 -781822 
3635.973 -775769 -769220 -764458 -762705 -764524 -769220 -775736 -783112 
3639.830 -790884 -799053 -808115 -817905 -827562 -834705 -836656 -831034 
3643.688 -816516 -794489 -767732 -740808 -719141 -706836 -706737 -719968 
3647.545 -745604 -781524 -826106 -876868 -931326 -986009 -1035958 -1075523 
3651.402 -1100609 -1109103 -1101699 -1082067 -1055890 -1029314 -1008389 
3654.778 -997480 -998472 -1010604 -1029611 -1049708 -1065541 -1073341 
3658.153 -1072053 -1063294 -1050270 -1035958 -1023562 -1014372 -1007926 
3661.528 -1002604 -995893 -985645 -971033 -952486 -931161 -907817 -882423 
3665.385 -853290 -817640 -772793 -716859 -649206 -568803 -473028 -354190 
3669.243 -199288 9111 288361 648353 1089952 1605890 2185044 2814960 3479623 
3673.583 4157148 4803735 5352385 5720595 5829420 5641772 5177986 4505095 
3677.440 3705938 2856015 2018837 1239622 553226 -16301 -460219 -783806 
3681.297 -1005943 -1150181 -1241148 -1298204 -1332625 -1350958 -1356309 
3684.673 -1352180 -1342964 -1334970 -1334145 -1345805 -1372692 -1414076 
3688.048 -1466551 -1524733 -1583468 -1638333 -1687283 -1729198 -1763552 
3691.423 -1790974 -1811069 -1824168 -1831031 -1832285 -1828655 -1821297 
3694.798 -1810607 -1798101 -1784671 -1772264 -1761836 -1754510 -1750088 
3698.174 -1748141 -1748141 -1750154 -1754774 -1763651 -1778137 -1798035 
3701.549 -1822122 -1846670 -1867390 -1880586 -1884545 -1878970 -1866136 
3704.924 -1849079 -1830107 -1811399 -1793713 -1776916 -1761077 -1746359 
3708.299 -1733521 -1724346 -1720452 -1723851 -1735534 -1755797 -1783747 
3711.675 -1816744 -1851454 -1882962 -1906813 -1919712 -1920173 -1908924 
3715.050 -1888768 -1863826 -1839280 -1819582 -1808198 -1806086 -1812257 
3718.425 -1823970 -1837894 -1850893 -1861055 -1867390 -1869963 -1869039 
3721.800 -1865212 -1858878 -1850926 -1842414 -1834759 -1830041 -1829744 
3725.176 -1834331 -1843305 -1854226 -1863727 -1868313 -1865146 -1853566 
3728.551 -1834495 -1810145 -1784077 -1759691 -1739164 -1723587 -1712696 
3731.926 -1704874 -1698768 -1694709 -1694709 -1702663 -1722960 -1757612 
3735.301 -1804899 -1858779 -1909650 -1947387 -1966354 -1964540 -1945639 
3738.677 -1914796 -1878046 -1840171 -1804536 -1772990 -1747085 -1729297 
3742.052 -1723686 -1734214 -1764641 -1813676 -1873064 -1928915 -1965101 
3745.427 -1972159 -1951049 -1910541 -1862639 -1818559 -1787476 -1774376 
3748.802 -1780348 -1801995 -1833044 -1867060 -1898665 -1924660 -1944221 
3752.177 -1956722 -1961307 -1957415 -1945276 -1926045 -1902591 -1878244 
3755.553 -1856205 -1838455 -1826181 -1818295 -1813511 -1810508 -1808033 
3758.928 -1806350 -1805525 -1806020 -1806812 -1806647 -1803711 -1796748 
3762.303 -1785760 -1772297 -1758437 -1746887 -1739428 -1736887 -1738240 
3765.678 -1741474 -1743850 -1744379 -1742497 -1740121 -1739824 -1744940 
3769.054 -1757513 -1778302 -1805360 -1835056 -1862837 -1884809 -1898368 
3772.429 -1903217 -1900149 -1891242 -1878343 -1863629 -1847066 -1828919 
3775.804 -1808726 -1786915 -1764773 -1744709 -1729825 -1722927 -1725237 
3779.179 -1735798 -1751573 -1768304 -1782625 -1792426 -1798200 -1801665 
3782.555 -1804997 -1810310 -1817800 -1826148 -1833671 -1838290 -1838818 
3785.930 -1836343 -1832021 -1828622 -1827732 -1830041 -1834990 -1841556 
3789.305 -1847627 -1851850 -1853038 -1850893 -1845054 -1835815 -1823508 
3792.680 -1808297 -1791766 -1775497 -1761737 -1753289 -1751474 -1756688 
3796.056 -1767215 -1779490 -1789489 -1794108 -1792162 -1785397 -1778071 
3799.431 -1775926 -1784011 -1805657 -1838917 -1877551 -1911102 -1930268 
3802.806 -1930004 -1911465 -1881048 -1847330 -1819648 -1805558 -1808858 
3806.181 -1828754 -1859801 -1892793 -1918293 -1931092 -1929641 -1916974 
3809.557 -1897279 -1874549 -1851388 -1828523 -1805624 -1782097 -1758338 
3812.932 -1735996 -1718274 -1708538 -1709957 -1722795 -1744841 -1769624 
3816.307 -1789489 -1798101 -1793251 -1776323 -1753190 -1731475 -1718670 
3819.682 -1721277 -1742827 -1781437 -1830107 -1877650 -1913345 -1930169 
3823.058 -1926969 -1906648 -1875637 -1840731 -1807835 -1781701 -1764509 
3826.433 -1756028 -1753553 -1753751 -1753586 -1751012 -1746062 -1739989 
3829.808 -1734577 -1731739 -1732399 -1735897 -1741111 -1745138 -1745863 
3833.183 -1742002 -1733686 -1722795 -1712069 -1704808 -1704049 -1711145 
3836.559 -1725996 -1745897 -1767578 -1786585 -1799784 -1805723 -1805063 
3839.934 -1799586 -1791700 -1783285 -1775399 -1768700 -1763486 -1759526 
3843.309 -1757315 -1756589 -1757414 -1758965 -1760351 -1759790 -1755698 
3846.684 -1746590 -1731838 -1710914 -1684642 -1653946 -1620639 -1587132 
3850.060 -1556099 -1531931 -1519450 -1524039 -1550750 -1601394 -1672694 
3853.435 -1754114 -1831460 -1891440 -1927233 -1938877 -1931752 -1912850 
3856.810 -1888207 -1862837 -1839643 -1820044 -1804008 -1790710 -1778962 
3860.185 -1767347 -1755104 -1741540 -1727085 -1712333 -1698636 -1687844 
3863.561 -1680946 -1678239 -1678965 -1680417 -1679790 -1674938 -1664706 
3866.936 -1650876 -1637111 -1628232 -1629189 -1643449 -1670449 -1705996 
3870.311 -1742266 -1771736 -1789522 -1795197 -1791436 -1783450 -1776323 
3873.686 -1773353 -1775300 -1781008 -1787113 -1790347 -1788598 -1781701 
3877.062 -1770977 -1758998 -1748372 -1741375 -1739197 -1741771 -1747547 
3880.437 -1754411 -1759262 -1760252 -1756325 -1748438 -1739065 -1731871 
3883.812 -1731013 -1739362 -1758536 -1785925 -1815655 -1840533 -1853269 
3887.187 -1850168 -1832021 -1803414 -1769987 -1738966 -1716195 -1704874 
3890.563 -1705600 -1715601 -1730023 -1743685 -1752464 -1754741 -1750451 
3893.938 -1740847 -1727350 -1710914 -1692233 -1671638 -1649952 -1627902 
3897.313 -1606808 -1588288 -1573762 -1564055 -1559995 -1561117 -1567192 
3900.688 -1577426 -1591193 -1607699 -1626416 -1646684 -1667644 -1688273 
3904.063 -1707482 -1724511 -1738471 -1749362 -1756787 -1761209 -1762529 
3907.439 -1761011 -1756853 -1750253 -1741639 -1731475 -1720188 -1708835 
3910.814 -1697547 -1686953 -1676952 -1667116 -1657147 -1647113 -1637342 
3914.189 -1628727 -1622752 -1621068 -1624601 -1633480 -1646684 -1662000 
3917.564 -1677051 -1689329 -1697382 -1700782 -1699594 -1694082 -1685203 
3920.940 -1673255 -1658897 -1643449 -1628331 -1615952 -1608425 -1607138 
3924.315 -1611825 -1621167 -1632193 -1641832 -1648136 -1650051 -1648433 
3927.690 -1644769 -1640808 -1637408 -1635098 -1632985 -1630179 -1626383 
3931.065 -1621729 -1617173 -1614301 -1613773 -1615787 -1619814 -1624865 
3934.441 -1629816 -1634405 -1638597 -1642558 -1646420 -1649787 -1651602 
3937.816 -1650909 -1646849 -1639422 -1629717 -1619517 -1610736 -1605124 
3941.191 -1603936 -1606874 -1612915 -1620540 -1627902 -1633447 -1635857 
3944.566 -1634669 -1630377 -1623577 -1615886 -1608821 -1603837 -1602021 
3947.942 -1603837 -1608788 -1615688 -1622719 -1628694 -1632490 -1633810 
3951.317 -1633084 -1631269 -1629189 -1627703 -1627076 -1627142 -1627142 
3954.692 -1626251 -1623742 -1618593 -1610637 -1600205 -1588420 -1576898 
3958.067 -1567357 -1561117 -1558938 -1560490 -1564617 -1569767 -1574422 
3961.443 -1577723 -1579539 -1580464 -1581124 -1582180 -1583666 -1584986 
3964.818 -1585581 -1584590 -1582015 -1578021 -1573663 -1569668 -1566796 
3968.193 -1565310 -1564947 -1565178 -1565244 -1563956 -1560919 -1555174 
3971.568 -1546623 -1535794 -1523082 -1509875 -1497855 -1488643 -1483128 
3974.944 -1481345 -1482501 -1484647 -1485836 -1484647 -1480024 -1472859 
3978.319 -1464075 -1455291 -1447860 -1442543 -1439307 -1437854 -1437094 
3981.694 -1436467 -1435839 -1435113 -1434981 -1435839 -1438184 -1442312 
3985.069 -1448191 -1455555 -1463612 -1471604 -1478505 -1483888 -1487289 
3988.445 -1489402 -1490888 -1493167 -1496997 -1502874 -1510832 -1519780 
3991.820 -1528860 -1536751 -1542694 -1545897 -1546326 -1543850 -1538897 
3995.195 -1531700 -1523247 -1514365 -1506341 -1500200 -1496799 -1496006 
3998.570 -1497492 -1499771 -1501785 -1502577 -1501851 
##END=
