
##TITLE=Z326a_1_e
##JCAMP-DX=5.01  $$ Nicolet v. 1
##DATATYPE=INFRARED SPECTRUM
##ORIGIN=UniL
##OWNER=Nicolet
##LONGDATE=2011/09/15
##TIME=15:28:43
##SPECTROMETER/DATA SYSTEM=Nicolet iS5
##DATA PROCESSING=
Ratio against background
%Transmittance->Absorbance
Truncated
ElementMultiply or ElementDivide
##COMMENTS=
Number of sample scans: 32
Collection length: 51.18 sec
Sample gain: 2.0
Background collected on: Jeu Sep 15 15:11:05 2011 (GMT+02:00);
Number of background scans: 32
Background gain: 2.0
Sample spacing:  1.000
Number of scan points: 12415
Resolution points: 8192
Number of FFT points: 65536
Apodization: N-B fort;
Phase correction: Mertz;
Laser frequency: 15798.0 cm-1
Number of rejected sample scans: 0
Number of rejected background scans: 0
Bench serial number: ASB1000141;
##RESOLUTION=4.000
##XUNITS=1/CM
##YUNITS=ABSORBANCE
##FIRSTX=649.893372
##LASTX=4000.122314
##FIRSTY=0.118642
##MAXX=4000.122314
##MINX=649.893372
##MAXY=0.302702
##MINY=-0.003608
##XFACTOR=1.000000
##YFACTOR=1.000000E-009
##NPOINTS=6950
##DELTAX=0.482117
##ZPD=6100
##XYDATA=(X++(Y..Y))
649.893 118641912 117802088 117034544 116393056 115894840 115531672 
652.786 115281816 115131736 115082376 115151696 115357128 115702768 
655.679 116170240 116725568 117333080 117976344 118664336 119428528 
658.571 120305296 121315552 122455536 123701592 125026392 126416904 
661.464 127885896 129461360 131172880 133027760 135003920 137055040 
664.357 139132032 141200176 143232256 145202496 147053968 148664240 
667.250 149859104 150468752 150431120 149841792 148898672 147789920 
670.142 146615968 145397328 144104304 142698576 141164304 139524176 
673.035 137829472 136146096 134526128 132992832 131546464 130175768 
675.928 128874376 127646344 126505136 125460264 124507896 123628128 
678.820 122789464 121960112 121121424 120270192 119414872 118566248 
681.713 117727040 116889544 116040368 115167584 114271424 113364496 
684.606 112469384 111606048 110784840 110002104 109244424 108498224 
687.498 107756024 107020304 106301528 105610480 104951032 104318368 
690.391 103700216 103084488 102466192 101848952 101243456 100662712 
693.284 100116024 99606992 99136896 98708768 98332128 98024752 97808960 
696.659 97703720 97721272 97862208 98118224 98475808 98923048 99452488 
700.034 100061032 100746136 101501560 102312432 103158184 104013920 
702.926 104856584 105671040 106449728 107192032 107898816 108570112 
705.819 109203768 109797472 110351656 110871488 111365296 111842520 
708.712 112310152 112771880 113233056 113705536 114211856 114788016 
711.604 115473952 116302968 117288712 118414504 119631768 120863432 
714.497 122026448 123043592 123859600 124452824 124832192 125034880 
717.390 125114112 125138912 125186336 125331624 125648648 126194792 
720.282 126997216 128043520 129271864 130576328 131805312 132795168 
723.175 133395776 133490112 133030144 132044744 130642336 128982592 
726.068 127251712 125629008 124239288 123150536 122368136 121853544 
728.961 121544488 121379128 121314152 121323752 121396224 121525856 
731.853 121703416 121914872 122145968 122385704 122631720 122888432 
734.746 123162544 123455192 123759488 124060072 124340568 124590400 
737.639 124809352 125007656 125200000 125398664 125606928 125820472 
740.531 126029640 126228016 126416368 126603128 126799288 127013240 
743.424 127244968 127487360 127729088 127962056 128184808 128403232 
746.317 128625544 128856136 129091840 129322472 129535256 129721344 
749.209 129881056 130022240 130156752 130292224 130428480 130557432 
752.102 130668624 130754800 130818296 130869432 130923944 130994632 
754.995 131086576 131196720 131317032 131440472 131564856 131692992 
757.888 131829592 131976576 132130072 132281024 132420104 132543016 
760.780 132653488 132761928 132879344 133012040 133157808 133308440 
763.673 133454784 133596824 133748056 133938344 134208960 134599584 
766.566 135142560 135849632 136705504 137660960 138635968 139529792 
769.458 140225872 140626240 140674016 140376400 139814896 139133808 
772.351 138513968 138107440 138001248 138179744 138529040 138856464 
775.244 138944112 138624512 137804832 136493664 134775696 132776544 
778.136 130612496 128353848 126022952 123598872 121044840 118328776 
781.029 115443144 112408512 109270536 106087048 102920384 99831680 96871752 
784.404 94081728 91493056 89123536 86981896 85068224 83376800 81899864 
787.779 80629144 79557336 78678824 77987384 77477056 77140976 76973720 
791.154 76972656 77140104 77484136 78016968 78753336 79704320 80872488 
794.528 82247176 83801840 85492784 87257048 89023920 90714776 92254624 
797.903 93589744 94696632 95598232 96362360 97104680 97965952 99073952 
801.278 100522352 102324968 104398088 106541360 108465472 109847480 
804.171 110364440 109794528 108064208 105273376 101671832 97604600 93444880 
807.546 89480944 85885744 82692672 79818512 77111888 74413928 71621088 
810.920 68700136 65696196 62699756 59822300 57159584 54769668 52677108 
814.295 50874848 49337764 48032088 46924640 45985768 45187148 44505760 
817.670 43922140 43421868 42996316 42641872 42356636 42138908 41984096 
821.045 41885748 41837292 41834156 41875568 41965084 42108828 42313756 
824.420 42585472 42927184 43339520 43820272 44362692 44954732 45577940 
827.794 46206172 46810216 47363852 47849188 48266084 48635308 49001360 
831.169 49423852 49975324 50731344 51753172 53079716 54709160 56588804 
834.544 58601472 60565952 62269592 63472748 63966996 63623680 62413136 
837.919 60424232 57836112 54897560 51860312 48938604 46297800 44026636 
841.294 42152600 40657520 39497492 38617944 37964100 37490068 37155680 
844.669 36927484 36780508 36695728 36661480 36671752 36723132 36812136 
848.043 36933004 37077184 37235560 37401436 37572184 37749896 37939944 
851.418 38148700 38380980 38639056 38923996 39236400 39577880 39952064 
854.793 40363512 40816664 41315620 41864404 42468028 43134692 43874816 
858.168 44702276 45632704 46681992 47867652 49210348 50733088 52463756 
861.543 54427908 56639156 59086864 61724100 64461888 67162696 69666136 
864.917 71805800 73431080 74447272 74824968 74612888 73924584 72931168 
868.292 71836288 70832224 70098328 69774368 69947008 70661424 71918280 
871.667 73683384 75886416 78425128 81170328 83949832 86568328 88821408 
875.042 90499936 91439232 91538584 90777208 89219872 87003592 84318424 
878.417 81360216 78319760 75357808 72580768 70051256 67785736 65766932 
881.792 63958092 62318044 60815264 59432956 58172388 57047764 56079916 
885.166 55287184 54678792 54253712 54002020 53909428 53961952 54150896 
888.541 54472756 54928132 55518608 56244096 57102064 58089200 59203196 
891.916 60446320 61825784 63354620 65049656 66927724 69004112 71287400 
895.291 73774040 76438464 79223616 82037800 84737744 87148264 89079720 
898.666 90342152 90796040 90371768 89085784 87036176 84388472 81355104 
902.040 78145584 74960632 71968800 69284744 66983700 65100504 63637832 
905.415 62579348 61896812 61560468 61539624 61808860 62349140 63146336 
908.790 64192532 65485448 67026616 68820048 70869088 73170976 75711560 
912.165 78457952 81351584 84314840 87251056 90056712 92646856 94961592 
915.540 96984200 98741920 100305664 101776408 103259704 104856832 106633344 
918.914 108602320 110709880 112832792 114795696 116376592 117364288 
921.807 117599184 117008608 115644128 113685872 111439168 109266280 
924.700 107559920 106687736 106907552 108352936 110988688 114621680 
927.593 118895712 123336728 127451672 130743336 132814912 133430272 
930.485 132506776 130118000 126441952 121731040 116255408 110276360 
933.378 104055088 97822488 91785256 86132088 81007264 76517688 72732192 
936.753 69676368 67347368 65721096 64763368 64430788 64669488 65411708 
940.128 66558456 67976376 69511152 70980816 72209608 73057704 73427792 
943.502 73290400 72679744 71688344 70441736 69075112 67721216 66480488 
946.877 65420420 64575480 63949764 63527668 63282124 63184388 63205624 
950.252 63319384 63503160 63734828 63994140 64264640 64534112 64797400 
953.627 65056472 65318620 65593912 65891160 66216448 66572212 66957452 
957.002 67370128 67808480 68271272 68757584 69266128 69794952 70341168 
960.377 70903256 71480952 72076160 72692432 73333000 73999656 74691704 
963.751 75406840 76142072 76896272 77669616 78463984 79281680 80123752 
967.126 80989336 81877176 82786080 83717176 84673744 85660968 86683200 
970.501 87743280 88841664 89977104 91149192 92359456 93612144 94913064 
973.876 96268024 97679776 99149048 100674440 102255192 103893568 105594424 
977.251 107364840 109212544 111144232 113164992 115282120 117506576 
980.143 119855312 122352936 125026880 127903464 131004048 134339776 
983.036 137909568 141696928 145669360 149769600 153907520 157964624 
985.929 161780960 165168368 167943216 169930928 171005936 171112832 
988.821 170270992 168575776 166179296 163288784 160130096 156925376 
991.714 153891648 151201792 148981872 147312800 146223632 145706192 
994.607 145725760 146238256 147196992 148559488 150292384 152364784 
997.500 154746960 157410704 160325168 163459232 166782304 170255600 
1000.392 173827776 177431136 180969856 184329648 187392192 190040352 
1003.285 192188144 193790160 194848736 195413248 195574880 195462480 
1006.178 195218672 194997024 194949312 195198912 195842224 196937712 
1009.070 198504656 200532352 202989760 205841344 209049536 212581568 
1011.963 216409104 220498592 224812176 229309056 233943600 238673456 
1014.856 243457072 248239984 252945936 257460208 261614112 265208864 
1017.748 268029008 269876544 270627008 270249088 268830880 266562048 
1020.641 263733152 260699056 257811600 255421968 253820752 253201552 
1023.534 253671616 255234096 257810176 261249696 265366704 269966560 
1026.427 274842464 279802656 284664160 289238048 293350528 296841696 
1029.320 299578592 301479968 302514880 302702240 302092928 300758272 
1032.213 298775360 296215744 293150720 289646432 285756992 281522720 
1035.106 276961664 272071296 266836608 261246032 255307888 249061824 
1037.999 242578624 235950992 229288928 222697232 216273088 210105488 
1040.892 204262928 198795232 193724368 189035312 184671840 180538464 
1043.785 176522112 172503264 168386720 164127456 159735168 155278064 
1046.678 150861232 146619920 142689280 139183632 136197648 133790296 
1049.571 131986368 130782112 130149152 130042136 130402432 131170872 
1052.464 132288472 133697864 135348192 137184160 139139344 141137152 
1055.357 143078096 144845776 146323680 147394864 147961648 147962304 
1058.250 147370528 146207344 144536512 142470128 140155408 137759008 
1061.144 135467568 133454112 131867304 130830664 130423296 130686032 
1064.037 131622224 133201304 135359632 137999344 141000832 144213936 
1066.930 147466800 150592880 153427216 155830800 157707520 158996448 
1069.823 159675168 159749216 159243504 158194624 156643696 154639136 
1072.716 152231264 149472944 146426016 143158544 139750816 136303568 
1075.609 132927120 129744080 126883864 124459440 122569720 121287296 
1078.502 120649384 120658480 121276432 122428744 123994872 125814008 
1081.395 127705168 129459664 130879920 131811384 132154512 131896880 
1084.288 131110552 129951176 128622336 127347752 126357424 125840512 
1087.181 125940544 126747024 128282968 130509200 133321896 136572944 
1090.074 140066320 143577296 146892560 149806656 152152880 153820816 
1092.967 154745920 154915072 154353840 153122144 151301584 148983840 
1095.860 146271792 143264192 140052512 136726064 133362664 130031584 
1098.753 126794008 123691904 120745896 117949568 115271192 112657488 
1101.646 110046064 107385928 104646560 101832488 98982800 96170512 93489584 
1105.022 91035504 88904600 87175880 85905280 85129528 84862720 85100632 
1108.397 85823280 86998528 88584512 90526792 92765560 95231008 97839552 
1111.772 100501184 103110792 105549680 107703328 109458288 110720656 
1114.665 111430600 111563208 111132168 110181584 108782080 107017800 
1117.558 104973776 102737240 100383896 97973256 95551656 93147008 90773984 
1120.934 88440208 86151152 83916392 81752968 79684104 77738200 75945176 
1124.309 74330056 72913296 71709840 70728872 69978416 69466400 69201536 
1127.684 69193344 69449168 69971176 70752664 71775624 73009560 74408304 
1131.059 75912656 77453408 78949008 80320280 81497584 82429600 83097464 
1134.435 83517816 83743816 83851472 83932224 84077448 84356320 84812976 
1137.810 85455064 86255008 87149960 88050536 88858000 89463808 89770808 
1141.185 89704896 89213688 88275008 86892152 85089824 82908424 80399024 
1144.560 77624208 74650232 71547008 68387576 65237364 62156980 59198832 
1147.936 56401888 53795592 51398852 49220924 47264092 45524988 43997192 
1151.311 42671224 41536324 40581296 39794616 39165684 38686288 38349960 
1154.686 38152464 38091404 38164620 38370484 38707588 39175584 39776168 
1158.061 40512984 41391640 42417532 43594924 44924492 46403016 48022500 
1161.437 49769316 51625452 53564108 55549672 57539324 59479236 61309660 
1164.812 62971824 64405964 65560424 66394812 66879220 66999324 66756172 
1168.187 66167168 65262476 64083188 62678932 61098240 59390296 57601672 
1171.562 55772044 53938164 52132952 50383624 48714660 47146996 45695976 
1174.938 44374288 43190212 42148728 41252980 40504616 39904404 39453076 
1178.313 39150276 38995180 38986084 39121160 39399812 39823268 40395112 
1181.688 41120812 42007200 43059756 44282628 45677016 47240004 48962488 
1185.063 50826348 52803040 54846956 56896612 58880508 60714692 62316668 
1188.438 63615656 64553604 65097116 65238716 64997008 64413568 63547612 
1191.814 62473084 61264864 59997224 58740208 57550596 56475696 55551784 
1195.189 54801808 54238580 53864528 53672108 53644104 53753364 53965552 
1198.564 54235356 54510844 54738172 54858460 54817144 54569072 54079624 
1201.939 53333568 52336428 51116572 49719824 48205068 46639900 45086348 
1205.315 43599940 42224900 40988792 39906876 38982680 38211328 37582696 
1208.690 37083752 36700452 36418376 36223624 36104788 36052620 36062160 
1212.065 36132044 36264436 36462588 36730276 37069788 37481152 37961932 
1215.440 38507028 39108724 39756088 40434132 41126384 41814308 42479500 
1218.816 43107580 43687540 44212808 44681088 45092852 45450852 45759844 
1222.191 46028020 46267428 46493432 46726192 46987140 47296196 47671252 
1225.566 48123472 48657028 49268500 49947260 50676192 51432308 52190868 
1228.941 52925896 53613292 54235464 54781808 55250192 55646648 55985260 
1232.317 56287888 56581668 56902544 57292984 57798448 58470176 59357624 
1235.692 60503788 61946368 63711540 65814620 68261344 71048280 74162664 
1239.067 77579880 81265280 85169680 89228504 93372416 97522928 101599352 
1242.442 105527464 109232232 112642504 115696544 118336872 120518256 
1245.335 122209568 123391400 124056144 124204888 123847040 122999736 
1248.229 121689296 119952432 117830120 115363704 112590024 109534992 
1251.122 106216896 102651912 98860552 94878104 90759288 86573016 82404448 
1254.497 78345864 74480592 70885936 67620624 64717980 62189480 60021988 
1257.872 58182236 56618168 55266032 54057928 52920808 51790052 50613604 
1261.247 49354280 47995896 46541044 45009380 43430656 41840904 40277236 
1264.623 38770368 37345612 36020652 34805104 33703016 32713268 31830690 
1267.998 31047194 30353290 29740254 29200438 28728796 28322736 27980836 
1271.373 27702100 27485172 27328544 27230600 27190526 27208270 27283732 
1274.748 27415462 27599236 27827422 28088174 28365354 28640836 28893048 
1278.124 29099308 29238428 29291170 29244844 29095552 28849280 28521190 
1281.499 28131372 27702736 27254942 26801972 26352992 25913200 25487344 
1284.874 25082512 24709306 24380998 24112302 23915468 23799778 23771950 
1288.249 23836178 23996874 24259330 24629170 25111158 25706864 26412848 
1291.625 27219170 28108182 29055590 30026762 30979686 31868450 32642394 
1295.000 33258650 33687184 33916516 33957608 33841684 33616688 33334744 
1298.375 33048906 32806024 32640394 32576282 32626178 32790836 33058808 
1301.750 33405374 33795944 34185112 34523964 34769208 34884488 34848580 
1305.125 34655540 34314216 33844084 33272206 32631568 31955532 31276378 
1308.501 30625238 30026194 29496912 29047478 28680584 28394996 28187302 
1311.876 28055796 28000308 28022432 28123170 28301762 28555760 28881928 
1315.251 29277808 29743376 30280278 30891020 31575986 32331630 33150278 
1318.626 34021208 34933604 35877144 36843260 37823384 38805544 39772612 
1322.002 40700312 41556416 42306996 42917784 43360980 43623608 43710808 
1325.377 43650828 43490092 43294532 43136852 43082916 43187428 43479768 
1328.752 43961444 44607384 45375108 46215316 47079932 47934212 48758884 
1332.127 49549364 50312300 51061708 51814912 52588872 53398428 54254084 
1335.503 55160116 56112004 57095072 58087272 59057784 59971848 60796588 
1338.878 61500492 62058696 62455372 62683836 62747464 62658116 62434980 
1342.253 62100936 61680448 61198900 60678224 60136708 59588192 59040476 
1345.628 58497128 57958208 57422000 56885132 56341792 55783988 55200184 
1349.004 54577376 53905076 53178800 52405468 51604448 50810668 50069088 
1352.379 49429052 48943832 48659360 48610996 48820244 49287688 49990716 
1355.754 50879764 51886036 52924552 53902076 54737380 55361700 55728796 
1359.129 55819896 55642124 55228780 54632120 53927096 53203032 52551288 
1362.505 52063096 51807448 51817940 52087528 52569428 53188536 53847276 
1365.880 54446124 54890792 55097520 55011764 54612168 53917532 52979948 
1369.255 51878380 50703188 49533948 48437892 47462116 46632852 45964812 
1372.630 45466268 45143544 45003832 45051316 45282756 45683132 46226736 
1376.006 46882708 47620112 48415780 49256404 50137436 51062936 52043376 
1379.381 53096268 54243800 55512960 56929624 58507212 60233836 62057512 
1382.756 63888072 65590940 67006164 67979512 68365736 68062640 67032808 
1386.131 65326168 63091196 60550068 57973732 55598740 53583148 51997656 
1389.507 50831116 50024400 49495476 49164816 48959520 48814272 48674964 
1392.882 48492796 48226908 47853000 47365700 46781876 46132360 45451808 
1396.257 44765852 44086156 43415388 42754796 42112768 41511424 40983148 
1399.632 40561836 40274872 40134100 40136972 40271236 40521640 40873852 
1403.008 41315872 41839408 42437484 43103480 43830500 44610912 45437056 
1406.383 46301964 47200516 48129320 49087084 50072440 51083136 52115580 
1409.758 53164268 54223488 55288424 56355900 57422568 58482116 59521984 
1413.133 60523064 61462584 62318692 63080280 63750520 64348668 64904200 
1416.509 65452276 66026112 66650508 67340720 68099848 68918784 69777712 
1419.884 70648480 71499816 72298824 73016576 73632224 74134992 74531648 
1423.259 74847880 75128448 75424104 75777632 76212672 76727736 77302472 
1426.634 77907856 78519720 79120720 79703448 80269184 80825792 81387272 
1430.010 81973048 82611072 83334568 84174488 85155328 86286496 87562536 
1433.385 88964984 90473408 92074200 93760888 95537456 97409712 99378544 
1436.760 101429608 103537768 105675768 107815896 109931208 111983528 
1439.653 113922360 115671672 117135160 118216664 118821432 118875584 
1442.546 118336264 117190320 115459088 113196040 110492960 107467528 
1445.439 104246624 100967328 97752680 94709864 91935168 89499264 87442816 
1448.814 85768336 84444128 83417672 82636360 82068256 81709616 81580936 
1452.190 81709256 82108248 82759416 83611768 84576800 85541240 86385360 
1455.565 86986784 87262720 87208200 86924944 86585760 86360296 86369552 
1458.940 86661760 87241176 88095184 89204744 90544872 92074656 93735888 
1462.315 95438536 97058024 98457768 99498064 100079512 100179824 99863120 
1465.691 99256144 98492552 97687080 96910504 96194408 95548352 94964152 
1469.066 94416808 93855632 93199528 92338592 91144856 89519264 87436128 
1472.441 84978712 82318216 79653248 77140336 74856144 72818816 71021944 
1475.816 69463912 68161712 67140304 66411376 65960816 65743492 65698660 
1479.192 65761036 65880172 66029744 66205332 66420840 66698992 67066172 
1482.567 67547920 68172376 68975640 70000096 71291776 72889352 74809032 
1485.942 77029312 79475720 82028280 84510864 86703464 88374904 89286248 
1489.317 89242424 88145712 86025520 83050776 79476440 75588200 71619872 
1492.693 67717584 63961504 60371992 56948440 53706080 50684572 47955008 
1496.068 45603776 43701208 42279096 41323416 40792496 40632852 40796356 
1499.443 41246460 41951432 42878904 43994368 45256244 46618984 48039084 
1502.818 49461944 50822736 52038820 52985448 53500016 53394152 52499352 
1506.194 50761320 48310632 45444452 42486584 39665936 37075884 34711996 
1509.569 32535746 30515742 28639668 26918396 25372322 24015364 22850970 
1512.944 21869386 21052926 20382300 19839486 19407174 19064774 18790180 
1516.319 18563236 18371802 18217978 18114260 18076504 18111772 18213242 
1519.695 18357216 18513062 18652392 18765754 18869004 18996024 19179248 
1523.070 19431428 19746478 20105516 20490556 20890710 21307868 21753612 
1526.445 22242356 22782386 23372350 24003772 24667710 25361362 26089022 
1529.820 26861254 27689952 28582866 29541490 30560638 31628116 32729526 
1533.196 33849596 34976016 36099280 37215456 38321260 39413708 40485052 
1536.571 41523600 42516768 43444280 44282880 45005632 45583128 45987908 
1539.946 46202600 46230976 46097504 45841548 45504568 45114984 44682004 
1543.321 44196852 43643060 43010000 42306376 41562540 40823396 40129736 
1546.697 39500064 38928784 38390608 37855776 37304592 36740156 36188044 
1550.072 35688252 35274448 34960684 34740276 34592780 34497780 34443432 
1553.447 34431952 34475536 34587360 34771972 35020264 35309200 35608292 
1556.822 35877000 36066480 36126284 36018276 35747612 35376700 35007336 
1560.198 34727104 34575304 34551592 34632144 34787444 34989520 35217924 
1563.573 35461544 35719008 35998188 36310576 36665988 37065852 37502320 
1566.948 37958636 38416164 38855872 39263672 39633488 39968812 40281128 
1570.323 40584428 40892016 41212792 41549744 41901108 42260172 42614788 
1573.698 42944300 43221760 43417768 43507528 43485296 43371740 43210340 
1577.074 43044316 42899240 42774464 42649216 42494516 42282416 41996248 
1580.449 41631460 41195416 40701328 40162848 39588984 38983004 38346196 
1583.824 37681448 36995204 36296096 35591320 34882976 34169340 33447384 
1587.199 32718840 31993910 31290408 30630038 30033010 29511416 29069372 
1590.575 28704760 28413816 28191756 28031940 27922426 27841270 27756844 
1593.950 27635182 27444614 27166788 26801478 26365702 25886822 25392978 
1597.325 24907414 24444542 24012036 23617218 23268898 22977868 22755218 
1600.700 22606570 22531148 22522040 22570970 22671288 22818980 23011546 
1604.076 23242612 23497442 23753124 23979016 24143196 24220790 24195988 
1607.451 24066108 23837964 23524548 23139680 22695726 22205808 21686278 
1610.826 21158290 20648244 20180518 19772138 19428796 19144066 18902330 
1614.201 18684390 18472918 18254846 18023968 17783062 17543014 17320858 
1617.577 17134176 16998500 16922598 16907510 16947334 17029202 17136624 
1620.952 17251002 17357410 17449288 17530422 17612950 17711718 17837604 
1624.327 17992504 18171782 18368312 18577584 18798172 19030296 19272656 
1627.702 19520004 19762706 19991632 20201588 20395670 20583096 20776308 
1631.078 20984694 21210892 21448972 21686208 21906916 22093360 22230392 
1634.453 22306948 22318668 22269454 22172856 22049538 21919740 21798900 
1637.828 21694288 21605060 21523580 21438808 21339956 21220668 21082490 
1641.203 20934622 20791530 20666730 20566282 20487568 20418208 20340178 
1644.579 20232550 20079142 19872158 19616882 19330814 19040368 18775198 
1647.954 18559430 18409134 18331464 18325174 18380822 18478658 18588342 
1651.329 18662632 18642432 18477828 18160518 17750616 17345478 17024824 
1654.704 16811820 16685264 16608350 16548833 16486879 16415333 16337022 
1658.080 16258657 16186187 16120262 16055791 15983939 15895464 15783297 
1661.455 15643300 15475262 15282233 15071075 14851996 14638511 14444551 
1664.830 14280914 14153143 14058982 13988178 13923304 13843560 13730554 
1668.205 13571800 13366665 13126621 12870770 12619095 12386316 12180343 
1671.581 12002466 11849348 11713610 11584346 11445935 11280770 11075526 
1674.956 10828455 10554806 10281296 10036542 9837137 9683290 9562181 9455397 
1678.813 9347658 9232701 9116117 9011270 8932523 8885005 8859202 8829107 
1682.671 8758541 8611260 8369877 8051966 7708350 7396720 7149847 6970785 
1686.528 6841276 6738187 6641784 6539920 6428025 6305703 6174946 6038584 
1690.385 5901560 5771361 5657717 5570649 5515645 5490578 5482827 5471552 
1694.243 5431658 5342455 5201022 5027925 4861464 4735797 4666664 4645263 
1698.100 4646067 4632303 4567238 4427195 4214155 3961527 3716765 3518169 
1701.958 3378298 3288847 3231628 3188468 3143977 3086409 3009564 2912585 
1705.815 2800719 2682349 2567443 2464031 2376468 2304712 2245590 2194668 
1709.673 2147815 2104396 2066641 2039110 2026227 2029789 2047898 2074931 
1713.530 2104829 2131599 2152710 2167628 2176020 2174821 2157438 2115517 
1717.387 2044270 1947572 1838950 1735977 1653284 1598308 1569509 1559599 
1721.245 1559566 1561960 1562426 1560963 1559533 1561096 1566716 1575927 
1725.102 1587666 1601600 1618961 1641876 1671278 1705439 1739770 1767781 
1728.960 1785115 1791170 1790538 1791070 1799521 1816656 1834325 1834691 
1732.817 1795495 1698055 1539881 1341579 1140578 972810 856696 792659 768727 
1737.157 769291 778618 784925 780576 762188 730955 691096 648419 608369 
1741.496 575455 552530 540454 538198 543075 552364 563445 576152 591779 
1745.836 612516 639659 671980 705599 734705 753458 757242 743799 713132 
1750.176 666704 606843 536871 462200 389532 326526 279542 251493 240984 
1754.515 241349 243404 236807 214297 175546 126921 79429 42745 21935 15009 
1759.337 15043 12160 -2054 -32006 -76599 -131025 -187994 -240519 -284594 
1763.677 -317804 -339756 -350681 -351641 -345384 -335716 -327538 -324492 
1767.534 -326909 -331015 -330022 -317804 -292110 -257077 -222703 -202534 
1771.391 -208594 -245023 -306116 -377563 -444067 -494244 -525982 -542496 
1775.249 -550206 -553548 -554111 -550603 -541238 -525618 -506919 -490206 
1779.106 -480839 -481998 -492490 -507581 -521183 -529457 -531873 -531476 
1782.964 -533527 -541933 -557552 -578631 -600801 -619628 -632763 -638917 
1786.821 -638189 -630447 -614102 -587632 -550074 -503511 -453235 -407721 
1790.678 -376272 -365877 -379417 -413415 -460617 -512281 -561556 -605665 
1794.536 -643780 -676533 -704057 -725294 -739518 -746266 -747092 -744413 
1798.393 -741205 -739815 -741105 -744876 -750499 -757578 -766905 -779077 
1802.251 -794092 -810728 -826106 -837582 -842609 -841087 -834076 -823428 
1806.108 -810827 -796242 -778680 -757181 -731811 -705479 -683282 -670347 
1809.966 -670512 -684308 -708126 -736243 -762671 -783443 -797631 -806892 
1813.823 -813308 -818302 -821774 -821774 -816350 -804345 -786221 -763829 
1817.680 -739286 -713849 -688013 -661249 -633160 -603812 -574098 -544349 
1821.538 -514631 -484050 -451481 -416758 -381702 -349688 -324492 -307871 
1825.395 -298037 -289627 -276018 -252010 -217172 -176137 -137782 -111912 
1829.253 -105651 -119365 -147520 -179350 -204753 -218000 -218331 -208893 
1833.110 -193890 -176502 -157060 -134238 -105452 -70039 -28461 17097 64384 
1837.450 112272 161459 213932 272082 337700 411321 492651 580896 675133 
1841.789 774137 875222 974936 1068394 1151940 1224702 1289999 1353678 
1845.647 1421354 1495525 1573799 1649459 1713090 1757169 1777263 1774136 
1849.504 1752444 1718446 1676833 1629038 1573233 1506830 1428601 1339851 
1853.362 1244905 1148717 1055241 965006 876816 788012 697899 607904 521909 
1857.701 443692 375571 316247 261970 208662 153802 97855 44103 -3512 -42773 
1862.523 -73518 -98463 -120160 -139670 -155138 -163883 -162425 -150733 
1866.380 -132515 -115059 -106314 -111812 -132052 -162856 -196274 -224855 
1870.238 -244460 -255156 -259262 -259660 -258103 -255222 -250818 -246314 
1874.095 -243996 -247341 -259262 -280356 -308235 -338564 -366804 -390640 
1877.953 -410502 -429536 -450687 -475577 -502418 -527339 -545705 -555104 
1881.810 -556692 -554640 -554276 -559968 -572675 -590378 -608246 -622175 
1885.667 -629454 -630480 -627370 -622672 -619231 -618635 -621845 -629851 
1889.525 -642986 -660786 -681032 -699955 -712459 -714543 -704057 -682587 
1893.382 -655492 -628826 -608246 -595937 -590974 -589452 -587334 -582039 
1897.240 -573833 -564866 -556758 -549974 -543356 -534156 -520919 -504702 
1901.097 -488353 -476471 -472532 -477397 -488849 -502418 -514267 -521812 
1904.955 -524956 -525155 -523467 -519694 -511553 -497355 -476140 -450389 
1908.812 -424934 -405305 -395241 -395010 -401862 -410965 -418678 -423710 
1912.669 -427483 -432349 -440194 -449396 -457406 -460252 -457274 -450786 
1916.527 -446880 -452805 -472631 -505298 -543819 -579756 -605466 -618337 
1920.384 -621646 -621811 -625583 -636601 -654367 -674747 -693041 -705645 
1924.242 -712195 -713915 -712823 -708787 -700319 -685035 -662341 -634616 
1928.099 -607021 -585084 -572642 -568903 -570656 -572013 -569068 -561193 
1931.957 -551993 -546566 -548320 -557652 -571285 -584786 -595077 -603150 
1935.814 -613010 -629851 -656022 -688840 -720630 -741866 -745538 -730818 
1939.671 -702601 -670744 -644872 -630447 -627635 -631307 -634880 -633160 
1943.529 -624657 -610231 -591040 -568075 -539385 -503246 -459921 -411958 
1947.386 -365513 -325883 -295918 -273733 -254759 -233432 -207965 -182099 
1951.244 -163982 -162955 -184616 -227935 -284925 -344556 -395605 -432382 
1955.101 -455751 -470910 -484844 -501790 -522838 -546897 -571815 -597955 
1958.958 -627238 -661911 -700584 -738658 -767831 -780234 -771635 -745141 
1962.816 -708391 -670843 -638619 -613308 -591867 -570160 -546566 -525254 
1966.673 -513836 -519065 -542694 -578333 -613540 -636105 -638288 -622308 
1970.531 -598121 -580650 -581047 -604010 -644740 -693537 -739716 -774645 
1974.388 -794589 -796705 -776232 -726849 -641200 -516418 -359653 -189949 
1978.246 -32834 88344 158906 177667 155327 109124 55138 2418 -46948 -96243 
1983.067 -149176 -205779 -261845 -310818 -347370 -369817 -381437 -387660 
1986.925 -392659 -397956 -401763 -400571 -394016 -385575 -381867 -389878 
1990.782 -413911 -452573 -499572 -546003 -583959 -609900 -624657 -630447 
1994.640 -629090 -620289 -601893 -572112 -533395 -492026 -457902 -439830 
1998.497 -442743 -464820 -499771 -537101 -569531 -592496 -606591 -614499 
2002.354 -618337 -617576 -609768 -592396 -564965 -530483 -494972 -463066 
2006.212 -437811 -416295 -393586 -365049 -329757 -291547 -256149 -228829 
2010.069 -211443 -200149 -189352 -172560 -149475 -123241 -100218 -85411 
2013.927 -80044 -79514 -76864 -65699 -44562 -17096 9211 27866 37443 43242 
2018.749 52620 72768 105743 146642 187081 218806 237503 244598 246686 249007 
2023.570 252985 255207 249239 229182 195236 152973 113333 86720 78335 86256 
2028.392 103423 120492 131296 135937 138058 143328 155824 176242 203026 
2032.732 235348 274436 324337 390030 472416 566928 664315 752794 822801 
2037.071 871304 901020 918286 929741 937578 940467 934489 916360 887108 
2041.411 852015 818684 793721 779116 771979 767399 760727 751666 743102 
2045.750 743136 758337 791331 840927 901186 963778 1022094 1070188 1104900 
2050.090 1123702 1125562 1110082 1080585 1043616 1008278 985097 981943 
2053.948 999876 1033984 1073543 1107723 1128087 1133369 1127024 1116792 
2057.805 1108255 1103571 1100615 1095200 1084205 1068560 1053282 1045509 
2061.662 1050890 1071384 1103272 1140046 1175196 1204866 1229288 1251052 
2065.520 1273350 1297078 1319777 1338123 1348094 1348725 1342011 1331642 
2069.377 1320973 1311834 1303625 1293987 1281558 1266804 1252049 1240918 
2073.235 1235335 1235169 1237096 1237728 1234172 1227726 1221346 1219984 
2077.092 1227327 1244008 1267435 1293389 1317749 1338954 1357965 1377177 
2080.949 1398750 1423050 1448016 1470191 1487113 1497720 1502807 1504602 
2084.807 1504469 1502075 1495725 1482957 1462544 1435516 1404733 1373288 
2088.664 1343441 1314891 1285446 1252481 1214800 1173800 1134067 1101146 
2092.522 1079920 1072513 1078127 1093606 1115463 1140943 1168817 1198553 
2096.379 1229121 1257831 1282223 1299504 1309408 1314426 1319145 1328086 
2100.237 1344637 1368901 1399116 1431926 1465736 1500446 1538983 1583310 
2104.094 1634758 1691535 1749484 1802616 1846636 1879048 1900546 1912926 
2107.951 1918783 1919449 1915921 1908999 1900679 1894622 1895188 1905904 
2111.809 1927436 1957257 1990376 2020734 2044869 2062214 2075031 2087050 
2115.666 2101666 2119746 2139457 2157472 2170892 2178517 2181481 2182214 
2119.524 2183745 2188075 2196100 2207756 2223376 2243525 2268805 2299616 
2123.381 2334826 2371471 2406354 2436308 2460599 2480526 2498388 2516051 
2127.239 2533481 2548379 2556344 2554578 2542380 2522749 2501287 2484392 
2131.096 2475994 2477060 2485258 2496822 2509885 2524249 2542146 2566177 
2134.953 2597309 2633776 2671580 2705820 2734195 2757736 2779277 2802420 
2138.811 2828600 2856515 2881564 2900376 2911417 2917521 2924360 2937770 
2142.668 2960054 2989246 3018773 3040894 3049737 3043330 3024345 2998120 
2146.526 2970062 2942673 2915653 2887234 2856115 2823731 2791749 2763237 
2150.383 2738763 2716323 2691784 2661279 2623309 2579309 2531881 2482859 
2154.240 2430077 2369405 2295885 2211553 2127071 2063179 2047566 2103264 
2158.098 2238962 2442972 2682616 2917655 3109102 3234365 3288080 3281703 
2161.955 3234833 3168808 3100859 3041962 2997186 2968161 2952982 2946910 
2165.813 2942440 2930865 2903578 2856248 2788714 2707021 2620442 2536780 
2169.670 2460966 2392260 2325498 2254849 2177818 2097171 2020834 1958589 
2173.528 1919149 1904939 1913225 1936090 1963581 1988379 2004723 2009583 
2177.385 2001194 1978626 1940949 1889530 1828036 1763523 1703543 1655612 
2181.242 1622586 1602864 1589994 1576426 1557272 1530005 1496622 1461281 
2185.100 1428103 1398916 1374019 1353212 1336893 1327554 1327919 1339253 
2188.957 1360923 1387880 1414606 1435250 1447650 1453069 1456427 1463375 
2192.815 1477605 1499249 1525882 1552716 1577257 1598108 1616865 1636055 
2196.672 1657142 1679294 1699851 1716084 1725831 1729690 1730155 1730621 
2200.530 1732983 1737641 1742963 1746490 1746523 1743096 1737674 1732018 
2204.387 1727893 1724999 1722504 1719876 1717548 1716916 1720641 1730488 
2208.244 1746257 1765353 1783485 1796294 1801118 1797592 1787178 1773138 
2212.102 1758167 1744427 1733482 1726197 1723602 1726729 1736410 1751879 
2215.959 1771208 1790804 1806542 1815925 1818220 1814261 1806076 1795429 
2219.817 1782653 1766916 1747122 1722471 1694196 1664526 1636521 1612542 
2223.674 1593353 1578454 1566849 1557671 1551120 1548194 1549225 1553614 
2227.531 1558835 1561262 1557438 1546731 1530703 1513313 1499382 1492633 
2231.389 1493563 1501177 1512283 1524652 1537819 1553182 1572369 1596545 
2235.246 1624781 1654348 1681989 1705140 1723037 1737674 1751912 1768580 
2239.104 1788908 1812597 1838018 1864373 1890429 1917152 1945242 1974365 
2242.961 2003025 2028757 2049197 2063345 2072601 2080158 2089347 2102831 
2246.819 2120045 2138958 2155774 2167595 2173889 2175920 2176619 2179117 
2250.676 2185077 2194202 2205025 2216016 2226207 2235931 2246056 2256947 
2254.533 2267606 2276066 2279630 2276466 2266540 2251851 2235465 2220378 
2258.391 2208689 2201029 2196733 2194768 2194435 2195634 2198565 2203061 
2262.248 2208123 2211952 2213418 2212086 2209088 2207223 2209188 2217181 
2266.106 2231002 2248821 2266307 2280096 2287291 2286758 2279264 2266640 
2269.963 2251585 2236431 2223442 2214284 2210521 2213051 2222243 2237264 
2273.821 2256048 2276299 2295985 2313706 2328929 2342021 2353314 2362642 
2277.678 2369572 2373403 2374236 2373103 2372237 2373670 2379567 2389961 
2281.535 2403955 2419281 2434042 2447070 2459166 2472262 2487857 2506786 
2285.393 2528648 2551245 2572576 2590375 2604142 2613908 2620442 2623909 
2289.250 2624142 2620442 2612542 2601408 2589742 2580976 2579009 2586209 
2293.108 2603142 2627776 2657478 2688850 2719857 2750000 2780444 2812292 
2296.965 2846476 2882331 2918722 2953315 2984375 3011266 3033988 3054008 
2300.823 3073161 3092850 3114708 3139538 3167941 3199950 3235867 3275460 
2304.680 3318629 3365241 3414998 3467766 3523547 3581908 3642515 3703966 
2308.537 3764824 3823852 3879713 3931735 3980420 4026535 4071149 4115033 
2312.395 4158686 4201910 4244569 4286328 4327355 4368520 4411028 4456318 
2316.252 4506267 4562349 4625605 4696306 4774086 4857376 4944133 5031780 
2320.110 5117935 5200955 5279632 5352385 5417567 5472022 5511483 5531954 
2323.967 5529739 5504437 5459137 5400625 5337558 5280168 5237207 5214067 
2327.824 5212323 5229292 5259508 5295798 5331486 5361811 5383884 5397337 
2331.682 5403644 5406194 5408911 5415621 5430082 5454239 5488430 5531081 
2335.539 5579543 5630594 5681417 5730970 5778748 5825122 5870493 5914290 
2339.397 5955001 5990911 6020475 6043725 6061499 6075813 6087203 6094394 
2343.254 6092680 6074636 6032302 5959233 5854137 5722610 5577563 5436758 
2347.112 5318874 5241566 5216985 5251158 5343965 5489772 5678362 5895816 
2350.969 6127930 6360606 6582675 6787254 6971560 7135935 7281672 7410505 
2354.826 7524035 7623365 7710475 7788528 7861061 7931109 8000089 8066683 
2358.684 8127345 8178528 8216852 8241502 8253828 8257070 8254470 8248391 
2362.541 8239139 8225395 8205777 8178326 8142369 8098042 8046532 7988782 
2366.399 7926351 7860150 7791361 7720931 7649567 7577406 7504078 7428233 
2370.256 7348493 7263815 7174167 7080092 6983311 6885473 6787759 6690740 
2374.114 6594348 6498313 6402637 6308090 6215581 6126418 6041272 5960510 
2377.971 5884532 5812865 5746112 5685210 5631669 5587028 5552224 5527692 
2381.828 5512792 5506249 5506685 5512859 5523799 5538834 5557258 5578032 
2385.686 5600117 5622169 5643316 5662786 5680813 5697162 5711967 5725161 
2389.543 5736510 5745575 5752525 5757863 5762497 5767567 5773745 5781401 
2393.401 5790232 5799601 5808802 5816961 5823946 5829588 5833987 5837715 
2397.258 5841275 5846077 5853533 5865589 5884128 5910158 5944050 5985201 
2401.115 6032469 6083978 6138583 6195717 6254774 6316024 6379368 6444840 
2404.973 6512339 6581766 6653627 6728428 6806910 6889513 6976240 7066621 
2408.830 7159952 7255830 7354121 7455165 7559436 7666766 7776282 7886299 
2412.688 7994419 8098144 8195715 8285877 8368052 8442237 8508460 8566683 
2416.545 8617039 8660032 8696742 8728722 8758067 8785961 8813552 8840840 
2420.403 8866946 8891329 8912941 8931881 8948082 8962085 8974229 8985560 
2424.260 8996555 9008665 9023820 9044186 9071860 9108774 9155742 9213105 
2428.117 9280697 9358153 9445068 9541249 9646090 9758716 9877641 10001414 
2431.975 10128715 10259209 10393476 10532808 10678263 10829643 10986038 
2435.350 11145108 11304439 11462298 11618615 11774750 11932848 12095467 
2438.725 12264078 12439334 12621108 12809169 13003559 13204970 13414163 
2442.101 13631356 13855498 14084514 14315294 14545307 14772801 14997636 
2445.476 15220495 15442747 15665559 15888589 16110944 16331689 16549967 
2448.851 16765669 16979686 17193120 17406692 17620164 17832426 18041720 
2452.226 18246174 18443912 18634096 18816062 18989620 19154488 19310100 
2455.602 19456030 19591472 19715930 19828806 19929116 20016406 20089656 
2458.977 20147578 20189716 20215368 20223804 20215194 20189404 20146328 
2462.352 20086672 20011686 19922978 19823604 19716970 19606620 19496366 
2465.727 19389122 19287516 19193654 19109682 19037566 18979652 18938150 
2469.103 18914858 18911674 18929532 18969268 19031300 19115360 19220632 
2472.478 19345538 19486974 19641978 19806366 19977094 20151224 20327262 
2475.853 20503928 20680214 20854380 21023992 21185738 21336302 21472680 
2479.228 21593046 21696204 21782072 21850708 21902350 21936954 21954870 
2482.604 21956786 21944032 21918590 21883044 21839316 21789422 21734834 
2485.979 21676490 21614950 21551260 21485978 21419940 21353006 21285180 
2489.354 21215136 21142044 21064544 20981566 20892066 20794696 20687928 
2492.729 20569792 20438074 20291604 20130226 19955100 19769016 19575390 
2496.104 19377134 19176720 18974700 18770112 18561472 18346984 18125176 
2499.480 17896196 17660676 17420454 17177264 16932968 16689086 16446820 
2502.855 16207337 15971804 15741345 15517772 15302449 15096975 14902984 
2506.230 14721074 14551680 14394098 14247016 14108507 13976338 13848725 
2509.605 13725082 13605270 13490514 13382247 13281762 13190078 13107292 
2512.981 13033229 12967473 12909578 12859371 12816745 12781596 12753104 
2516.356 12730720 12713525 12701242 12693565 12691109 12694418 12703698 
2519.731 12718983 12739455 12763955 12791322 12820533 12851316 12883740 
2523.106 12918009 12954672 12994033 13036028 13080622 13127373 13175528 
2526.482 13223688 13270146 13312612 13348931 13376985 13395744 13404527 
2529.857 13403638 13393763 13375413 13349102 13315243 13274383 13227378 
2533.232 13175904 13122011 13067680 13014826 12964845 12918487 12875924 
2536.607 12837221 12802377 12771256 12743822 12719632 12697899 12677702 
2539.983 12658291 12639255 12620903 12603746 12588397 12575197 12563805 
2543.358 12553437 12543341 12532837 12522231 12512273 12503781 12497609 
2546.733 12493347 12490345 12486697 12481343 12473295 12462554 12450279 
2550.108 12437663 12425866 12415569 12406534 12398010 12388839 12378304 
2553.484 12365895 12351986 12337225 12322227 12308047 12295026 12283573 
2556.859 12273962 12265850 12258999 12252557 12245980 12238414 12228939 
2560.234 12216773 12200892 12181025 12156252 12126131 12091038 12051383 
2563.609 12008257 11963501 11918783 11875909 11836103 11800318 11768826 
2566.985 11741728 11719124 11701049 11687741 11679299 11675487 11675964 
2570.360 11680014 11687264 11696897 11708776 11722801 11738903 11756707 
2573.735 11775533 11794735 11813393 11831029 11847476 11863173 11878905 
2577.110 11895795 11914526 11935845 11960231 11987683 12018272 12051451 
2580.486 12086813 12123542 12160852 12198064 12235005 12271814 12309274 
2583.861 12348612 12391225 12438004 12489902 12546854 12608282 12672857 
2587.236 12739353 12805654 12870668 12932824 12991780 13047740 13101521 
2590.611 13154626 13208864 13265534 13325390 13388397 13453602 13519635 
2593.987 13585133 13648862 13710104 13769063 13826081 13881429 13935690 
2597.362 13989341 14042452 14095398 14148556 14202302 14257151 14313548 
2600.737 14371836 14431844 14493333 14555996 14619251 14682652 14746097 
2604.112 14809654 14873872 14939642 15007926 15079754 15155848 15236555 
2607.488 15321498 15410132 15502079 15596760 15694072 15794085 15896598 
2610.863 16001401 16107848 16214870 16321335 16426345 16529007 16629178 
2614.238 16726550 16821084 16912262 16999534 17082134 17159510 17231282 
2617.613 17297720 17359376 17417246 17472262 17525524 17578136 17630998 
2620.989 17685006 17740710 17798354 17857698 17918052 17978484 18037782 
2624.364 18095432 18151016 18204950 18257922 18310658 18363920 18417776 
2627.739 18472468 18527962 18583878 18640150 18696808 18753576 18810040 
2631.114 18866132 18921434 18976016 19030156 19084198 19138732 19194208 
2634.490 19250348 19306740 19362826 19417844 19471138 19523088 19573482 
2637.865 19623154 19672278 19721616 19771306 19822008 19874068 19927834 
2641.240 19983686 20041456 20100934 20161672 20222866 20284106 20345352 
2644.615 20406782 20468914 20532204 20597134 20664124 20733000 20804046 
2647.990 20876942 20951730 21028374 21106702 21186606 21267920 21350674 
2651.366 21434734 21520168 21607080 21695300 21784720 21874820 21965116 
2654.741 22055534 22145972 22236636 22328156 22420640 22514258 22609014 
2658.116 22704314 22799914 22895570 22991072 23086702 23182386 23277848 
2661.491 23372840 23466770 23559390 23650736 23741294 23831102 23920860 
2664.867 24010390 24099308 24186598 24271804 24354502 24434940 24514162 
2668.242 24593298 24673744 24756202 24841098 24928432 25017678 25108560 
2671.617 25200338 25292554 25384580 25475644 25565460 25654064 25741562 
2674.992 25829290 25918196 26009334 26103132 26199308 26297018 26395172 
2678.368 26492682 26589540 26685930 26782764 26881418 26982700 27087536 
2681.743 27195958 27308572 27425804 27548502 27677380 27813114 27956064 
2685.118 28106062 28262828 28425736 28594508 28769118 28949606 29135980 
2688.493 29328142 29525388 29726912 29931724 30139084 30348460 30559892 
2691.869 30773242 30988832 31206736 31427350 31651210 31879042 32111804 
2695.244 32350440 32595676 32847584 33105758 33369448 33637668 33909492 
2698.619 34184788 34463304 34744944 35029816 35317360 35607032 35898128 
2701.994 36189772 36481360 36772608 37063004 37352144 37639316 37923600 
2705.370 38203732 38478500 38746820 39007396 39259432 39501772 39733900 
2708.745 39954968 40165064 40363912 40552156 40729968 40898172 41057184 
2712.120 41207732 41349840 41483788 41609540 41726832 41835140 41933408 
2715.495 42020264 42094292 42154208 42199412 42229792 42245968 42249732 
2718.871 42242684 42226944 42204560 42177244 42146648 42115068 42084732 
2722.246 42058264 42038808 42029136 42031984 42048920 42081044 42128320 
2725.621 42190136 42265580 42353968 42454544 42567308 42692132 42829096 
2728.996 42977552 43136524 43304560 43479616 43660064 43844392 44031876 
2732.372 44222092 44415136 44610616 44807728 45005116 45201012 45393096 
2735.747 45579560 45759000 45930448 46094080 46250324 46399884 46543992 
2739.122 46683392 46819152 46951956 47082368 47210824 47337612 47463484 
2742.497 47589356 47716628 47847492 47984352 48129836 48285932 48453748 
2745.873 48633528 48824172 49023576 49229196 49437552 49645188 49848580 
2749.248 50044252 50229004 50400332 50556500 50696784 50821172 50930320 
2752.623 51025072 51106280 51174496 51230268 51273404 51304052 51321880 
2755.998 51326280 51316508 51291228 51248908 51188248 51108068 51007600 
2759.374 50886696 50745528 50584492 50404016 50204904 49987780 49753856 
2762.749 49504984 49243488 48972020 48693644 48411372 48127768 47845640 
2766.124 47567984 47297452 47037096 46789996 46558636 46345132 46150712 
2769.499 45976268 45821516 45686556 45570876 45474212 45395928 45335200 
2772.875 45290848 45261020 45243628 45236164 45236384 45241976 45250724 
2776.250 45260584 45269480 45275144 45275252 45267092 45248628 45217520 
2779.625 45171964 45110936 45034628 44943816 44840684 44728240 44609700 
2783.000 44488692 44368304 44250740 44137608 44029532 43926208 43827016 
2786.375 43730668 43635404 43539576 43440764 43337328 43227396 43109776 
2789.751 42984028 42850636 42710520 42565520 42417240 42267768 42118976 
2793.126 41972820 41831016 41695320 41567244 41448612 41340324 41243760 
2796.501 41159716 41089052 41032312 40989848 40962104 40948996 40950268 
2799.876 40965816 40994800 41036752 41090908 41156512 41232908 41319008 
2803.252 41413984 41516784 41626460 41742080 41862688 41987272 42114920 
2806.627 42244396 42374572 42503724 42629992 42751652 42866580 42972652 
2810.002 43067880 43150100 43217552 43268980 43303316 43320888 43321984 
2813.377 43307744 43278968 43237316 43183808 43120092 43048196 42970860 
2816.753 42891520 42814468 42744080 42685076 42642052 42618476 42618040 
2820.128 42643296 42696264 42778048 42889036 43028292 43194088 43383676 
2823.503 43593420 43819432 44057692 44304236 44555212 44807144 45056792 
2826.878 45300848 45536688 45761796 45974096 46172268 46355936 46525480 
2830.254 46682400 46828784 46967648 47102308 47236088 47372056 47513016 
2833.629 47661712 47820632 47992528 48180964 48389556 48622448 48883720 
2837.004 49177392 49507288 49877936 50294032 50762700 51292604 51894216 
2840.379 52580012 53364292 54261292 55287484 56460260 57798108 59322144 
2843.755 61054956 63016720 65224120 67683040 70383448 73290440 76340608 
2847.130 79442736 82469424 85275792 87709592 89618176 90880784 91417632 
2850.505 91200768 90258408 88669520 86554368 84046040 81287256 78413296 
2853.880 75533392 72740144 70102064 67662864 65449888 63473636 61730708 
2857.256 60207916 58884036 57735016 56733884 55855612 55078188 54382088 
2860.631 53752276 53176292 52644040 52147860 51681916 51241896 50825456 
2864.006 50432260 50063772 49723056 49414720 49144852 48919580 48744948 
2867.381 48625932 48564824 48561784 48613852 48715400 48858280 49032964 
2870.757 49228680 49433060 49634308 49820744 49981384 50108060 50196128 
2874.132 50245076 50258616 50243812 50210632 50168716 50127288 50094040 
2877.507 50074448 50072180 50089580 50128404 50189768 50274316 50382544 
2880.882 50514364 50669268 50846464 51044416 51260988 51493412 51737752 
2884.258 51989216 52242844 52493180 52735616 52966960 53185728 53392316 
2887.633 53589412 53781492 53974068 54174128 54389148 54626556 54893652 
2891.008 55197892 55547000 55949604 56416192 56959128 57593992 58337928 
2894.383 59207640 60218800 61381252 62695316 64148052 65711424 67339400 
2897.759 68966944 70520144 71916872 73076872 73938368 74460848 74634688 
2901.134 74481256 74051520 73417312 72655968 71849432 71070288 70375928 
2904.509 69813080 69414488 69201776 69190424 69390856 69810088 70454720 
2907.884 71331208 72447296 73812640 75437864 77332640 79502704 81945432 
2911.260 84645120 87567488 90662024 93854440 97050608 100148608 103033032 
2914.635 105592440 107733392 109381128 110494928 111069472 111133792 
2917.528 110743576 109969320 108891704 107583608 106106720 104509888 
2920.421 102824816 101070344 99256224 97387112 95466240 93499864 91498824 
2923.796 89480576 87468136 85486616 83563080 81721728 79980608 78351856 
2927.171 76840192 75444408 74157480 72969232 71867528 70838584 69868776 
2930.547 68946008 68058880 67198472 66358216 65532832 64718328 63911260 
2933.922 63107788 62304696 61499536 60691524 59881928 59074296 58273280 
2937.297 57484212 56711644 55959252 55229724 54526056 53851852 53211680 
2940.672 52611692 52058316 51557280 51112840 50726240 50395640 50115612 
2944.048 49877640 49670376 49479844 49292592 49095656 48879120 48638568 
2947.423 48375668 48098596 47820264 47557080 47325532 47139020 47006932 
2950.798 46933128 46915928 46948856 47022328 47124764 47242888 47363888 
2954.173 47475536 47566508 47628028 47653580 47639264 47583552 47487432 
2957.549 47353576 47185964 46989724 46770660 46534296 46286116 46031300 
2960.924 45773688 45517408 45265840 45022132 44789584 44571000 44368856 
2964.299 44184232 44017212 43866568 43730448 43607160 43495588 43395504 
2967.674 43307744 43233764 43175312 43134108 43111680 43109736 43129828 
2971.050 43173484 43242624 43337800 43458820 43603644 43768344 43946376 
2974.425 44129136 44306620 44466628 44596520 44684316 44718952 44692984 
2977.800 44603384 44452500 44247624 44000676 43726564 43440324 43156612 
2981.175 42888232 42643772 42429336 42246808 42095208 41970080 41864472 
2984.551 41769984 41676500 41574720 41456632 41316312 41151228 40961228 
2987.926 40749440 40520184 40278692 40029700 39776604 39520536 39260444 
2991.301 38994020 38718164 38430604 38131336 37823204 37511528 37202896 
2994.676 36904000 36619696 36351284 36097044 35852528 35612608 35372172 
2998.052 35128064 34879636 34627836 34375180 34124212 33877252 33635592 
3001.427 33400186 33171520 32949698 32734882 32527496 32327774 32135960 
3004.802 31952466 31777394 31611156 31453710 31304796 31164120 31030680 
3008.177 30903756 30782418 30666270 30554808 30447924 30345332 30246244 
3011.552 30149808 30054990 29961010 29867512 29774956 29683982 29595864 
3014.928 29511628 29431914 29357460 29288194 29224396 29165958 29112808 
3018.303 29064660 29020660 28980314 28942806 28907780 28875306 28845916 
3021.678 28820030 28798186 28780164 28765542 28753824 28745044 28739876 
3025.053 28740124 28748090 28766002 28795388 28836460 28887664 28946312 
3028.429 29008156 29069230 29124924 29171096 29204690 29223156 29225352 
3031.804 29211212 29181868 29139950 29087934 29029128 28966466 28902254 
3035.179 28838762 28777578 28720052 28667274 28619884 28577772 28540226 
3038.554 28506046 28473848 28442610 28411762 28381590 28352658 28326166 
3041.930 28303036 28284292 28270430 28261732 28258550 28260848 28267814 
3045.305 28278672 28291684 28305300 28318208 28329986 28341514 28353894 
3048.680 28369104 28388770 28413036 28441372 28472434 28504276 28535624 
3052.055 28565810 28594650 28622538 28650108 28677682 28705610 28734460 
3055.431 28764940 28798292 28835612 28877536 28924142 28974612 29027604 
3058.806 29081664 29136192 29191046 29246972 29305242 29366428 29431098 
3062.181 29499004 29569474 29642262 29717296 29795042 29875852 29960194 
3065.556 30047782 30137376 30227772 30317264 30404250 30488016 30567890 
3068.932 30643796 30715662 30783342 30846872 30906390 30962286 31015200 
3072.307 31065736 31114676 31162378 31209726 31257152 31305756 31356468 
3075.682 31410396 31468208 31529844 31594406 31660408 31725884 31789300 
3079.057 31849268 31905356 31957996 32007746 32056116 32104562 32154654 
3082.433 32207570 32264136 32324490 32387994 32453366 32519280 32584246 
3085.808 32647968 32710622 32773148 32836862 32903086 32972612 33045222 
3089.183 33120774 33198844 33279326 33362076 33447456 33535286 33625284 
3092.558 33716728 33808800 33900932 33993152 34086396 34182244 34282088 
3095.934 34387124 34497672 34613124 34731912 34852136 34971564 35087864 
3099.309 35199020 35303884 35401720 35493508 35580960 35667028 35755092 
3102.684 35847744 35946680 36052148 36163052 36277296 36393220 36509512 
3106.059 36625756 36741920 36858120 36974240 37089596 37203072 37314196 
3109.435 37423144 37530924 37639064 37749428 37863044 37980264 38100372 
3112.810 38222436 38345184 38467968 38590060 38711248 38830760 38947848 
3116.185 39061952 39172792 39280900 39387696 39495168 39605208 39718908 
3119.560 39836124 39955768 40076172 40195560 40312792 40427404 40540084 
3122.936 40651368 40761812 40872104 40982460 41092800 41203760 41315728 
3126.311 41429512 41545732 41664572 41785852 41908952 42033440 42158696 
3129.686 42284096 42409128 42533616 42657004 42778852 42899496 43019000 
3133.061 43137952 43257300 43378004 43500388 43625292 43752836 43883172 
3136.437 44016188 44151880 44289560 44428456 44566852 44703380 44836676 
3139.812 44965720 45090976 45213624 45335236 45457508 45581584 45708012 
3143.187 45836760 45967320 46099200 46232120 46366072 46500512 46635544 
3146.562 46770844 46906328 47042452 47180200 47320472 47464484 47612424 
3149.938 47763928 47917152 48069728 48219356 48364332 48504060 48639016 
3153.313 48770412 48899928 49028732 49157652 49287060 49416948 49546876 
3156.688 49677176 49807740 49938488 50069796 50201820 50334584 50468620 
3160.063 50603852 50740428 50878200 51016724 51155412 51293952 51431900 
3163.438 51569256 51706660 51844480 51983016 52122232 52261452 52400272 
3166.814 52537640 52672880 52805504 52935444 53062568 53186400 53307196 
3170.189 53424992 53540192 53653776 53766752 53880168 53994852 54111184 
3173.564 54228672 54346528 54463588 54578992 54691832 54801584 54908392 
3176.939 55012552 55114860 55216136 55317476 55419292 55521884 55624800 
3180.315 55726876 55827016 55924052 56017636 56108116 56196656 56284532 
3183.690 56373252 56463432 56555512 56649424 56744716 56841204 56938732 
3187.065 57037032 57135960 57234540 57331812 57426916 57519052 57608292 
3190.440 57694864 57779904 57864088 57948136 58032164 58116776 58201672 
3193.816 58287148 58373252 58459636 58545580 58630144 58711988 58790588 
3197.191 58865708 58938452 59010260 59082460 59155848 59230044 59303688 
3200.566 59375060 59442988 59507392 59569072 59629808 59691200 59754612 
3203.941 59820168 59887672 59956136 60025068 60093744 60161708 60228276 
3207.317 60292456 60352992 60408924 60460220 60507600 60553304 60599512 
3210.692 60648392 60700628 60755656 60812140 60868132 60922304 60974156 
3214.067 61024336 61073832 61123528 61173880 61225072 61276620 61328512 
3217.442 61380828 61433880 61487968 61542868 61598232 61653216 61707564 
3220.818 61761568 61816388 61873196 61933380 61997352 62064660 62134268 
3224.193 62204508 62274524 62343288 62411112 62477904 62543912 62609120 
3227.568 62673344 62736436 62798344 62859608 62920736 62982052 63043384 
3230.943 63104764 63165844 63227004 63289412 63354304 63422904 63495948 
3234.319 63572736 63651720 63731028 63808584 63884004 63957512 64030424 
3237.694 64103848 64178512 64254380 64330684 64406888 64482600 64558288 
3241.069 64634568 64712056 64789868 64867304 64942524 65014480 65083220 
3244.444 65150044 65217420 65287888 65362752 65442376 65525664 65610908 
3247.820 65696312 65781312 65865828 65950400 66035524 66121132 66206336 
3251.195 66290468 66372768 66452996 66531852 66609672 66686744 66762432 
3254.570 66835584 66905424 66971368 67034348 67095712 67157744 67221752 
3257.945 67287872 67355304 67421664 67484824 67543312 67596656 67645440 
3261.321 67690784 67734200 67776176 67817080 67856272 67893352 67927832 
3264.696 67959600 67988664 68015440 68040280 68063920 68087096 68110584 
3268.071 68135080 68161248 68189088 68218080 68247200 68275384 68301712 
3271.446 68325480 68346272 68364072 68379008 68391264 68400992 68408832 
3274.822 68415392 68422016 68429848 68440056 68453472 68470000 68489592 
3278.197 68511400 68534904 68559352 68584448 68609912 68635288 68660672 
3281.572 68686440 68713256 68742568 68775832 68814648 68859880 68911720 
3284.947 68969272 69030632 69094032 69157520 69220352 69282448 69344752 
3288.323 69408928 69476664 69549760 69629888 69717448 69812776 69915352 
3291.698 70024032 70137848 70255624 70377208 70502144 70631288 70764904 
3295.073 70903488 71046992 71195264 71348008 71505640 71668800 71838832 
3298.448 72016352 72202008 72395024 72593616 72795936 73000112 73205760 
3301.823 73413424 73625320 73843672 74070544 74307208 74553672 74808712 
3305.199 75070864 75338656 75610640 75886136 76164664 76446560 76732240 
3308.574 77023056 77320120 77625120 77938456 78259880 78587688 78919608 
3311.949 79253128 79587184 79921728 80258416 80600104 80949096 81306632 
3315.324 81672424 82044328 82419792 82796504 83172824 83548296 83923136 
3318.700 84297656 84671536 85044208 85414568 85781936 86146112 86507384 
3322.075 86866168 87223184 87578832 87933032 88286256 88638552 88990688 
3325.450 89342664 89694264 90043952 90389560 90728328 91057888 91377144 
3328.825 91685640 91983816 92271952 92549464 92814760 93065272 93298840 
3332.201 93513424 93708584 93884016 94039960 94176208 94292208 94386992 
3335.576 94460456 94513224 94547000 94564344 94566728 94555072 94528256 
3338.951 94484144 94419736 94333008 94222104 94086416 93925632 93739872 
3342.326 93528632 93291808 93029304 92741320 92428800 92092184 91731312 
3345.702 91345416 90933072 90493200 90026176 89534776 89023424 88498176 
3349.077 87964112 87425504 86883856 86338552 85787872 85229512 84662120 
3352.452 84085248 83499664 82907056 82309080 81708176 81107096 80508688 
3355.827 79916240 79332832 78760680 78201120 77654440 77120792 76599936 
3359.203 76092408 75599000 75120696 74657856 74210304 73776552 73354808 
3362.578 72943624 72542320 72150992 71770656 71402408 71046840 70704192 
3365.953 70373704 70055344 69748840 69454344 69172400 68902600 68643664 
3369.328 68393504 68148760 67906328 67663448 67417984 67168880 66915512 
3372.704 66657500 66394268 66125108 65849400 65566628 65276796 64979576 
3376.079 64674528 64360812 64036952 63701444 63353084 62991476 62616736 
3379.454 62229972 61832052 61423616 61004124 60572884 60128832 59670900 
3382.829 59198832 58713428 58215880 57708524 57193604 56673548 56150800 
3386.205 55627020 55103988 54582676 54063824 53548100 53036176 52528664 
3389.580 52026080 51528888 51037112 50550504 50068608 49591476 49119216 
3392.955 48653020 48193996 47743216 47301108 46866428 46437120 46010672 
3396.330 45584380 45157000 44729052 44302144 43878556 43460284 43048160 
3399.706 42641576 42239176 41838972 41439644 41040760 40642784 40246300 
3403.081 39852396 39461532 39073772 38689368 38308556 37931772 37559864 
3406.456 37193220 36832220 36476280 36124988 35777684 35434040 35094188 
3409.831 34758440 34427076 34100268 33777108 33456832 33138584 32822140 
3413.207 32507892 32196972 31890844 31591020 31298634 31014560 30738958 
3416.582 30471276 30210934 29956680 29707148 29460776 29216172 28972486 
3419.957 28730318 28490656 28255790 28027416 27807180 27594964 27389556 
3423.332 27188938 26990210 26791646 26591690 26390208 26187622 25985024 
3426.708 25783156 25583384 25386304 25193280 25005466 24823452 24647652 
3430.083 24477670 24312134 24148906 23986124 23822106 23656054 23488420 
3433.458 23320254 23153064 22988628 22827990 22672194 22521412 22375494 
3436.833 22233602 22094752 21957378 21819628 21680390 21538448 21393416 
3440.208 21245788 21096404 20946794 20798170 20651718 20508340 20368722 
3443.584 20232932 20100414 19970122 19840390 19709238 19575146 19437456 
3446.959 19296554 19154626 19014542 18878728 18748732 18624032 18502826 
3450.334 18382206 18259926 18134780 18007804 17881142 17757724 17639522 
3453.709 17526904 17418350 17310514 17200050 17084166 16962220 16835654 
3457.085 16706990 16580053 16457316 16340531 16229557 16122771 16018145 
3460.460 15913300 15807040 15698813 15588826 15478318 15368456 15260029 
3463.835 15153481 15048641 14944958 14841847 14739070 14636797 14535301 
3467.210 14435371 14337417 14241162 14146091 14051008 13954884 13857106 
3470.586 13757366 13656624 13555597 13455310 13356380 13259146 13163608 
3473.961 13070071 12978671 12890225 12805586 12725568 12650649 12580278 
3477.336 12513944 12450620 12389283 12329113 12269428 12209445 12148415 
3480.711 12084974 12018306 11947731 11873559 11797220 11720928 11647476 
3484.087 11579038 11517312 11462469 11413652 11369263 11327089 11285430 
3487.462 11243059 11199266 11153981 11108463 11063866 11021961 10984340 
3490.837 10952431 10927049 10907579 10893174 10882404 10873536 10865450 
3494.212 10858011 10851589 10847207 10845882 10848362 10855190 10866164 
3497.588 10881724 10902483 10929903 10965106 11009114 11061725 11121788 
3500.963 11186584 11253805 11321138 11388447 11456788 11528949 11608507 
3504.338 11698157 11799365 11911733 12033737 12162420 12295298 12430434 
3507.713 12566840 12704619 12844797 12988981 13138403 13294505 13457771 
3511.089 13627800 13803436 13982601 14163275 14342930 14520193 14693962 
3514.464 14864168 15031216 15195753 15358329 15519077 15677514 15832160 
3517.839 15981635 16123597 16255768 16376004 16482130 16572446 16645601 
3521.214 16700724 16737329 16754925 16753444 16732404 16691806 16631279 
3524.590 16550519 16449401 16327253 16184226 16020000 15835287 15631622 
3527.965 15411505 15178323 14935149 14684778 14429308 14169746 13906711 
3531.340 13641340 13374798 13108795 12844695 12583348 12324068 12064976 
3534.715 11803757 11538510 11268460 10994976 10720951 10449916 10185868 
3538.091 9931302 9687694 9455397 9234427 9024057 8824135 8633972 8453116 
3541.948 8280135 8112997 7949602 7786976 7622489 7454322 7281335 7103601 
3545.805 6923010 6742831 6567167 6400384 6245900 6105349 5977743 5859746 
3549.663 5746448 5632709 5514470 5390091 5260716 5129737 5001747 4880865 
3553.520 4769664 4668573 4575743 4488657 4404367 4320629 4236237 4150859 
3557.378 4064594 3977811 3890812 3804064 3718035 3633293 3551140 3472643 
3561.235 3399169 3331851 3271053 3216273 3166238 3118479 3069291 3014268 
3565.093 2948578 2868756 2772608 2661679 2540880 2417749 2300481 2196034 
3568.950 2108325 2037212 1979758 1931197 1886369 1840680 1790871 1735678 
3572.807 1675137 1610380 1543173 1475011 1406994 1339718 1273018 1207158 
3576.665 1141874 1077197 1013526 951059 890362 831797 775929 723188 674469 
3581.004 630468 592077 560558 536937 521610 514611 514909 520018 526122 
3585.344 527615 517995 491556 444057 375139 289025 194076 99645 15142 -53673 
3590.166 -104889 -140233 -163883 -180642 -195082 -210515 -228266 -248699 
3594.023 -271514 -296382 -323334 -352833 -385442 -420532 -457373 -494045 
3597.881 -528365 -558678 -583529 -602687 -615690 -622936 -624525 -620356 
3601.738 -610793 -596367 -577969 -557122 -535976 -516649 -501988 -494608 
3605.595 -497851 -515226 -550074 -604672 -678882 -769849 -871279 -974769 
3609.453 -1071491 -1155039 -1222183 -1273724 -1313169 -1345210 -1374707 
3612.828 -1404267 -1434816 -1465098 -1492341 -1513804 -1527836 -1534605 
3616.203 -1535992 -1535530 -1538567 -1549760 -1573597 -1611528 -1662000 
3619.579 -1720452 -1780348 -1835716 -1883060 -1921097 -1951346 -1976018 
3622.954 -1996995 -2013717 -2023974 -2023380 -2007945 -1975820 -1928816 
3626.329 -1872932 -1819384 -1781866 -1773485 -1802721 -1868313 -1958504 
3629.704 -2054051 -2137509 -2198040 -2233808 -2249696 -2253948 -2255794 
3633.080 -2262123 -2277054 -2300917 -2331239 -2363733 -2394511 -2421300 
3636.455 -2443837 -2463605 -2482385 -2501657 -2521357 -2540759 -2557954 
3639.830 -2571294 -2580451 -2585688 -2588159 -2589081 -2588587 -2585194 
3643.205 -2576795 -2560128 -2532326 -2491905 -2439982 -2378957 -2314332 
3646.581 -2253124 -2202952 -2171303 -2164050 -2183469 -2228138 -2292051 
3649.956 -2366501 -2440905 -2505347 -2552750 -2580155 -2588027 -2580023 
3653.331 -2561808 -2540167 -2521555 -2512495 -2517305 -2537828 -2571657 
3656.706 -2613388 -2655938 -2692787 -2720348 -2737635 -2747117 -2752352 
3660.082 -2757521 -2765752 -2777736 -2792321 -2806411 -2816814 -2820765 
3663.457 -2816979 -2805489 -2786659 -2759958 -2724003 -2675960 -2613684 
3666.832 -2536345 -2445649 -2345179 -2239313 -2129332 -2010979 -1873196 
3670.207 -1698735 -1471604 -1180186 -820286 -394480 89239 617659 1170644 
3674.065 1710695 2181481 2515018 2645244 2538880 2208456 1703843 1088457 
3677.922 421669 -246248 -877893 -1443237 -1919910 -2297819 -2578343 -2774675 
3681.780 -2905129 -2989510 -3043704 -3076967 -3093878 -3096279 -3085916 
3685.155 -3066044 -3041894 -3019322 -3003693 -2998658 -3005239 -3021856 
3688.530 -3045382 -3072230 -3100260 -3127861 -3155197 -3182136 -3208384 
3691.905 -3233346 -3255677 -3274586 -3289384 -3299907 -3306681 -3310430 
3695.281 -3312501 -3313816 -3315526 -3318157 -3321642 -3325489 -3328843 
3698.656 -3331441 -3333348 -3335518 -3339398 -3346928 -3359027 -3375729 
3702.031 -3395652 -3416364 -3435431 -3450322 -3459986 -3463405 -3460085 
3705.406 -3449862 -3432341 -3407488 -3375696 -3338116 -3296980 -3255085 
3708.781 -3216080 -3183255 -3160131 -3149342 -3153190 -3172828 -3207199 
3712.157 -3253605 -3306780 -3360737 -3409132 -3447758 -3474318 -3488978 
3715.532 -3494138 -3492527 -3486742 -3478755 -3469058 -3457159 -3441545 
3718.907 -3422018 -3399006 -3374743 -3352451 -3334959 -3324470 -3321314 
3722.282 -3324109 -3329863 -3335617 -3339365 -3340187 -3338708 -3335978 
3725.658 -3333052 -3330356 -3326312 -3318749 -3304938 -3283728 -3254986 
3729.033 -3220914 -3184636 -3150460 -3121413 -3099010 -3081639 -3065913 
3732.408 -3047258 -3022514 -2992735 -2962723 -2940674 -2934947 -2951567 
3735.783 -2990728 -3046205 -3107662 -3164341 -3208745 -3237457 -3250119 
3739.159 -3247850 -3231307 -3199996 -3153453 -3092628 -3021165 -2947585 
3742.534 -2885117 -2848284 -2851016 -2897723 -2978749 -3070947 -3148519 
3745.909 -3194504 -3204568 -3184603 -3145526 -3099470 -3056898 -3024686 
3749.284 -3006983 -3004121 -3014584 -3036498 -3067953 -3107169 -3150625 
3752.660 -3193418 -3230189 -3256137 -3268930 -3269489 -3260906 -3247488 
3756.035 -3233577 -3222296 -3216343 -3216507 -3223940 -3239266 -3262813 
3759.410 -3293857 -3329961 -3366425 -3397658 -3418534 -3426226 -3421394 
3762.785 -3407849 -3391149 -3376617 -3368233 -3366786 -3370436 -3375072 
3766.161 -3376814 -3374184 -3368134 -3362381 -3361460 -3369713 -3389439 
3769.536 -3419651 -3456469 -3494434 -3527761 -3552311 -3566377 -3570780 
3772.911 -3567823 -3560724 -3552048 -3543537 -3535254 -3525559 -3512347 
3776.286 -3494171 -3471064 -3445786 -3422873 -3408145 -3405943 -3418172 
3779.662 -3441578 -3470078 -3496439 -3514220 -3520991 -3517967 -3509520 
3783.037 -3501073 -3497195 -3500383 -3510243 -3524080 -3538278 -3550142 
3786.412 -3558588 -3564109 -3568184 -3572686 -3578339 -3585437 -3593028 
3789.787 -3600422 -3606074 -3608472 -3606369 -3598581 -3584090 -3562992 
3793.163 -3536437 -3506923 -3478196 -3453510 -3435266 -3424056 -3417021 
3796.538 -3409789 -3397263 -3375532 -3344034 -3305234 -3265378 -3231932 
3799.913 -3212692 -3213613 -3235682 -3274060 -3318091 -3354917 -3375466 
3803.288 -3375565 -3357844 -3328975 -3298658 -3276625 -3270607 -3284748 
3806.664 -3316710 -3359290 -3401636 -3434642 -3453806 -3459657 -3455614 
3810.039 -3446246 -3434510 -3420638 -3402195 -3375631 -3338806 -3292344 
3813.414 -3241272 -3193583 -3159769 -3148059 -3161348 -3194208 -3233478 
3816.789 -3263635 -3271528 -3252586 -3209863 -3153388 -3096740 -3054661 
3820.165 -3039953 -3059135 -3109439 -3178584 -3250744 -3310594 -3349492 
3823.540 -3366326 -3365340 -3353832 -3339365 -3327660 -3321938 -3321675 
3826.915 -3323319 -3322267 -3314606 -3298986 -3276461 -3250843 -3226999 
3830.290 -3209041 -3199273 -3197234 -3199437 -3201180 -3196970 -3183320 
3833.666 -3159111 -3125426 -3085916 -3045086 -3008135 -2979638 -2962625 
3837.041 -2958807 -2967692 -2986943 -3013005 -3042256 -3071934 -3100457 
3840.416 -3126973 -3151710 -3174933 -3196510 -3215948 -3233017 -3246929 
3843.791 -3257453 -3264490 -3268338 -3268864 -3266233 -3260084 -3249856 
3847.167 -3234596 -3213153 -3184077 -3146052 -3097891 -3040085 -2974175 
3850.542 -2905853 -2843248 -2797325 -2781588 -2805950 -2873663 -2974439 
3853.917 -3087791 -3190491 -3265576 -3308029 -3323024 -3319900 -3308029 
3857.292 -3294712 -3283663 -3275145 -3267121 -3256696 -3241437 -3220520 
3860.667 -3195128 -3168025 -3143355 -3125426 -3118288 -3125032 -3146776 
3864.043 -3181709 -3224664 -3267417 -3300565 -3315987 -3309706 -3283367 
3867.418 -3243805 -3200819 -3166052 -3149013 -3154375 -3179308 -3214041 
3870.793 -3247817 -3271627 -3283038 -3285405 -3285274 -3289417 -3301814 
3874.168 -3322497 -3347125 -3369351 -3382765 -3383653 -3371981 -3350676 
3877.544 -3324404 -3298362 -3277612 -3265411 -3263175 -3268963 -3279092 
3880.919 -3287674 -3289023 -3279453 -3258604 -3229827 -3198582 -3173025 
3884.294 -3160394 -3165361 -3187300 -3220454 -3254789 -3280341 -3290798 
3887.669 -3285208 -3267121 -3243443 -3220618 -3204700 -3198155 -3201279 
3891.045 -3210751 -3222427 -3232294 -3237523 -3237260 -3231932 -3221901 
3894.420 -3207660 -3188846 -3164999 -3135295 -3100128 -3059892 -3016690 
3897.795 -2973320 -2933137 -2899994 -2876625 -2864841 -2864809 -2874618 
3901.170 -2891766 -2913653 -2938337 -2964829 -2992965 -3022876 -3054134 
3904.546 -3085850 -3116084 -3142796 -3164243 -3179538 -3188386 -3191116 
3907.921 -3188386 -3180623 -3168979 -3154473 -3138651 -3123584 -3110952 
3911.296 -3101938 -3096839 -3094634 -3092957 -3089930 -3084403 -3076441 
3914.671 -3067492 -3059793 -3055483 -3055253 -3058707 -3064005 -3068940 
3918.047 -3072230 -3073776 -3074631 -3075882 -3078185 -3080652 -3082100 
3921.422 -3080751 -3075586 -3067459 -3058707 -3052193 -3050647 -3055154 
3924.797 -3064761 -3076869 -3087660 -3094338 -3095095 -3089798 -3079632 
3928.172 -3066110 -3051403 -3036597 -3023501 -3013268 -3007806 -3008267 
3931.548 -3015769 -3029918 -3049199 -3070749 -3091509 -3108419 -3119867 
3934.923 -3125131 -3124802 -3120393 -3113452 -3105293 -3097200 -3089864 
3938.298 -3083350 -3077724 -3072756 -3067459 -3061800 -3055615 -3049725 
3941.673 -3044658 -3042256 -3042881 -3046632 -3052226 -3057358 -3059892 
3945.049 -3058082 -3051305 -3040677 -3028569 -3017315 -3009319 -3005864 
3948.424 -3006983 -3011722 -3018336 -3025344 -3031991 -3037485 -3041631 
3951.799 -3044428 -3045612 -3044922 -3042223 -3037584 -3031201 -3023271 
3955.174 -3014387 -3004680 -2994446 -2983784 -2972859 -2962065 -2952126 
3958.550 -2943372 -2936198 -2930932 -2927641 -2926357 -2927378 -2930801 
3961.925 -2936395 -2943899 -2952192 -2959992 -2966212 -2969963 -2971049 
3965.300 -2970292 -2968647 -2967297 -2967199 -2968416 -2970687 -2973155 
3968.675 -2974504 -2973978 -2970588 -2963710 -2952883 -2938436 -2920499 
3972.051 -2900357 -2879653 -2860694 -2845157 -2834393 -2828501 -2826130 
3975.426 -2825505 -2824484 -2821917 -2817012 -2810691 -2804008 -2797983 
3978.801 -2793605 -2790576 -2788568 -2786988 -2785440 -2783992 -2782675 
3982.176 -2782082 -2782049 -2782148 -2782082 -2781358 -2780206 -2779218 
3985.552 -2779383 -2781226 -2785144 -2790840 -2796864 -2802428 -2806115 
3988.927 -2808024 -2808288 -2807827 -2807399 -2807563 -2808189 -2809111 
3992.302 -2809835 -2809703 -2808880 -2807827 -2807037 -2807103 -2808123 
3995.677 -2810131 -2812896 -2815892 -2818723 -2821357 -2823694 -2825604 
3999.052 -2827513 -2829257 -2830871 -2832253 
##END=
