
##TITLE=Z326a_1_a
##JCAMP-DX=5.01  $$ Nicolet v. 1
##DATATYPE=INFRARED SPECTRUM
##ORIGIN=UniL
##OWNER=Nicolet
##LONGDATE=2011/09/15
##TIME=15:13:25
##SPECTROMETER/DATA SYSTEM=Nicolet iS5
##DATA PROCESSING=
Ratio against background
%Transmittance->Absorbance
Truncated
ElementMultiply or ElementDivide
##COMMENTS=
Number of sample scans: 32
Collection length: 51.18 sec
Sample gain: 2.0
Background collected on: Jeu Sep 15 15:11:05 2011 (GMT+02:00);
Number of background scans: 32
Background gain: 2.0
Sample spacing:  1.000
Number of scan points: 12415
Resolution points: 8192
Number of FFT points: 65536
Apodization: N-B fort;
Phase correction: Mertz;
Laser frequency: 15798.0 cm-1
Number of rejected sample scans: 0
Number of rejected background scans: 0
Bench serial number: ASB1000141;
##RESOLUTION=4.000
##XUNITS=1/CM
##YUNITS=ABSORBANCE
##FIRSTX=649.893372
##LASTX=4000.122314
##FIRSTY=0.114580
##MAXX=4000.122314
##MINX=649.893372
##MAXY=0.268130
##MINY=-0.003275
##XFACTOR=1.000000
##YFACTOR=1.000000E-009
##NPOINTS=6950
##DELTAX=0.482117
##ZPD=6100
##XYDATA=(X++(Y..Y))
649.893 114580224 113836872 113173808 112640824 112253544 111999232 
652.786 111849896 111783456 111795328 111901640 112125280 112482472 
655.679 112968576 113559192 114219520 114922952 115660688 116444952 
658.571 117297648 118236200 119265064 120377024 121562152 122821520 
661.464 124174016 125645904 127260744 129018264 130890576 132825520 
664.357 134768736 136677824 138518800 140262752 141859792 143215808 
667.250 144205024 144714112 144716432 144296832 143602480 142759456 
670.142 141822864 140786432 139614416 138276320 136772160 135142976 
673.035 133455384 131786152 130190032 128687488 127273576 125931280 
675.928 124650704 123435640 122300992 121259696 120312808 119444456 
678.820 118626368 117828208 117030256 116226528 115421872 114624440 
681.713 113838416 113060128 112282424 111499680 110713816 109933600 
684.606 109171176 108433184 107716656 107009288 106296368 105569496 
687.498 104832032 104098424 103388248 102716968 102087760 101490552 
690.391 100907008 100319648 99719856 99110048 98501336 97907744 97340224 
693.766 96803664 96300936 95836888 95422440 95076608 94821144 94673928 
697.141 94644512 94730760 94921848 95202904 95562064 95992552 96492520 
700.516 97061544 97695048 98380960 99102304 99839144 100574480 101298008 
703.890 102006112 102698960 103375424 104030248 104653984 105237232 
706.783 105774208 106267080 106724720 107160736 107587896 108015648 
709.676 108452456 108909112 109402528 109960184 110613008 111387944 
712.569 112297744 113330648 114448240 115586616 116674456 117642152 
715.461 118436440 119032448 119431624 119662624 119771096 119820472 
718.354 119884008 120034600 120344416 120868680 121633128 122624824 
721.247 123783680 125007392 126151728 127061128 127594336 127642216 
724.139 127160904 126179592 124802504 123181816 121494560 119911344 
727.032 118551048 117479784 116705184 116192840 115885928 115726208 
729.925 115670112 115688456 115763280 115881944 116029424 116188816 
732.817 116346576 116495560 116639640 116790424 116961888 117162544 
735.710 117391464 117638056 117889360 118134896 118371632 118604424 
738.603 118840208 119083312 119330088 119570976 119793704 119991616 
741.496 120166760 120330120 120495864 120676024 120874768 121088184 
744.388 121307624 121525680 121739640 121952296 122167256 122385088 
747.281 122599072 122797816 122968600 123104512 123207824 123289368 
750.174 123364016 123442160 123526784 123612712 123691112 123755040 
753.066 123805000 123847792 123894592 123954048 124028504 124113864 
755.959 124203032 124290944 124378520 124471088 124575912 124696080 
758.852 124828088 124962016 125085432 125189616 125272680 125339272 
761.744 125396800 125450056 125498712 125538480 125564752 125580728 
764.637 125600160 125649456 125763536 125975744 126313288 126787040 
767.530 127386808 128075288 128789456 129447880 129953992 130222992 
770.423 130201968 129889544 129345808 128686368 128060192 127596784 
773.315 127376096 127395152 127569888 127750560 127763808 127473368 
776.208 126799736 125741232 124355880 122732544 120953256 119064440 
779.101 117076624 114969152 112712640 110284984 107686136 104940016 
781.993 102091400 99194512 96306856 93485320 90777296 88221664 85848024 
785.368 83673104 81704296 79940216 78374008 76996032 75796296 74766400 
788.743 73899488 73189760 72632352 72222832 71957928 71836952 71862520 
792.118 72041152 72381992 72895576 73589592 74465800 75516040 76720464 
795.493 78046032 79445240 80863824 82241928 83521832 84662272 85645112 
798.867 86487896 87242344 87996688 88857880 89922480 91258864 92871664 
802.242 94687648 96539240 98187760 99367504 99813080 99341720 97891640 
805.617 95544096 92504848 89059864 85520424 82128104 79027944 76247192 
808.992 73715376 71304504 68882552 66366324 63735636 61038136 58360176 
812.367 55805012 53459056 51372820 49564032 48019876 46711364 45601420 
815.742 44655856 43846516 43149880 42548784 42030340 41585584 41209080 
819.116 40897476 40647440 40455296 40315116 40220636 40166624 40150816 
822.491 40174984 40243464 40362420 40537100 40770548 41063340 41413804 
825.866 41818648 42272048 42764960 43284536 43812684 44329040 44815516 
829.241 45260692 45665868 46048688 46444792 46901456 47476088 48228504 
832.616 49206968 50441564 51928232 53620488 55416432 57160000 58667956 
835.990 59733096 60174724 59880332 58822188 57075312 54794404 52196696 
839.365 49504388 46908768 44560096 42540304 40876692 39554068 38532592 
842.740 37762080 37192064 36781084 36493904 36302580 36187000 36131612 
846.115 36126356 36164708 36241128 36349736 36482804 36631304 36786636 
849.490 36943536 37100752 37261628 37431956 37617996 37824180 38052084 
852.865 38301972 38573620 38867972 39188420 39539876 39927688 40357004 
856.239 40832716 41359824 41945156 42596696 43325024 44142124 45060616 
859.614 46095332 47264128 48587612 50090884 51797404 53720816 55854296 
862.989 58160492 60565952 62955664 65193744 67138488 68659968 69674696 
866.364 70154288 70136800 69716392 69037200 68272248 67585784 67131672 
869.739 67030132 67356000 68148072 69407104 71103352 73175096 75532240 
873.113 78060312 80606688 82997856 85052104 86583864 87446904 87550912 
876.488 86876008 85477824 83475728 81037096 78336104 75544232 72808120 
879.863 70227192 67862208 65732388 63825892 62112364 60556848 59132496 
883.238 57825176 56636516 55579684 54672704 53930996 53361408 52961344 
886.613 52720280 52624368 52660424 52820212 53100012 53499492 54018944 
889.987 54657220 55411160 56277592 57255104 58347368 59562992 60915820 
893.362 62422432 64099124 65959924 68012416 70253208 72660040 75183168 
896.737 77742328 80212456 82438936 84252888 85482704 85998368 85729744 
900.112 84680792 82929112 80614232 77921176 75036840 72144224 69400536 
903.487 66916248 64766288 62988184 61588760 60556388 59867288 59495920 
906.862 59415748 59604912 60047404 60731308 61649664 62799380 64179508 
910.236 65790488 67631576 69696248 71968528 74416760 76987456 79611216 
913.611 82202168 84668112 86932512 88940504 90673696 92152808 93436832 
916.986 94611672 95768512 96996176 98353824 99856152 101462256 103073232 
920.361 104546648 105702352 106369168 106418320 105792512 104536192 
923.254 102799496 100836736 98951136 97472624 96711840 96887648 98112992 
926.628 100356760 103452824 107096192 110884144 114400584 117229680 
929.521 119043264 119649488 118983816 117110472 114176600 110388016 
932.414 105962104 101107400 96031440 90918896 85936704 81241072 76954704 
935.789 73172032 69958096 67342344 65330484 63910260 63058980 62746084 
939.163 62930576 63558584 64549176 65791488 67155504 68487072 69635408 
942.538 70478760 70929240 70955296 70578888 69871688 68935408 67882112 
945.913 66824800 65851064 65021908 64371072 63905612 63615352 63478544 
949.288 63470564 63565836 63739932 63971528 64239824 64526036 64815872 
952.663 65099000 65372228 65638460 65905548 66183216 66479832 66800960 
956.037 67148776 67522840 67921824 68344880 68791712 69262128 69755424 
959.412 70269800 70802624 71351640 71915816 72495952 73094240 73712904 
962.787 74353128 75014232 75694640 76392592 77107968 77842120 78598056 
966.162 79378176 80183600 81013256 81864976 82736488 83627184 84538960 
969.537 85475200 86439816 87435520 88463608 89524184 90617936 91747304 
972.912 92916272 94129960 95392760 96706704 98072048 99487360 100952568 
976.286 102470056 104044528 105682744 107391104 109174624 111037552 
979.179 112985296 115026752 117176432 119455440 121886664 124492056 
982.072 127288848 130284656 133476912 136849472 140372736 143995408 
984.964 147637680 151195776 154529408 157474432 159870896 161567216 
987.857 162454496 162484656 161674800 160108336 157918656 155288480 
990.750 152418480 149506512 146747520 144296976 142268976 140736736 
993.643 139726896 139232512 139222656 139657600 140494800 141694912 
996.535 143226224 145058816 147163616 149513568 152079696 154832960 
999.428 157745920 160783472 163900016 167036464 170109344 173020640 
1002.321 175669312 177956736 179810576 181193264 182106768 182592528 
1005.213 182726704 182617856 182386784 182164960 182083632 182250112 
1008.106 182749360 183634032 184922928 186609168 188668080 191070144 
1010.999 193783168 196776960 200023216 203487824 207131984 210915024 
1013.891 214793376 218727920 222681824 226608432 230443808 234092416 
1016.784 237415120 240250336 242424720 243782368 244227760 243741328 
1019.677 242399280 240357776 237854272 235179344 232622880 230476848 
1022.570 228986192 228316448 228561456 229726560 231746528 234494736 
1025.462 237813344 241537344 245492384 249518304 253464016 257174816 
1028.355 260510288 263342016 265564240 267112560 267963136 268130384 
1031.249 267652896 266583888 264979424 262890752 260369696 257465040 
1034.142 254218464 250662112 246811744 242666368 238214640 233448048 
1037.035 228373712 223025120 217462160 211763632 206023552 200332384 
1039.928 194773856 189425104 184345328 179578304 175144320 171032656 
1042.821 167198544 163563456 160034096 156510368 152911568 149197504 
1045.714 145374000 141496272 137652464 133957792 130530048 127471048 
1048.607 124866912 122772848 121213528 120187688 119670560 119622208 
1051.500 119990088 120721344 121763624 123066024 124582712 126263560 
1054.393 128047376 129863680 131621824 133216608 134544016 135501200 
1057.286 136003360 135997200 135461280 134414848 132913992 131057728 
1060.179 128975896 126816096 124744304 122915264 121462216 120496784 
1063.072 120090776 120281912 121074000 122440336 124324336 126638336 
1065.965 129275160 132100520 134960832 137707792 140194608 142297632 
1068.858 143930736 145038864 145600448 145618752 145115216 144122544 
1071.751 142679744 140834000 138635728 136137392 133399384 130485120 
1074.645 127466560 124430760 121470888 118689816 116195608 114082920 
1077.538 112434824 111312888 110748448 110743400 111263952 112244664 
1080.431 113579552 115127336 116729640 118204664 119381024 120125856 
1083.324 120354512 120058144 119300736 118218144 116987224 115802256 
1086.217 114862688 114332856 114338240 114958136 116214968 118077960 
1089.110 120461280 123241088 126252520 129305376 132217992 134813872 
1092.003 136947024 138517616 139462592 139760960 139425408 138497824 
1094.896 137040672 135127744 132844480 130275176 127499584 124596888 
1097.789 121636544 118681536 115788240 112996600 110328808 107783752 
1100.682 105337936 102948856 100565168 98144064 95659928 93116832 90549112 
1104.057 88020960 85615888 83419160 81517296 79981248 78860760 78187832 
1107.433 77973352 78211192 78881184 79952400 81385632 83131088 85134368 
1110.808 87332280 89649696 92005968 94307856 96450896 98335248 99863664 
1114.183 100956456 101564648 101669480 101285296 100451448 99229032 97689776 
1117.558 95905264 93948632 91883048 89758992 87615968 85478624 83360736 
1120.934 81269992 79211976 77195352 75235296 73352144 71571232 69920456 
1124.309 68424112 67103528 65975316 65050660 64339176 63849188 63588500 
1127.684 63564800 63783100 64243392 64937784 65848016 66945628 68188224 
1131.059 69522664 70887184 72209640 73419392 74454432 75267880 75841432 
1134.435 76187960 76353280 76404360 76422576 76489944 76669264 77000704 
1137.810 77491624 78117576 78823016 79529520 80151248 80595320 80779456 
1141.185 80641832 80139368 79254120 77989168 76365256 74416048 72184208 
1144.560 69722544 67087248 64338216 61538208 58743964 56008516 53377780 
1147.936 50886472 48560932 46418540 44467696 42711180 41146564 39769088 
1151.311 38571556 37545776 36682928 35973348 35407976 34979176 34680876 
1154.686 34509008 34461116 34535552 34730836 35045548 35478836 36031376 
1158.061 36705500 37505312 38435384 39499344 40698200 42029392 43485880 
1161.437 45055396 46721400 48459492 50237524 52017528 53751528 55387068 
1164.812 56872588 58155412 59190552 59942520 60385316 60506800 60307840 
1168.187 59803476 59019672 57991644 56761788 55371564 53863364 52277712 
1171.562 50649308 49011004 47392344 45818056 44310768 42889768 41569396 
1174.938 40361440 39273536 38310116 37473708 36765612 36186600 35737532 
1178.313 35418544 35229600 35169268 35235888 35428288 35746744 36193840 
1181.688 36773976 37492852 38355464 39365348 40523132 41825688 43264404 
1185.063 44822756 46476248 48186072 49900388 51558996 53090876 54425916 
1188.438 55503548 56274348 56710020 56804872 56576460 56061856 55313336 
1191.814 54395348 53372612 52308804 51263820 50285884 49415276 48682524 
1195.189 48106852 47698656 47458864 47380220 47446744 47633612 47909680 
1198.564 48233428 48557116 48830620 48999320 49012708 48828992 48417520 
1201.939 47765556 46880048 45788748 44534948 43173120 41764876 40366024 
1205.315 39026212 37784740 36666060 35683756 34841400 34135392 33557516 
1208.690 33097066 32742492 32481394 32301292 32191478 32142952 32150264 
1212.065 32211568 32328204 32503072 32739348 33038962 33401330 33823772 
1215.440 34300804 34825140 35386984 35973672 36571248 37164164 37736452 
1218.816 38275300 38770040 39213732 39603104 39937532 40218712 40450716 
1222.191 40640744 40799560 40940764 41082096 41242160 41438404 41686124 
1225.566 41994976 42368436 42803720 43292408 43821264 44372932 44928972 
1228.941 45470792 45981316 46448624 46866172 47234020 47558152 47850968 
1232.317 48130212 48417300 48740088 49131276 49625688 50263416 51083248 
1235.692 52119652 53402844 54953400 56782932 58894204 61282108 63933632 
1239.067 66826424 69930224 73203648 76593688 80043512 83489944 86868200 
1242.442 90119096 93183552 96006024 98538240 100735488 102561768 103991560 
1245.818 105007656 105601528 105771376 105521960 104864968 103819456 
1248.711 102413800 100680800 98653792 96364264 93836016 91087192 88135360 
1252.086 85000760 81714888 78323640 74882488 71459624 68128336 64955524 
1255.461 62003924 59322372 56939672 54867256 53095632 51598100 50331196 
1258.836 49240632 48267640 47348368 46425876 45453976 44399424 43247712 
1262.212 42001068 40677240 39303064 37911016 36534808 35202252 33936400 
1265.587 32753892 31663828 30671034 29775596 28974116 28260352 27626742 
1268.962 27066130 26572352 26141768 25772784 25465348 25219298 25033930 
1272.337 24907588 24837976 24822924 24860640 24949348 25086444 25266988 
1275.713 25483408 25724618 25975950 26221374 26442356 26619484 26735262 
1279.088 26774096 26725676 26587286 26364330 26070022 25721734 25339514 
1282.463 24940714 24537828 24139134 23749448 23372944 23016158 22688498 
1285.838 22402392 22171530 22007570 21919392 21913154 21992058 22159396 
1289.214 22418406 22773096 23226532 23779336 24428140 25164172 25972222 
1292.589 26831542 27712448 28579152 29391848 30106410 30684830 31099586 
1295.964 31338840 31410110 31338912 31165936 30936242 30696424 30488336 
1299.339 30343414 30284186 30323160 30462248 30692724 30993742 31335742 
1302.715 31678726 31979426 32198902 32304074 32275058 32105740 31803060 
1306.090 31383752 30871312 30294666 29683200 29065758 28470382 27919350 
1309.465 27429826 27012248 26670710 26405102 26213560 26094650 26048350 
1312.840 26075792 26177486 26352852 26599264 26914164 27295482 27743246 
1316.216 28259328 28846022 29503366 30227738 31011108 31842456 32710374 
1319.591 33603440 34512164 35426924 36335544 37221592 38062756 38829748 
1322.966 39492592 40020980 40390932 40592320 40631212 40535136 40347732 
1326.341 40130316 39950540 39869680 39938880 40186176 40613896 41199896 
1329.717 41905452 42685296 43494636 44300860 45085132 45841804 46575272 
1333.092 47296344 48018840 48755064 49516016 50308316 51133640 51986156 
1336.467 52851872 53710804 54536312 55299152 55972180 56530492 56955276 
1339.842 57235444 57367316 57354880 57208344 56943604 56579820 56138096 
1343.218 55641672 55112076 54568248 54025432 53493008 52975044 52471796 
1346.593 51980776 51497852 51016688 50529212 50024400 49489720 48914684 
1349.968 48293784 47631352 46943100 46258436 45616252 45060140 44637348 
1353.343 44389444 44349188 44537588 44957084 45589568 46391992 47303768 
1356.719 48248348 49141180 49907600 50483804 50826200 50916048 50757968 
1360.094 50380684 49830408 49174572 48494648 47874940 47400620 47137132 
1363.469 47117156 47335660 47750356 48292116 48871484 49397492 49784996 
1366.844 49959120 49872180 49506544 48880348 48041192 47060028 46017668 
1370.219 44984904 44020952 43167008 42445556 41868672 41443144 41175196 
1373.595 41072552 41140848 41378444 41772392 42297756 42923744 43618368 
1376.970 44356564 45123364 45912804 46727892 47578264 48479868 49452480 
1380.345 50519536 51704124 53019440 54458820 55982696 57518936 58956856 
1383.720 60161708 61001188 61348468 61112088 60256484 58821244 56931816 
1387.096 54778316 52593472 50581328 48878048 47544876 46572176 45908756 
1390.471 45483008 45224912 45069256 44956824 44838552 44671060 44420088 
1393.846 44068184 43616244 43084232 42501932 41898808 41293680 40692088 
1397.221 40092308 39494116 38907292 38356076 37875332 37499644 37255056 
1400.597 37150484 37179936 37328060 37577856 37915104 38329764 38816992 
1403.972 39374636 40001144 40693728 41447156 42253932 43105748 43993964 
1407.347 44911520 45853588 46816160 47795964 48790140 49794992 50807688 
1410.722 51826112 52848992 53873416 54892896 55893448 56854536 57751404 
1414.098 58559840 59265592 59867932 60381816 60832532 61252316 61674376 
1417.473 62127008 62634268 63212448 63866080 64586744 65350660 66123836 
1420.848 66866384 67541608 68123184 68597728 68971488 69271528 69543344 
1424.223 69836744 70191120 70624464 71128520 71676464 72234216 72774304 
1427.599 73279576 73745928 74179992 74596600 75016280 75462064 75962184 
1430.974 76547328 77244552 78073912 79040864 80136104 81336960 82617968 
1434.349 83959760 85351728 86797696 88310576 89906744 91590504 93352152 
1437.724 95169944 97013152 98847160 100629200 102310752 103826696 105098816 
1441.100 106051776 106611272 106719416 106341232 105463712 104100608 
1443.993 102291720 100108048 97643144 94999736 92291128 89622088 87086992 
1447.368 84773984 82750480 81056904 79698712 78648328 77858504 77280728 
1450.743 76886032 76670680 76653448 76857824 77294152 77941552 78748736 
1454.118 79629648 80476936 81181432 81638752 81790888 81657544 81356824 
1457.494 81059496 80917120 81025552 81411608 82066056 82968056 84095416 
1460.869 85421224 86902312 88478592 90058056 91515968 92719624 93538080 
1464.244 93887096 93760592 93238336 92456440 91551384 90636144 89777856 
1467.619 89005048 88324792 87726824 87184792 86647112 86033232 85236032 
1470.995 84131496 82623216 80683328 78384328 75880104 73349632 70933800 
1474.370 68701264 66669708 64837256 63209304 61810468 60671592 59808380 
1477.745 59208324 58827384 58604924 58477376 58396864 58339712 58304124 
1481.120 58304884 58362904 58500236 58736228 59091304 59593168 60275592 
1484.496 61176660 62328756 63746148 65412292 67267560 69215880 71116304 
1487.871 72792488 74059152 74723616 74627208 73689664 71932312 69489496 
1491.246 66565564 63389196 60147020 56953916 53871056 50912064 48075760 
1494.621 45377132 42854692 40575332 38618776 37049036 35893588 35138084 
1497.997 34743328 34660384 34845888 35268124 35899672 36713216 37678812 
1501.372 38760476 39918756 41115092 42301664 43421028 44400824 45133728 
1504.747 45483560 45298312 44452316 42922500 40839924 38463984 36059316 
1508.122 33799740 31743028 29870706 28142402 26529344 25023472 23637998 
1511.498 22394228 21306406 20377924 19598612 18951302 18417362 17980798 
1514.873 17628410 17346410 17121216 16941340 16800488 16700964 16650902 
1518.248 16657926 16722417 16834276 16972692 17116012 17249244 17376412 
1521.623 17519624 17709266 17966500 18291824 18669584 19077204 19497650 
1524.999 19924502 20365284 20836616 21356904 21936434 22574110 23260544 
1528.374 23984968 24741118 25528984 26353978 27223228 28141198 29109726 
1531.749 30127220 31190074 32293938 33433534 34601572 35785784 36972216 
1535.124 38144796 39288664 40386204 41418360 42367300 43210340 43926392 
1538.500 44497244 44912108 45167848 45269628 45233516 45081272 44839284 
1541.875 44531788 44173376 43765776 43298372 42756808 42134748 41443948 
1545.250 40715632 39992748 39311804 38687192 38110212 37555164 36994372 
1548.625 36412968 35820072 35246956 34736436 34322036 34014328 33801892 
1552.000 33660476 33567504 33511304 33496558 33537756 33649588 33834772 
1555.376 34079768 34354452 34621700 34837272 34955800 34942224 34788232 
1558.751 34535160 34266456 34076900 34022676 34108404 34308264 34586608 
1562.126 34913316 35264636 35627716 35999772 36386056 36797960 37246320 
1565.501 37736600 38264624 38817244 39374996 39919044 40433440 40910184 
1568.877 41349728 41762616 42164028 42566908 42978980 43400776 43826872 
1572.252 44247624 44650608 45020556 45335864 45571540 45703816 45717656 
1575.627 45620224 45443788 45239364 45049404 44892412 44756780 44612052 
1579.002 44421004 44150928 43782852 43313492 42753260 42119520 41430168 
1582.378 40697040 39925108 39117244 38278524 37418556 36550848 35686884 
1585.753 34832676 33987920 33149384 32317140 31499416 30712034 29974962 
1589.128 29306376 28715840 28204554 27767404 27398592 27093108 26846168 
1592.503 26649712 26487044 26332186 26155702 25929378 25636350 25276048 
1595.879 24863166 24421058 23972538 23534764 23116300 22719712 22348390 
1599.254 22008754 21710730 21465334 21279334 21152930 21080682 21055988 
1602.629 21073900 21133380 21234376 21373506 21538586 21708848 21855448 
1606.004 21948910 21967172 21897854 21741314 21506276 21205950 20852156 
1609.380 20454120 20021402 19566966 19109716 18673492 18279970 17942810 
1612.755 17663642 17432044 17229696 17036300 16836376 16621845 16394723 
1616.130 16166342 15953688 15774604 15641961 15562655 15536693 15559084 
1619.505 15619600 15704034 15795803 15878348 15940832 15982494 16015049 
1622.881 16058128 16131574 16247168 16403358 16589038 16789742 16996088 
1626.256 17204048 17415280 17632240 17854902 18078300 18295520 18501028 
1629.631 18694870 18882258 19071492 19268360 19473044 19677272 19866646 
1633.006 20024732 20134946 20186974 20178818 20120542 20030388 19931024 
1636.382 19841880 19773004 19725708 19694676 19671204 19644474 19603362 
1639.757 19539100 19447646 19331994 19201550 19069968 18948950 18842636 
1643.132 18746828 18648312 18529000 18370384 18160898 17900822 17605774 
1646.507 17303202 17024790 16797700 16636442 16543325 16510902 16526459 
1649.883 16572170 16623257 16648183 16605390 16452705 16169129 15783777 
1653.258 15381946 15057663 14862796 14787748 14789565 14820179 14844830 
1656.633 14845619 14818260 14769441 14709284 14646324 14583271 14515910 
1660.008 14436091 14335534 14209218 14057031 13884029 13698511 13510714 
1663.384 13329969 13164701 13021040 12901626 12804971 12724579 12648943 
1666.759 12562236 12447892 12293356 12094343 11858406 11603301 11352087 
1670.134 11123861 10928815 10767312 10632896 10515325 10402673 10282891 
1673.509 10142893 9971408 9763629 9526245 9278971 9047062 8852134 8702016 
1677.367 8590306 8500316 8413251 8315361 8202333 8080557 7962391 7859644 
1681.224 7774393 7696006 7600975 7461064 7255021 6984153 6679939 6393860 
1685.082 6169569 6019904 5930547 5873616 5823812 5763672 5686117 5591659 
1688.939 5484874 5371237 5254847 5139628 5030338 4932638 4852082 4790234 
1692.796 4742229 4694932 4629791 4527694 4378528 4190836 3993963 3826560 
1696.654 3714660 3661126 3645255 3634997 3594302 3495489 3330549 3119814 
1700.511 2906814 2734395 2624009 2569143 2548845 2538547 2520383 2483792 
1704.369 2424679 2345652 2253350 2156839 2064211 1981589 1911794 1855288 
1708.226 1809736 1771740 1737208 1703211 1669050 1636222 1607819 1586635 
1712.083 1573366 1566217 1560830 1552683 1538118 1516372 1488011 1454233 
1715.941 1414440 1366242 1307713 1240087 1170412 1110746 1072015 1059327 
1719.798 1070553 1097459 1128917 1154764 1169249 1171674 1166591 1160445 
1723.656 1159315 1165727 1178618 1194632 1211013 1226729 1242812 1260025 
1727.513 1278069 1293987 1303658 1303658 1293854 1277338 1259194 1242778 
1731.371 1226164 1200712 1152172 1066767 938541 778585 613976 477491 390196 
1735.710 353418 353717 371326 389101 394242 381275 351429 310842 267573 
1740.050 228022 196065 171833 154763 144090 139616 141339 148233 158774 
1744.389 170740 182706 194407 206639 220098 233956 245692 251261 246288 
1748.729 227624 194938 150487 98750 44898 -6262 -50360 -85013 -108500 
1753.069 -120823 -124135 -122280 -121651 -128640 -148547 -182662 -226908 
1756.926 -272640 -309891 -333035 -341908 -342702 -344391 -356309 -383423 
1760.783 -425265 -475114 -523732 -563012 -588624 -601496 -605466 -605532 
1764.641 -605003 -606194 -610330 -618536 -631671 -649703 -670347 -689270 
1768.498 -701212 -702403 -693206 -679180 -669057 -673192 -698301 -743586 
1772.356 -799715 -852166 -889102 -904544 -901237 -886192 -867609 -850314 
1776.213 -835664 -821774 -806792 -790157 -774810 -765284 -765847 -777754 
1780.071 -798160 -820286 -837483 -846114 -846875 -844196 -844031 -850181 
1783.928 -863277 -879943 -894955 -903816 -905172 -900014 -890855 -880174 
1787.785 -868435 -855109 -839765 -823262 -809074 -802129 -807454 -827198 
1791.643 -858912 -896542 -931921 -959362 -976917 -986835 -992819 -998042 
1795.500 -1003563 -1008521 -1011629 -1012422 -1012257 -1013711 -1019496 
1798.875 -1030636 -1045841 -1061674 -1074069 -1080547 -1080679 -1076448 
1802.251 -1070466 -1064583 -1058897 -1052221 -1043230 -1031561 -1018075 
1805.626 -1004290 -991860 -981116 -971198 -960817 -949973 -940087 -934632 
1809.483 -936682 -948188 -968090 -991794 -1013711 -1028950 -1035925 -1036222 
1813.341 -1034008 -1033446 -1036222 -1041379 -1044783 -1042106 -1029909 
1816.716 -1007364 -976752 -941641 -905668 -871444 -839500 -810199 -783575 
1820.573 -760224 -740742 -725493 -713749 -704090 -694993 -685532 -676037 
1824.431 -667303 -660223 -654070 -647188 -637428 -623830 -608047 -594349 
1828.288 -588293 -594249 -612812 -638751 -663565 -677261 -673357 -651258 
1832.146 -615492 -572774 -529655 -489809 -453533 -419241 -384251 -347569 
1836.003 -309990 -273369 -239128 -206839 -173720 -136457 -91837 -38831 20974 
1840.343 84466 148101 209457 267540 322447 375338 427473 479979 534814 
1844.682 594367 660996 735535 816493 899028 976364 1040561 1085700 1109418 
1849.022 1113537 1102674 1082511 1056769 1025748 987223 938175 877048 805539 
1853.362 727569 647822 569682 493978 419414 343702 266678 190164 118006 
1857.701 53614 -1557 -49996 -96011 -144374 -197765 -254692 -310984 -361308 
1862.041 -402226 -433210 -457373 -478159 -498315 -517841 -534520 -545805 
1865.898 -550504 -550305 -549577 -552622 -561987 -575785 -589121 -595705 
1869.756 -591569 -576778 -555534 -532965 -513572 -498910 -488286 -479913 
1873.613 -472896 -467964 -468196 -476504 -494542 -521150 -552721 -584720 
1877.470 -614036 -639545 -661977 -683216 -703925 -723177 -738459 -747787 
1881.328 -750599 -749739 -749375 -753542 -764524 -780863 -798458 -812745 
1885.185 -820418 -821146 -817806 -814432 -814068 -818269 -826073 -835432 
1889.043 -844626 -852893 -860466 -867609 -873329 -875776 -872833 -863475 
1892.900 -849322 -834010 -822204 -816516 -816714 -819393 -819393 -812150 
1896.758 -796771 -775769 -754402 -737070 -725923 -719869 -715172 -707663 
1900.615 -695456 -679808 -664127 -652250 -646262 -645468 -647188 -648942 
1904.472 -649239 -649041 -650530 -655658 -663664 -672100 -677063 -675408 
1908.330 -666741 -654202 -641861 -634219 -632598 -635641 -639579 -641067 
1912.187 -638950 -634583 -630282 -628793 -630182 -633028 -634947 -634980 
1916.045 -634814 -638024 -649107 -669718 -697672 -726783 -750665 -765020 
1919.902 -770874 -773454 -779871 -795250 -820220 -850049 -876768 -893235 
1923.760 -896377 -888011 -873759 -859507 -848297 -839864 -830968 -818930 
1927.617 -803485 -787412 -775207 -770080 -771966 -776927 -779341 -774711 
1931.474 -762076 -745405 -730984 -723376 -724401 -731546 -739617 -744579 
1935.332 -746464 -748647 -757379 -776927 -807256 -842708 -875148 -897170 
1939.189 -905900 -903982 -898361 -896079 -900609 -910132 -918299 -918034 
1943.047 -905205 -880373 -847933 -812845 -778779 -745802 -712162 -675772 
1946.904 -637891 -602058 -572774 -553813 -544779 -542231 -540841 -536241 
1950.761 -528166 -519628 -516186 -520819 -533792 -551695 -569167 -583131 
1954.619 -594547 -608345 -631307 -667502 -716032 -770676 -822667 -863839 
1958.476 -891384 -907288 -916745 -924217 -930631 -932119 -924449 -905205 
1962.334 -877826 -849818 -830472 -824552 -831232 -843799 -853389 -853356 
1966.191 -844394 -833250 -829116 -838409 -860168 -886556 -907388 -914000 
1970.049 -905007 -886688 -869626 -863045 -871478 -891483 -915554 -936318 
1973.906 -947791 -947956 -935492 -905999 -850876 -760290 -627602 -456843 
1977.763 -265289 -79812 73199 173889 216651 209358 168917 113001 54542 -1259 
1982.585 -55197 -110686 -168420 -226511 -279495 -322638 -353926 -375345 
1986.443 -390971 -404874 -418480 -431058 -440988 -449197 -459193 -477166 
1990.300 -507416 -550338 -600040 -645567 -674846 -680636 -662705 -628528 
1994.157 -588856 -553350 -526710 -508210 -493813 -479813 -466111 -457009 
1998.015 -457571 -472565 -502054 -541238 -582767 -620455 -651357 -677162 
2001.872 -702535 -730917 -762804 -794589 -819691 -831596 -826371 -804345 
2005.730 -768195 -722449 -669156 -610893 -549610 -488981 -434468 -392096 
2009.587 -364718 -351244 -345814 -340054 -326347 -302408 -270687 -238035 
2013.445 -211542 -194618 -185775 -179913 -171136 -156364 -137650 -120756 
2017.302 -111547 -112574 -120657 -128806 -129932 -119464 -97933 -70569 
2021.159 -43535 -20642 -3379 11563 26839 42745 56430 63920 60937 48212 30119 
2026.463 14281 7455 12756 28098 48444 68294 85925 103821 127153 160729 
2031.285 205380 258290 313892 367645 419049 471056 528842 594831 666339 
2035.625 735568 792493 829075 842719 838304 824560 810751 802916 802518 
2039.964 806302 810286 812145 812908 815265 822635 834055 845774 853609 
2044.304 853277 845541 835482 831996 843948 876384 929642 998614 1074639 
2048.644 1148086 1210116 1254409 1276274 1274081 1248926 1205929 1153601 
2052.501 1103405 1067066 1053448 1065073 1098123 1142771 1188353 1225599 
2056.358 1250720 1264444 1270392 1271755 1269562 1262417 1248627 1228125 
2060.216 1204301 1183535 1172870 1176791 1195496 1224204 1256236 1285879 
2064.073 1310604 1332074 1353212 1376778 1402739 1426607 1443195 1448548 
2067.931 1441167 1424180 1402706 1381199 1362087 1344670 1326058 1303957 
2071.788 1278833 1253445 1232743 1220881 1219585 1227128 1239854 1253877 
2075.646 1267402 1281027 1296546 1315822 1339120 1364447 1388512 1409121 
2079.503 1426075 1441101 1456560 1475011 1495824 1517270 1535924 1549391 
2083.360 1557438 1561462 1563656 1565518 1566483 1563956 1554645 1536955 
2087.218 1511518 1481894 1452338 1426108 1403836 1384390 1364347 1341380 
2091.075 1315689 1289933 1268100 1254110 1249291 1252614 1260988 1271090 
2094.933 1281159 1291063 1302229 1316054 1332539 1350952 1369665 1388678 
2098.790 1409487 1435084 1468462 1510986 1560663 1613839 1664892 1709531 
2102.647 1745924 1775400 1800187 1823644 1847102 1870695 1892925 1912793 
2106.505 1929899 1945109 1959687 1974033 1987713 1999696 2008983 2016473 
2110.362 2024496 2036147 2053724 2076862 2102432 2124640 2138658 2141822 
2114.220 2135495 2124374 2114418 2111189 2116549 2129235 2144718 2159203 
2118.077 2169193 2173689 2173589 2170725 2166096 2160502 2154542 2149314 
2121.935 2147249 2151145 2163499 2184844 2212885 2243525 2271769 2294352 
2125.792 2310142 2320435 2327663 2333160 2336891 2336724 2330062 2315505 
2129.649 2294186 2268971 2244624 2224841 2211220 2203693 2201362 2203993 
2133.507 2213118 2231602 2261411 2302214 2350716 2400623 2444805 2479393 
2137.364 2504387 2523416 2542380 2565343 2593342 2623342 2650111 2667980 
2141.222 2674748 2670180 2657812 2640743 2621875 2601808 2581042 2559544 
2145.079 2539113 2522050 2511052 2506653 2507286 2508686 2506053 2495755 
2148.937 2476461 2447870 2411085 2365874 2310474 2243292 2163366 2072234 
2152.794 1973700 1872792 1771241 1668251 1560497 1444991 1326590 1220316 
2156.651 1150611 1148750 1240253 1432823 1710995 2037578 2364208 2644610 
2160.509 2849678 2969662 3013368 2999922 2951047 2885733 2816927 2751800 
2164.366 2694218 2646044 2607209 2575109 2546612 2516784 2481992 2440939 
2168.224 2394692 2346119 2297517 2248921 2197299 2137826 2066608 1983186 
2172.081 1891793 1801917 1723236 1665391 1632297 1622918 1631732 1650623 
2175.938 1671577 1687410 1692101 1680458 1649426 1598408 1530803 1454798 
2179.796 1382761 1326424 1295449 1293555 1315922 1352282 1391005 1421953 
2183.653 1439273 1443096 1436081 1422385 1405232 1386351 1367638 1352315 
2187.511 1344637 1348991 1368103 1400312 1438840 1476607 1504369 1517736 
2191.368 1517403 1509390 1501610 1501776 1513845 1537919 1570606 1607387 
2195.226 1643472 1676434 1704741 1726796 1741865 1748186 1745358 1734181 
2199.083 1718213 1701215 1687643 1680226 1678995 1682321 1687743 1692733 
2202.940 1696525 1699851 1703377 1708433 1715585 1724201 1734247 1746456 
2206.798 1761427 1780224 1803081 1827836 1851328 1869863 1880212 1881510 
2210.655 1875254 1864206 1851528 1840181 1831463 1825507 1823278 1824709 
2214.513 1830299 1840447 1854290 1869164 1882242 1890129 1891161 1885703 
2218.370 1875554 1862476 1848500 1833693 1817189 1798091 1776930 1755073 
2222.228 1735977 1722371 1715286 1713756 1714554 1714188 1710429 1703344 
2226.085 1694562 1686612 1681423 1678995 1677664 1675502 1671278 1665823 
2229.942 1661400 1660734 1665757 1676567 1691236 1707169 1722870 1737840 
2233.800 1753343 1771075 1791370 1813130 1834924 1854589 1872093 1888399 
2237.657 1906303 1927536 1952498 1978493 2001327 2017372 2024862 2024895 
2241.515 2022299 2022365 2029056 2043737 2064444 2087782 2110356 2130933 
2245.372 2150046 2169959 2192770 2218380 2245423 2270870 2291854 2307177 
2249.229 2317570 2324365 2329729 2335125 2340189 2344986 2349650 2355513 
2253.087 2364874 2379833 2401056 2426578 2453035 2475228 2489257 2493689 
2256.944 2489290 2478693 2465131 2451202 2437874 2425845 2414850 2405321 
2260.802 2398524 2395492 2396625 2400956 2406787 2412118 2416016 2419348 
2264.659 2423646 2431243 2443205 2458166 2473662 2485425 2490457 2487991 
2268.517 2479560 2468096 2457267 2449869 2446604 2446837 2449036 2451935 
2272.374 2454534 2457333 2460466 2464264 2468830 2473595 2478460 2483492 
2276.231 2489190 2495822 2503853 2512618 2521750 2531048 2540646 2552445 
2280.089 2567677 2587842 2612642 2641043 2670314 2697685 2721524 2741563 
2283.946 2758636 2774442 2790382 2806756 2823130 2837938 2849478 2857082 
2287.804 2859950 2858549 2853013 2843741 2830968 2815527 2799119 2783712 
2291.661 2771674 2765005 2764371 2769340 2778643 2790815 2804921 2821229 
2295.519 2840639 2864053 2891803 2922358 2953249 2981639 3004793 3021475 
2299.376 3032553 3039059 3043397 3047801 3053741 3061949 3073395 3088245 
2303.233 3106866 3129292 3154857 3182326 3210331 3237103 3261672 3284207 
2307.091 3304973 3325206 3345440 3366110 3386512 3406415 3425117 3442350 
2310.948 3458815 3475248 3491648 3508449 3525351 3542053 3558589 3575694 
2314.806 3594269 3615551 3640377 3669113 3701293 3736516 3773815 3812922 
2318.663 3853737 3896328 3941231 3988378 4037704 4088374 4138816 4185985 
2322.521 4225230 4251227 4258220 4241691 4200371 4136240 4055865 3967613 
2326.378 3881484 3806638 3748615 3709680 3687993 3679572 3679438 3683114 
2330.235 3688360 3693874 3699488 3705637 3712588 3720642 3730801 3744504 
2334.093 3763086 3788287 3820109 3857648 3898669 3940562 3981188 4019511 
2337.950 4055095 4088307 4119415 4147748 4172202 4191405 4205222 4214222 
2341.808 4220278 4225430 4230482 4234564 4234832 4227538 4209705 4181301 
2345.665 4145205 4108276 4078976 4065163 4073123 4106035 4163638 4242829 
2349.522 4339068 4446008 4556858 4665860 4767755 4859185 4939006 5007512 
2353.380 5066173 5116460 5159712 5196730 5228252 5255551 5280303 5304686 
2357.237 5330346 5357886 5386568 5414212 5438234 5456923 5469405 5476351 
2361.095 5479505 5480679 5481015 5480545 5478632 5474337 5466989 5457091 
2364.952 5445146 5432396 5419882 5408140 5397270 5387675 5379422 5372579 
2368.810 5367279 5362616 5356947 5348191 5334371 5314011 5287379 5255551 
2372.667 5220808 5185832 5152067 5120819 5092422 5066743 5043713 5024037 
2376.524 5008216 4996686 4989781 4987468 4988742 4993166 5000373 5010596 
2380.382 5024238 5042004 5063961 5089908 5118908 5149720 5181339 5212994 
2384.239 5244484 5275842 5307168 5338262 5368687 5397874 5424814 5449105 
2388.097 5470512 5488934 5504672 5518094 5529403 5539136 5547827 5556117 
2391.954 5564809 5574609 5585719 5598003 5611194 5624217 5635898 5645632 
2395.812 5652782 5657348 5660402 5662820 5666445 5673058 5684270 5701224 
2399.669 5724490 5753834 5788285 5827036 5868847 5912778 5958629 6006096 
2403.526 6055384 6106928 6161167 6218505 6279481 6344400 6413094 6485230 
2407.384 6559800 6635762 6712141 6788870 6866420 6946375 7030386 7119397 
2411.241 7213379 7310751 7408482 7502965 7590994 7670442 7740595 7802190 
2415.099 7856506 7905228 7949635 7990133 8027123 8060978 8091628 8119580 
2418.956 8145103 8168534 8189974 8209389 8227117 8243224 8258455 8273213 
2422.813 8287667 8302189 8316544 8330932 8346232 8363594 8384943 8412508 
2426.671 8447575 8491227 8543467 8603723 8671255 8745254 8825387 8910945 
2430.528 9001459 9096120 9193780 9293831 9396174 9501217 9610180 9724626 
2434.386 9844898 9971001 10101685 10234919 10368804 10502018 10634187 
2437.761 10765716 10897964 11032156 11169823 11312397 11461142 11617016 
2441.136 11780947 11952874 12131651 12315546 12501667 12686777 12869371 
2444.511 13048457 13224509 13398922 13573168 13748235 13924160 14100224 
2447.887 14275230 14448594 14620108 14789873 14958812 15127543 15295275 
2451.262 15461871 15625749 15785495 15939871 16087973 16229041 16363136 
2454.637 16490251 16610518 16723692 16829972 16928626 17019140 17100296 
2458.012 17171058 17230316 17277310 17311926 17334410 17345168 17344444 
2461.388 17332512 17309238 17274446 17228628 17172540 17107946 17037024 
2464.763 16962426 16886324 16811026 16738774 16671387 16611483 16561877 
2468.138 16525598 16505327 16503295 16520608 16557574 16613755 16688259 
2471.513 16779720 16886738 17007596 17140002 17281756 17430180 17583208 
2474.889 17738846 17895884 18052704 18208094 18360120 18506282 18644230 
2478.264 18771946 18887898 18991904 19084060 19164426 19232754 19288036 
2481.639 19328702 19353090 19360400 19351014 19326588 19290390 19245362 
2485.014 19194796 19141710 19087522 19033098 18978854 18924308 18868898 
2488.390 18812254 18753470 18691860 18627180 18558704 18485710 18407234 
2491.765 18321720 18227272 18122516 18006110 17878068 17739950 17593768 
2495.140 17442148 17287446 17130764 16971692 16809168 16641090 16465679 
2498.515 16282357 16091343 15893847 15691975 15487726 15282783 15078587 
2501.891 14876100 14675763 14478294 14284133 14093515 13907087 13725492 
2505.266 13549614 13380641 13220204 13069320 12929103 12799785 12680396 
2508.641 12569501 12465418 12366544 12271644 12180820 12094070 12012379 
2512.016 11936595 11867328 11804881 11749490 11700777 11658196 11621201 
2515.392 11588940 11560662 11536775 11517721 11504894 11499858 11503499 
2518.767 11516258 11536605 11562431 11590607 11618479 11644140 11667012 
2522.142 11688183 11709389 11732128 11758103 11788198 11822109 11859802 
2525.517 11900665 11943610 11987547 12030705 12071108 12106642 12135739 
2528.893 12157002 12170120 12175232 12172677 12162760 12145826 12122077 
2532.268 12091992 12056765 12017965 11977295 11936151 11895149 11854524 
2535.643 11814244 11774307 11735328 11698939 11666706 11639614 11618037 
2539.018 11600272 11584073 11566957 11546881 11523539 11498157 11472675 
2542.394 11449677 11430763 11416680 11406713 11400318 11396509 11394399 
2545.769 11393923 11394944 11396577 11398277 11398821 11397189 11393175 
2549.144 11386712 11378379 11368957 11358890 11348040 11335864 11322294 
2552.519 11306922 11290463 11274207 11259450 11247786 11239999 11236055 
2555.895 11235273 11236395 11237619 11237551 11234763 11228235 11217388 
2559.270 11202666 11184511 11163738 11141504 11118457 11094764 11070529 
2562.645 11045309 11018766 10991273 10963339 10935815 10909788 10885937 
2566.020 10864567 10845542 10828455 10812828 10798800 10786572 10776789 
2569.396 10769961 10766497 10766327 10769621 10776245 10786028 10799071 
2572.771 10815139 10833856 10854341 10875778 10896979 10916890 10935203 
2576.146 10951684 10966601 10980840 10995112 11010371 11028044 11048980 
2579.521 11074098 11103840 11137867 11174821 11213206 11251118 11287265 
2582.896 11321444 11354025 11386372 11420353 11456992 11497204 11540961 
2586.272 11587681 11636415 11686992 11738766 11791909 11846318 11901925 
2589.647 11958358 12015376 12072471 12129436 12186579 12243696 12300787 
2593.022 12357714 12413966 12468930 12522401 12574139 12624109 12672448 
2596.397 12719188 12764091 12807019 12847903 12886846 12924735 12962899 
2599.773 13002398 13044803 13090935 13140794 13193732 13249001 13304994 
2603.148 13360651 13415223 13468537 13520798 13573407 13627424 13684628 
2606.523 13746456 13813732 13886800 13965663 14049296 14136712 14226850 
2609.898 14318582 14410812 14502891 14593688 14682481 14768481 14851379 
2613.274 14931137 15008577 15084625 15160344 15236349 15312986 15389671 
2616.649 15465408 15538823 15608574 15673872 15734266 15789652 15840854 
2620.024 15888967 15935265 15981155 16028320 16078036 16130956 16187424 
2623.399 16246790 16307849 16369399 16429890 16488256 16543945 16596852 
2626.775 16647391 16695904 16743148 16789640 16835550 16881190 16926698 
2630.150 16972174 17017452 17062868 17108534 17154582 17201324 17248830 
2633.525 17297202 17346030 17395070 17443562 17491164 17537564 17582690 
2636.900 17627134 17670924 17714892 17758864 17803428 17848274 17893536 
2640.276 17939494 17986358 18034570 18084274 18135574 18188054 18240990 
2643.651 18293896 18346120 18397692 18448960 18499990 18552100 18605806 
2647.026 18661630 18719948 18780872 18844262 18909978 18977782 19047224 
2650.401 19117852 19189464 19261570 19334002 19406758 19479560 19552478 
2653.777 19625582 19698732 19772138 19845972 19920408 19995518 20071542 
2657.152 20148170 20225192 20302298 20379104 20455370 20530952 20605992 
2660.527 20680214 20753750 20826396 20898010 20968664 21038704 21108266 
2663.902 21177944 21248156 21318762 21389450 21459484 21528246 21594926 
2667.278 21659562 21722642 21784930 21847816 21912526 21979580 22049712 
2670.653 22122436 22197020 22272384 22347098 22420116 22490912 22559382 
2674.028 22626360 22692862 22760316 22829702 22901648 22975842 23051516 
2677.403 23127796 23203988 23279596 23355322 23431868 23510140 23591258 
2680.779 23675646 23763412 23854416 23948658 24046214 24147540 24252988 
2684.154 24362844 24477460 24596558 24719862 24847448 24978968 25114880 
2687.529 25255118 25399932 25549120 25702400 25859320 26019290 26182096 
2690.904 26347570 26515222 26685296 26857624 27031924 27208446 27387650 
2694.280 27570108 27756668 27948078 28144664 28346326 28552682 28762710 
2697.655 28975640 29190800 29407944 29626688 29847210 30069230 30292536 
2701.030 30517128 30742834 30969830 31198334 31428524 31659980 31892200 
2704.405 32123576 32352510 32577172 32795910 33007216 33210650 33406016 
2707.781 33593204 33772988 33945572 34111416 34270940 34424132 34570788 
2711.156 34710524 34843196 34968764 35087292 35199420 35305680 35406468 
2714.531 35501704 35590488 35671236 35742068 35801108 35847276 35880492 
2717.906 35901508 35912452 35915580 35913420 35908492 35902768 35897588 
2721.281 35894344 35893988 35897656 35906436 35921516 35944340 35975832 
2724.657 36017520 36070080 36133740 36209004 36295448 36392216 36498804 
2728.032 36614432 36738096 36869552 37008008 37152612 37302712 37456948 
2731.407 37614060 37773064 37932892 38093068 38252940 38412148 38570068 
2734.782 38725952 38878736 39027296 39170580 39307924 39438780 39563180 
2738.158 39681552 39794360 39902264 40006304 40107280 40206280 40304468 
2741.533 40403152 40503344 40606616 40713884 40826416 40945356 41071316 
2744.908 41204888 41346340 41495456 41651624 41813908 41980884 42150704 
2748.283 42321096 42489220 42652104 42806608 42950044 43080392 43196616 
2751.659 43298484 43386640 43461784 43525288 43577816 43620128 43652292 
2755.034 43674460 43686148 43686700 43674864 43649620 43609360 43552836 
2758.409 43479144 43387740 43278680 43152368 43009160 42849720 42674548 
2761.784 42484100 42279096 42060932 41831380 41592696 41347724 41099648 
2765.160 40851464 40606256 40367112 40136536 39916936 39710484 39518464 
2768.535 39341988 39181640 39037520 38909832 38798768 38704544 38627288 
2771.910 38567176 38523616 38495520 38481036 38478064 38483716 38495628 
2775.285 38511124 38528212 38545156 38560440 38572352 38579632 38580140 
2778.661 38572712 38555440 38527092 38486936 38434876 38371532 38298100 
2782.036 38216684 38129600 38039388 37948588 37859680 37774548 37694420 
2785.411 37620164 37551480 37487328 37425816 37364748 37301236 37233036 
2788.786 37157920 37074908 36983800 36884956 36779568 36669196 36555284 
2792.162 36439776 36324228 36210516 36100216 35995272 35896684 35806112 
2795.537 35724188 35652140 35590456 35540432 35502640 35477580 35465644 
2798.912 35466864 35480348 35505660 35542048 35588800 35645844 35712788 
2802.287 35789668 35876064 35971260 36074220 36183832 36299012 36418840 
2805.663 36542704 36669844 36799400 36930372 37061164 37190004 37314988 
2809.038 37434052 37545376 37647120 37737828 37815864 37879924 37928952 
2812.413 37962940 37981928 37986772 37978488 37958492 37927976 37888164 
2815.788 37840804 37788028 37732912 37679320 37631476 37594044 37570952 
2819.164 37565644 37580528 37617128 37676352 37758608 37863944 37992088 
2822.539 38142408 38313372 38502900 38708020 38925340 39151216 39382036 
2825.914 39614136 39844552 40070724 40290144 40501124 40702532 40893692 
2829.289 41074776 41246900 41411504 41570488 41726648 41881952 42039028 
2832.665 42199920 42366792 42541876 42727704 42927184 43144024 43382176 
2836.040 43645700 43938784 44265708 44630004 45035988 45488524 45993840 
2839.415 46560188 47197780 47919188 48739236 49673792 50740800 51959340 
2842.790 53349156 54931512 56728104 58758000 61035964 63565872 66336444 
2846.166 69310896 72423992 75583104 78658416 81502544 83961208 85880168 
2849.541 87138424 87656712 87409424 86426960 84791264 82625064 80063184 
2852.916 77250096 74322184 71389440 68545304 65859312 63375780 61122764 
2856.291 59111612 57339564 55793748 54453560 53294572 52289260 51411908 
2859.667 50639220 49950532 49329816 48763964 48242276 47757088 47302404 
2863.042 46873776 46469240 46088148 45732164 45404460 45109432 44852552 
2866.417 44639148 44474008 44361004 44302144 44297520 44345040 44441048 
2869.792 44578964 44750316 44944920 45149944 45352044 45538124 45696012 
2873.167 45816952 45896380 45934684 45936156 45908828 45863016 45808520 
2876.543 45754656 45709412 45678420 45665792 45674368 45705656 45760620 
2879.918 45839524 45942124 46067808 46216016 46385760 46575420 46783204 
2883.293 47006188 47240520 47481892 47725908 47968216 48205436 48435672 
2886.668 48658508 48874820 49086752 49297896 49512300 49735096 49971756 
2890.044 50228076 50509972 50823332 51174944 51572320 52024776 52543396 
2893.419 53141724 53834520 54635768 55558032 56608504 57786376 59079500 
2896.794 60463840 61900404 63334792 64705632 65944804 66985792 67777264 
2900.169 68285968 68504408 68451072 68169312 67720136 67168496 66583372 
2903.545 66025616 65543236 65175684 64951488 64890652 65009252 65319852 
2906.920 65832168 66556260 67501280 68677312 70095408 71767016 73701792 
2910.295 75905160 78373720 81090408 84018496 87104768 90271128 93419448 
2913.670 96444648 99229784 101663616 103656208 105139040 106079648 106481520 
2917.046 106383520 105849248 104955384 103787136 102419000 100912440 
2919.939 99314024 97651320 95937872 94177696 92369288 90510872 88604784 
2923.314 86659136 84689856 82719288 80772032 78874592 77050632 75317256 
2926.689 73686288 72162616 70745528 69429856 68207648 67069152 66003008 
2930.064 64998204 64043864 63129708 62247448 61390028 60551820 59728304 
2933.440 58915304 58108668 57305272 56502600 55699868 54898424 54100828 
2936.815 53310832 52532180 51767612 51019264 50288560 49577552 48889244 
2940.190 48227948 47599780 47011212 46468136 45975420 45535476 45148028 
2943.565 44810228 44516480 44259072 44027628 43811696 43600856 43386388 
2946.941 43163824 42933328 42700872 42476432 42273576 42106452 41986508 
2950.316 41922092 41916288 41966980 42066916 42205764 42370700 42546992 
2953.691 42720720 42878684 43009012 43102784 43153872 43158700 43116360 
2957.066 43028256 42897228 42727372 42523856 42292644 42039760 41771592 
2960.442 41494364 41213448 40933920 40659924 40394964 40141840 39902552 
2963.817 39678752 39471108 39279488 39103392 38942048 38794384 38659920 
2967.192 38538604 38430752 38336824 38257896 38194648 38148124 38119548 
2970.567 38109816 38120416 38152756 38207164 38283768 38381088 38496172 
2973.943 38623808 38757288 38887472 39003772 39094872 39150020 39159808 
2977.318 39118548 39024544 38880872 38694980 38477344 38240456 37996500 
2980.693 37756512 37529916 37323080 37140268 36982572 36849716 36738096 
2984.068 36642588 36556904 36473328 36384360 36283812 36166544 36030156 
2987.444 35874300 35700984 35513280 35315168 35110100 34900388 34686832 
2990.819 34468396 34243080 34008776 33764248 33510588 33251032 32990952 
2994.194 32735954 32491534 32260780 32043952 31838748 31640806 31445622 
2997.569 31249248 31049472 30846090 30639922 30433212 30228020 30026088 
3000.945 29828826 29637082 29451344 29271888 29098494 28930942 28768694 
3004.320 28611426 28459026 28311808 28170826 28036570 27910128 27791778 
3007.695 27681158 27577734 27480300 27387898 27299610 27214760 27132892 
3011.070 27053612 26976496 26901158 26827418 26755452 26685366 26617442 
3014.446 26552168 26489792 26430314 26374082 26321096 26271778 26226652 
3017.821 26185862 26149544 26117382 26088634 26062702 26039130 26017672 
3021.196 25998500 25981896 25968072 25956780 25947880 25940844 25935640 
3024.571 25932826 25933670 25939826 25953402 25975844 26008172 26050284 
3027.947 26101054 26157990 26218488 26278676 26334616 26382884 26420066 
3031.322 26443906 26453626 26449188 26432074 26404046 26367710 26325602 
3034.697 26280156 26233940 26189030 26147398 26110240 26078078 26050320 
3038.072 26025798 26002896 25980382 25957518 25934478 25912356 25892062 
3041.448 25874828 25861502 25852428 25847506 25846486 25849158 25855348 
3044.823 25864278 25875568 25888124 25901242 25914854 25929342 25946016 
3048.198 25966066 25991006 26021154 26055984 26093982 26133498 26172876 
3051.573 26211238 26248194 26283992 26318596 26352042 26384082 26414608 
3054.948 26443906 26472818 26502858 26535402 26571366 26611136 26653976 
3058.324 26699074 26745902 26794324 26845146 26899500 26958304 27021698 
3061.699 27089228 27159768 27231976 27305254 27379710 27456122 27535404 
3065.074 27617808 27703054 27789694 27875964 27959916 28040246 28116382 
3068.449 28188396 28256852 28322382 28385374 28445900 28504064 28559368 
3071.825 28612098 28662108 28709928 28755948 28801478 28847578 28895882 
3075.200 28947552 29003446 29063596 29126944 29191720 29256186 29318286 
3078.575 29376852 29431772 29483472 29533050 29581710 29630520 29680432 
3081.950 29731986 29785354 29840644 29897754 29956006 30014760 30073454 
3085.326 30131340 30188664 30245818 30303762 30363596 30426068 30491608 
3088.701 30559962 30630748 30703678 30778328 30854628 30932434 31011606 
3092.076 31091612 31171882 31251952 31331718 31411678 31492788 31576518 
3095.451 31663794 31755290 31850908 31950184 32051980 32155118 32258424 
3098.827 32360650 32460508 32557246 32650110 32739456 32826216 32912132 
3102.202 32999244 33089236 33183110 33281080 33382184 33485428 33589408 
3105.577 33693488 33797412 33900788 34003616 34105428 34205688 34303780 
3108.952 34399960 34494584 34588584 34683356 34779760 34878596 34980040 
3112.328 35083948 35190508 35299676 35411392 35525112 35640048 35754336 
3115.703 35866096 35973924 36077280 36176880 36274592 36372436 36472064 
3119.078 36574168 36677956 36781984 36884520 36984196 37080792 37174556 
3122.453 37266752 37358320 37450196 37542776 37636388 37730960 37826888 
3125.829 37924284 38023480 38124392 38226920 38330960 38436288 38542696 
3129.204 38650432 38758736 38866708 38973544 39078048 39179716 39279160 
3132.579 39377936 39477968 39581836 39691060 39805944 39926056 40049972 
3135.954 40175928 40302284 40428132 40552304 40673824 40791624 40904540 
3139.330 41012096 41114440 41212832 41309716 41407680 41509056 41614976 
3142.705 41725264 41839188 41955300 42072428 42190136 42308168 42426520 
3146.080 42545272 42663912 42782072 42899496 43016620 43134000 43252908 
3149.455 43373828 43496976 43621408 43745768 43868620 43989272 44107532 
3152.831 44224288 44340780 44457636 44575076 44692508 44808536 44921952 
3156.206 45031872 45138212 45241568 45343660 45445736 45549644 45656556 
3159.581 45767468 45882424 46001572 46123664 46247892 46372676 46496748 
3162.956 46619020 46738888 46856352 46971524 47084880 47196636 47307172 
3166.332 47416956 47525992 47634276 47741888 47848376 47953116 48055588 
3169.707 48155640 48253384 48349888 48446564 48544928 48646092 48750100 
3173.082 48856280 48963044 49068312 49170120 49267572 49360032 49447840 
3176.457 49532092 49614060 49695120 49777044 49860768 49946964 50035556 
3179.833 50125392 50214352 50300728 50382616 50459388 50531932 50602248 
3183.208 50672876 50746384 50824224 50906512 50992360 51079932 51167412 
3186.583 51253308 51336796 51417312 51494940 51569708 51642284 51713308 
3189.958 51784040 51855460 51928680 52003896 52080916 52158544 52235856 
3193.333 52311684 52385696 52458072 52529376 52599832 52669552 52738012 
3196.709 52804644 52869236 52932148 52994248 53056880 53121056 53186700 
3200.084 53253144 53319260 53383588 53445600 53505452 53563548 53621160 
3203.459 53679236 53737804 53797092 53856764 53916444 53975796 54034368 
3206.834 54091780 54147140 54199728 54249020 54295572 54340216 54384684 
3210.210 54430612 54478692 54528648 54578992 54628364 54675336 54719756 
3213.585 54762716 54806168 54852068 54901808 54955204 55011424 55068780 
3216.960 55126072 55182052 55236572 55289516 55340848 55390836 55439808 
3220.335 55488484 55538604 55592188 55650940 55715916 55786512 55860700 
3223.711 55935808 56008780 56077880 56142504 56203820 56263296 56322632 
3227.086 56382800 56443848 56505128 56565816 56625264 56683516 56740640 
3230.461 56797016 56853292 56909832 56967364 57026756 57088916 57154256 
3233.836 57222784 57293400 57364368 57433572 57499456 57561720 57620816 
3237.212 57678556 57736532 57796368 57858596 57923224 57989940 58058332 
3240.587 58128596 58200308 58273548 58347024 58419456 58489168 58555100 
3243.962 58617020 58675992 58734024 58793052 58854476 58918944 58986084 
3247.337 59055392 59126156 59198340 59271936 59347028 59423040 59498692 
3250.713 59572340 59642656 59708688 59770776 59829980 59887216 59943392 
3254.088 59998328 60051168 60101168 60148012 60192352 60235360 60278676 
3257.463 60323104 60368792 60414788 60459304 60501200 60539936 60575896 
3260.838 60610368 60644468 60679064 60714120 60748724 60781152 60810500 
3264.214 60835772 60856580 60873008 60885972 60895576 60903204 60909760 
3267.589 60916392 60923904 60933168 60943804 60955548 60966836 60976480 
3270.964 60983684 60988032 60989784 60989940 60989672 60989596 60990472 
3274.339 60992720 60996192 61001416 61008240 61016556 61026620 61038024 
3277.715 61050760 61064796 61080240 61097364 61116548 61137792 61160376 
3281.090 61183872 61207372 61230604 61253800 61278104 61305156 61336868 
3284.465 61374380 61418308 61467968 61522516 61580056 61639012 61698320 
3287.840 61757060 61815392 61873580 61932880 61994600 62060224 62131060 
3291.216 62207984 62291312 62381040 62476416 62577128 62682264 62791756 
3294.591 62905104 63022048 63142008 63264644 63389852 63517660 63649148 
3297.966 63785904 63929184 64080036 64238632 64404076 64575016 64749712 
3301.341 64927324 65107548 65291280 65479436 65672800 65871924 66076188 
3304.717 66284372 66495240 66707408 66920036 67133192 67347136 67563248 
3308.092 67783072 68008736 68242544 68486064 68739920 69003336 69274248 
3311.467 69549728 69826696 70103816 70380520 70657952 70938448 71223888 
3314.842 71515016 71811544 72111520 72412480 72712768 73011088 73307344 
3318.218 73602272 73896464 74190248 74483544 74776040 75067472 75357888 
3321.593 75647392 75935984 76223736 76509904 76793768 77074656 77352392 
3324.968 77627184 77899248 78168712 78434648 78695704 78950000 79195984 
3328.343 79433032 79660976 79880632 80092192 80295728 80489904 80673032 
3331.719 80843624 81000200 81142080 81268760 81379320 81472408 81546672 
3335.094 81600608 81634112 81648592 81646864 81632400 81607920 81574856 
3338.469 81532080 81477400 81407328 81318784 81209664 81079144 80926536 
3341.844 80751920 80554832 80334920 80091952 79826512 79539424 79232248 
3345.219 78906016 78561168 78197512 77814856 77413648 76995520 76563448 
3348.595 76120912 75671016 75216656 74757976 74294592 73825248 73348728 
3351.970 72864816 72374240 71878472 71379752 70879928 70381344 69885968 
3355.345 69396144 68913464 68439480 67974752 67518928 67071004 66630572 
3358.720 66197500 65772756 65358288 64956108 64567060 64191536 63827732 
3362.096 63473248 63126184 62785244 62450436 62123336 61805612 61498544 
3365.471 61202564 60917116 60641496 60374844 60116956 59868200 59628932 
3368.846 59399068 59177452 58961756 58749160 58536368 58320496 58099696 
3372.221 57872416 57638296 57397152 57149304 56895024 56634968 56369404 
3375.597 56098464 55821740 55538264 55246880 54946816 54637304 54318628 
3378.972 53991780 53657604 53316748 52969316 52614156 52249796 51874724 
3382.347 51487816 51088428 50677236 50255568 49825276 49388360 48947284 
3385.722 48503952 48060216 47617600 47177136 46739256 46304328 45872372 
3389.098 45443420 45017612 44595048 44175648 43759580 43346732 42937568 
3392.473 42532812 42133904 41742040 41358548 40983444 40615532 40252664 
3395.848 39891764 39530732 39168368 38805360 38443564 38085508 37732656 
3399.223 37385368 37042036 36700452 36358096 36013700 35667492 35320920 
3402.599 34976016 34634512 34297076 33963448 33632764 33304296 32977972 
3405.974 32654610 32335378 32021516 31713332 31410180 31111118 30814714 
3409.349 30520078 30227240 29936870 29649746 29366818 29088114 28813482 
3412.724 28542384 28274426 28009850 27749498 27494702 27246898 27006854 
3416.100 26774906 26549948 26330356 26113828 25898288 25682046 25464718 
3419.475 25247146 25031438 24820294 24616616 24422180 24237362 24060994 
3422.850 23890788 23723938 23557884 23391268 23223560 23055080 22886488 
3426.225 22718278 22550308 22382508 22214456 22046992 21880886 21717522 
3429.601 21558398 21404172 21254906 21109482 20966542 20824830 20683862 
3432.976 20543806 20405116 20268760 20135188 20004296 19876044 19749946 
3436.351 19625650 19503228 19382712 19264202 19147008 19030606 18913542 
3439.726 18794712 18673492 18549506 18423792 18297422 18171920 18048524 
3443.102 17928204 17810748 17695426 17580552 17464534 17345754 17223698 
3446.477 17098814 16972726 16848088 16727170 16611896 16502365 16397201 
3449.852 16294055 16190417 16084397 15975757 15865872 15756840 15651133 
3453.227 15549915 15453356 15360251 15268059 15174994 15079685 14981756 
3456.603 14882101 14781474 14681110 14580975 14480897 14380364 14278517 
3459.978 14175497 14071235 13966586 13861929 13757640 13654093 13551562 
3463.353 13450218 13350742 13253510 13159168 13067783 12979354 12893297 
3466.728 12808930 12725466 12642394 12559030 12475239 12390544 12304672 
3470.104 12217386 12128789 12039154 11948924 11858406 11768349 11678993 
3473.479 11590879 11504485 11420353 11339333 11262238 11189610 11121754 
3476.854 11058123 10998171 10940776 10884713 10829100 10773222 10716332 
3480.229 10657786 10597007 10533656 10467973 10400399 10332258 10264977 
3483.604 10200623 10140145 10084729 10034542 9989242 9948151 9910250 9874895 
3487.462 9841509 9809210 9777998 9747838 9719069 9692471 9668789 9648800 
3491.319 9632538 9619496 9608452 9598358 9587992 9577288 9566924 9558455 
3495.177 9554052 9555102 9562554 9576340 9596088 9620817 9650256 9684645 
3499.034 9724254 9769322 9819886 9875031 9933370 9994091 10056379 10120711 
3502.892 10188344 10261347 10341522 10429891 10526392 10629976 10739291 
3506.267 10852065 10966839 11082051 11197294 11312601 11428926 11547970 
3509.642 11671675 11802327 11941533 12089471 12244889 12405443 12567932 
3513.017 12728946 12885856 13037223 13182427 13322041 13456814 13587492 
3516.393 13714686 13839045 13960838 14080133 14196448 14308445 14413621 
3519.768 14508441 14588205 14649409 14688787 14705033 14698727 14671651 
3523.143 14626379 14565556 14490935 14403175 14302213 14187068 14056792 
3526.518 13910269 13747311 13568518 13375139 13169755 12954877 12733382 
3529.894 12507635 12279722 12050668 11821462 11592309 11363311 11133958 
3533.269 10903774 10671946 10437596 10200148 9960084 9718324 9477307 9239504 
3537.126 9007548 8783966 8569657 8365519 8171066 7985644 7808464 7638304 
3540.984 7473705 7313447 7156011 6999742 6843363 6686063 6526903 6366456 
3544.841 6205094 6044430 5886882 5735099 5592129 5460681 5341684 5234456 
3548.698 5136376 5042741 4948423 4848999 4741391 4624969 4502216 4377490 
3552.556 4256146 4142797 4040748 3950727 3871722 3801089 3735647 3672488 
3556.413 3609003 3543189 3473945 3400905 3324472 3245682 3166105 3087444 
3560.271 3011566 2939738 2873258 2812325 2756702 2705054 2655345 2604842 
3564.128 2549745 2485858 2409619 2319302 2215549 2102798 1988578 1881810 
3567.986 1789740 1717049 1663362 1625013 1595913 1569542 1540679 1505965 
3571.843 1463841 1415072 1361189 1304223 1245835 1187489 1129981 1073975 
3575.700 1019537 967397 917190 868515 820543 772112 722392 670952 617925 
3580.040 564838 513251 465185 422233 385652 356038 332494 313793 297413 
3584.380 280305 258621 227922 184761 127220 55834 -25214 -109129 -187465 
3588.719 -253467 -302905 -336114 -356243 -368923 -380112 -394281 -414077 
3592.577 -439830 -469586 -500433 -529821 -555997 -578830 -598915 -617576 
3596.434 -635509 -652614 -667965 -680272 -688013 -690295 -686359 -675772 
3600.292 -658238 -633789 -602786 -566222 -526247 -485903 -448899 -419340 
3604.149 -401034 -397492 -411197 -443868 -496627 -568870 -659132 -763068 
3608.006 -874883 -987199 -1092412 -1184515 -1261104 -1323046 -1373782 
3611.382 -1418204 -1460805 -1504162 -1548076 -1590632 -1628496 -1658798 
3614.757 -1680318 -1693455 -1701046 -1707020 -1715535 -1731112 -1756061 
3618.132 -1791073 -1834166 -1880586 -1924594 -1960417 -1984858 -1997325 
3621.507 -2000293 -1997886 -1994225 -1992510 -1993466 -1995874 -1997061 
3624.883 -1994291 -1986705 -1976810 -1970048 -1974699 -1999073 -2048642 
3628.258 -2122210 -2210007 -2296270 -2364227 -2403902 -2414084 -2401002 
3631.633 -2374542 -2344817 -2320692 -2307015 -2305499 -2314035 -2328800 
3635.008 -2345047 -2359053 -2368972 -2375102 -2378726 -2381033 -2383505 
3638.384 -2386273 -2388909 -2391051 -2392501 -2393588 -2394873 -2397048 
3641.759 -2399783 -2402024 -2401991 -2397806 -2387986 -2372169 -2351506 
3645.134 -2328767 -2307377 -2291062 -2283811 -2288492 -2307147 -2340335 
3648.509 -2386833 -2443079 -2503337 -2560260 -2605780 -2633445 -2640196 
3651.885 -2627089 -2598731 -2561611 -2523531 -2491675 -2470854 -2463869 
3655.260 -2470030 -2485745 -2504325 -2519315 -2525804 -2521785 -2508641 
3658.635 -2490489 -2472007 -2457938 -2451777 -2455204 -2467065 -2483999 
3662.010 -2501558 -2514834 -2520171 -2515559 -2501130 -2477904 -2447428 
3665.385 -2410986 -2369137 -2322736 -2272473 -2220391 -2167347 -2113044 
3668.761 -2051643 -1971664 -1856040 -1685170 -1445615 -1132633 -751756 
3672.136 -314493 163547 664182 1165628 1633694 2020834 2273601 2343387 
3675.993 2210454 1891294 1430795 881364 290948 -299858 -860367 -1364236 
3679.851 -1790776 -2129893 -2381956 -2558580 -2676257 -2753439 -2804469 
3683.226 -2837388 -2855954 -2862175 -2858061 -2848449 -2839956 -2840022 
3686.601 -2854308 -2885644 -2932018 -2987305 -3043342 -3092266 -3129736 
3689.977 -3154670 -3168650 -3174275 -3173847 -3169275 -3162072 -3153815 
3693.352 -3145986 -3140295 -3137105 -3136480 -3137631 -3138914 -3139309 
3696.727 -3138092 -3135986 -3134539 -3135624 -3141151 -3152466 -3169571 
3700.102 -3191280 -3215159 -3238247 -3257321 -3270048 -3275343 -3273698 
3703.478 -3266760 -3256795 -3245646 -3234530 -3223743 -3212856 -3200819 
3706.853 -3187103 -3171117 -3152993 -3134078 -3116018 -3101083 -3091805 
3710.228 -3090325 -3098747 -3117729 -3145493 -3179143 -3212922 -3241470 
3713.603 -3259722 -3265543 -3259327 -3244035 -3224368 -3204930 -3189767 
3716.979 -3180623 -3177038 -3176841 -3176775 -3174670 -3169670 -3162795 
3720.354 -3156743 -3153585 -3154835 -3160230 -3168190 -3176248 -3182334 
3723.729 -3185426 -3185623 -3183682 -3180228 -3174867 -3166611 -3153190 
3727.104 -3132927 -3105129 -3071572 -3035281 -3000501 -2971872 -2953147 
3730.479 -2945841 -2949230 -2959333 -2970950 -2978552 -2978848 -2972760 
3733.855 -2963842 -2958149 -2960452 -2973320 -2995203 -3021132 -3044790 
3737.230 -3061340 -3068677 -3067130 -3057885 -3041631 -3018138 -2986055 
3740.605 -2945084 -2897295 -2848087 -2807103 -2786988 -2798675 -2848153 
3743.980 -2929254 -3023798 -3105491 -3153914 -3162236 -3136940 -3091706 
3747.356 -3040907 -2997276 -2968778 -2957984 -2963908 -2982369 -3008694 
3750.731 -3039163 -3071671 -3103747 -3131611 -3150263 -3154868 -3143355 
3754.106 -3116841 -3080356 -3040907 -3005502 -2979737 -2966639 -2966574 
3757.481 -2977170 -2995367 -3018039 -3043079 -3068314 -3091772 -3110886 
3760.857 -3122828 -3125953 -3120690 -3109768 -3097464 -3088778 -3087035 
3764.232 -3093088 -3104603 -3117663 -3127334 -3131052 -3129506 -3125953 
3767.607 -3125229 -3131743 -3147236 -3170459 -3197135 -3220980 -3236964 
3770.982 -3241700 -3235517 -3220717 -3201444 -3181774 -3164604 -3151546 
3774.358 -3142203 -3135032 -3127499 -3117400 -3104208 -3088844 -3074270 
3777.733 -3064202 -3061899 -3068578 -3082824 -3099799 -3113978 -3120656 
3781.108 -3117893 -3107136 -3092331 -3079007 -3071308 -3071144 -3077987 
3784.483 -3089305 -3100918 -3109899 -3114933 -3116347 -3115525 -3113814 
3787.859 -3112169 -3110360 -3108057 -3104603 -3100030 -3094338 -3087956 
3791.234 -3080817 -3072592 -3062919 -3052292 -3041532 -3032912 -3029194 
3794.609 -3032023 -3041039 -3053673 -3064827 -3069137 -3062985 -3045711 
3797.984 -3021494 -2996618 -2979440 -2977071 -2994150 -3030280 -3078876 
3801.360 -3128716 -3166282 -3181051 -3169736 -3135624 -3087660 -3036202 
3804.735 -2992702 -2966179 -2961835 -2980164 -3014354 -3053673 -3085028 
3808.110 -3099734 -3094634 -3073250 -3042158 -3008694 -2978355 -2953508 
3811.485 -2933730 -2916221 -2899073 -2881727 -2866849 -2859213 -2864183 
3814.861 -2884722 -2918821 -2958248 -2991353 -3007247 -3000764 -2973912 
3818.236 -2934947 -2895551 -2867672 -2860859 -2879555 -2921125 -2975327 
3821.611 -3027285 -3064531 -3079731 -3073513 -3051469 -3022054 -2992965 
3824.986 -2969568 -2954496 -2947025 -2944063 -2940772 -2933664 -2920499 
3828.362 -2902134 -2880740 -2860134 -2843873 -2834755 -2833636 -2839594 
3831.737 -2849799 -2860595 -2868001 -2869120 -2862603 -2849074 -2831068 
3835.112 -2812403 -2797490 -2790444 -2793770 -2807761 -2829718 -2854966 
3838.487 -2878238 -2895452 -2904800 -2907235 -2904800 -2900192 -2895518 
3841.863 -2891898 -2888935 -2885907 -2881925 -2876592 -2869845 -2862504 
3845.238 -2854769 -2847461 -2840581 -2833833 -2826427 -2817637 -2806016 
3848.613 -2790675 -2770987 -2747644 -2722620 -2701217 -2690515 -2699044 
3851.988 -2735429 -2802922 -2897065 -3001883 -3096246 -3161710 -3189570 
3855.364 -3182728 -3150822 -3105853 -3057358 -3012742 -2975722 -2947289 
3858.739 -2926785 -2912567 -2902957 -2896275 -2892062 -2889791 -2889956 
3862.114 -2893708 -2902463 -2917866 -2940410 -2968416 -2997572 -3021165 
3865.489 -3033142 -3028996 -3009254 -2978552 -2945906 -2920466 -2910790 
3868.865 -2920335 -2946927 -2981283 -3011425 -3028437 -3029062 -3017184 
3872.240 -3000567 -2987569 -2984113 -2991155 -3005173 -3019191 -3026331 
3875.615 -3022317 -3006884 -2983455 -2957820 -2935836 -2922046 -2919380 
3878.990 -2927806 -2944722 -2965817 -2985101 -2997441 -2999020 -2988687 
3882.365 -2968745 -2943899 -2920236 -2904306 -2901015 -2911712 -2933104 
3885.741 -2956997 -2974241 -2976742 -2962065 -2932446 -2895156 -2858620 
3889.116 -2830805 -2817538 -2820534 -2837224 -2861319 -2885019 -2901311 
3892.491 -2906051 -2898481 -2880542 -2855328 -2825966 -2794757 -2763678 
3895.866 -2733618 -2705893 -2681657 -2662623 -2650274 -2645597 -2648726 
3899.242 -2658309 -2672502 -2688770 -2704971 -2720348 -2734968 -2749784 
3902.617 -2766049 -2783959 -2802296 -2818987 -2831101 -2836401 -2834163 
3905.992 -2825110 -2811481 -2795679 -2779712 -2765061 -2751727 -2739512 
3909.367 -2727625 -2716035 -2705300 -2695751 -2688375 -2683073 -2679418 
3912.743 -2676355 -2673326 -2670296 -2668024 -2667991 -2671580 -2679451 
3916.118 -2690811 -2703950 -2716594 -2726901 -2734210 -2739149 -2742903 
3919.493 -2746557 -2750080 -2752418 -2752221 -2748303 -2740993 -2731774 
3922.868 -2723740 -2719591 -2720974 -2727526 -2736877 -2745504 -2750048 
3926.244 -2748105 -2739874 -2726736 -2711359 -2696014 -2682744 -2672206 
3929.619 -2664797 -2660252 -2658737 -2660516 -2665356 -2672832 -2681921 
3932.994 -2690713 -2697661 -2701316 -2701283 -2698089 -2692787 -2686201 
3936.369 -2678990 -2670922 -2661866 -2651426 -2639834 -2627945 -2617406 
3939.745 -2609666 -2606438 -2608184 -2614870 -2625113 -2637067 -2648166 
3943.120 -2656662 -2661042 -2660680 -2656004 -2648067 -2638352 -2628307 
3946.495 -2619514 -2612828 -2608645 -2606998 -2607723 -2610391 -2614870 
3949.870 -2620963 -2628604 -2637331 -2646486 -2654917 -2661240 -2664270 
3953.246 -2663315 -2657881 -2648726 -2636442 -2622445 -2607525 -2593066 
3956.621 -2579529 -2567638 -2557691 -2549917 -2544383 -2540628 -2538388 
3959.996 -2537432 -2537202 -2538025 -2539903 -2542934 -2547150 -2552157 
3963.371 -2557295 -2561611 -2564707 -2566024 -2565991 -2565003 -2563719 
3966.747 -2562434 -2561051 -2559140 -2555912 -2550740 -2543032 -2533084 
3970.122 -2521192 -2508279 -2495167 -2482549 -2471183 -2461497 -2453655 
3973.497 -2447659 -2443112 -2439455 -2435699 -2431185 -2425353 -2418202 
3976.872 -2410163 -2402254 -2395335 -2390095 -2386701 -2384790 -2383768 
3980.248 -2382681 -2381429 -2380143 -2379221 -2379418 -2380869 -2383307 
3983.623 -2386240 -2388645 -2389667 -2389074 -2387261 -2384823 -2383043 
3986.998 -2383043 -2384955 -2388645 -2393324 -2398004 -2401562 -2403210 
3990.373 -2402913 -2400739 -2397345 -2393193 -2388942 -2385317 -2382483 
3993.749 -2381066 -2381659 -2384263 -2388645 -2394577 -2400936 -2406769 
3997.124 -2411349 -2413919 -2414809 -2414281 -2413326 -2412601 -2412733 
4000.499 -2413886 
##END=
