
##TITLE=Z326a_2_c
##JCAMP-DX=5.01  $$ Nicolet v. 1
##DATATYPE=INFRARED SPECTRUM
##ORIGIN=UniL
##OWNER=Nicolet
##LONGDATE=2011/09/15
##TIME=15:43:50
##SPECTROMETER/DATA SYSTEM=Nicolet iS5
##DATA PROCESSING=
Ratio against background
%Transmittance->Absorbance
Truncated
ElementMultiply or ElementDivide
##COMMENTS=
Number of sample scans: 32
Collection length: 51.16 sec
Sample gain: 2.0
Background collected on: Jeu Sep 15 15:37:39 2011 (GMT+02:00);
Number of background scans: 32
Background gain: 2.0
Sample spacing:  1.000
Number of scan points: 12415
Resolution points: 8192
Number of FFT points: 65536
Apodization: N-B fort;
Phase correction: Mertz;
Laser frequency: 15798.0 cm-1
Number of rejected sample scans: 0
Number of rejected background scans: 0
Bench serial number: ASB1000141;
##RESOLUTION=4.000
##XUNITS=1/CM
##YUNITS=ABSORBANCE
##FIRSTX=649.893372
##LASTX=4000.122314
##FIRSTY=0.125814
##MAXX=4000.122314
##MINX=649.893372
##MAXY=0.300864
##MINY=-0.002530
##XFACTOR=1.000000
##YFACTOR=1.000000E-009
##NPOINTS=6950
##DELTAX=0.482117
##ZPD=6100
##XYDATA=(X++(Y..Y))
649.893 125814136 125126632 124534600 124090936 123808344 123664552 
652.786 123618520 123637992 123716008 123872120 124139000 124541976 
655.679 125085216 125749784 126505840 127332208 128229592 129218800 
658.571 130327600 131570328 132939952 134409392 135952704 137561040 
661.464 139255440 141074656 143055312 145201312 147475824 149801136 
664.357 152090672 154273680 156295296 158119904 159707328 160991184 
667.250 161885280 162319232 162294480 161892256 161233840 160407280 
670.142 159439856 158309248 156978224 155425328 153670224 151777616 
673.035 149835136 147934864 146138000 144461872 142892096 141401520 
675.928 139972192 138603360 137310016 136108480 135005856 133994368 
678.820 133056256 132172080 131332280 130535424 129784600 129077136 
681.713 128397392 127717528 127007560 126244680 125424352 124561392 
684.606 123684504 122822616 121994464 121204640 120446976 119712032 
687.498 118994400 118296016 117622728 116977984 116356624 115744944 
690.391 115123008 114475152 113793544 113082360 112353104 111620280 
693.284 110896160 110189352 109509240 108871136 108296472 107815048 
696.177 107455640 107237152 107165224 107229480 107410280 107684008 
699.069 108034000 108452456 108938752 109494824 110116680 110791720 
701.962 111500536 112220984 112934408 113632360 114313800 114982792 
704.855 115640840 116284032 116901424 117481824 118017088 118508344 
707.747 118965032 119402448 119835184 120274784 120730536 121213704 
710.640 121742840 122347760 123062992 123919672 124933696 126094536 
713.533 127362280 128669080 129937992 131093472 132076216 132856352 
716.425 133431896 133828936 134092760 134288944 134496816 134796064 
719.318 135266608 135968880 136926080 138114304 139452816 140814704 
722.211 142028432 142918880 143334928 143170752 142397184 141066032 
725.104 139308448 137300240 135237600 133303656 131624208 130267216 
727.996 129240232 128507944 128011704 127691344 127501536 127410264 
730.889 127396896 127446560 127541528 127662344 127792176 127920448 
733.782 128047112 128180800 128333136 128511416 128714176 128931344 
736.674 129149216 129357416 129553152 129741712 129932984 130135608 
739.567 130351304 130575208 130798640 131014304 131220800 131422192 
742.460 131624880 131833912 132048520 132262472 132467392 132658200 
745.352 132835568 133005512 133175416 133348152 133519216 133677896 
748.245 133811984 133913400 133983536 134032216 134073856 134119880 
751.138 134175256 134235952 134293776 134340272 134372320 134393312 
754.031 134411152 134433776 134466608 134510640 134565248 134630880 
756.923 134711584 134812608 134938400 135088576 135255792 135428016 
759.816 135592304 135739952 135869328 135984288 136091248 136194336 
762.709 136293808 136386336 136471216 136554832 136654304 136798928 
765.601 137026320 137371888 137865280 138518304 139318544 140220704 
768.494 141146928 141994896 142642560 142982480 142946976 142532272 
771.387 141811232 140923600 140050176 139349904 138925168 138785168 
774.279 138846848 138953376 138920512 138600640 137904512 136824048 
777.172 135412896 133756432 131933016 129986208 127923520 125723008 
780.065 123356008 120802424 118065656 115172864 112173192 109125208 
782.958 106091704 103135576 100309624 97656664 95207568 92976648 90966568 
786.332 89170032 87574624 86167928 84939840 83884512 82998584 82279568 
789.707 81724128 81327488 81084896 80993856 81055224 81274744 81660904 
793.082 82222944 82967248 83893752 84992664 86244456 87618608 89073376 
796.457 90562384 92035536 93445752 94761952 95975320 97110640 98225560 
799.832 99410784 100770872 102394592 104332272 106559824 108966728 111338320 
803.206 113387688 114809600 115311848 114708744 112959984 110190552 
806.099 106660112 102709080 98692880 94877000 91410432 88307288 85474264 
809.474 82759656 80013432 77146432 74143088 71064864 68013000 65104628 
812.849 62434752 60057336 57990356 56220336 54717764 53446652 52373432 
816.224 51469164 50706352 50061580 49514604 49048656 48653580 48324112 
819.598 48057884 47853188 47706236 47610984 47561292 47553048 47586136 
822.973 47665336 47798552 47994080 48257604 48591392 48993164 49457788 
826.348 49976068 50535764 51121972 51715432 52296136 52847456 53360248 
829.723 53838944 54304808 54798724 55373596 56092924 57022448 58213872 
833.098 59697280 61462852 63452116 65543352 67553840 69271456 70459544 
836.473 70915312 70517072 69244240 67194920 64557328 61587996 58543460 
839.847 55639640 53039172 50824484 49014192 47579776 46469240 45623468 
843.222 44987108 44517912 44181740 43951320 43806272 43729204 43707364 
846.597 43731988 43796012 43892556 44014020 44151216 44295612 44441744 
849.972 44588552 44739812 44902628 45084948 45292424 45528188 45792980 
853.347 46086892 46410832 46767672 47161108 47595196 48073168 48597656 
856.721 49172012 49803388 50501932 51283172 52165720 53169028 54314424 
860.096 55624160 57120620 58828452 60768156 62948808 65356628 67944568 
863.471 70626528 73270592 75723392 77825440 79433392 80458000 80874368 
866.846 80734280 80151800 79296040 78365392 77545016 77003984 76871080 
870.221 77222544 78093232 79475560 81329288 83580712 86127480 88843616 
873.596 91564360 94104896 96273232 97874456 98756096 98826064 98068304 
876.970 96547264 94395768 91797528 88941072 86010088 83157968 80484720 
880.345 78046392 75853672 73885344 72102528 70465008 68945464 67532824 
883.720 66235548 65073288 64071016 63247972 62612376 62160192 61877936 
887.095 61748432 61755268 61888216 62143256 62520840 63022816 63649340 
890.470 64399012 65269364 66260128 67375968 68626792 70028792 71601592 
893.844 73364344 75333608 77518360 79914440 82495464 85204432 87950968 
897.219 90595768 92968760 94886976 96166048 96670192 96329936 95158192 
900.594 93246888 90754344 87884352 84840008 81815888 78975680 76430600 
903.969 74253112 72475400 71099208 70107784 69474792 69172472 69174416 
907.344 69459160 70011232 70819352 71877576 73183168 74736408 76538792 
910.719 78590432 80885176 83406224 86118880 88964736 91867576 94733968 
914.093 97464528 99978272 102219136 104172496 105865824 107367984 108775528 
917.468 110187992 111698128 113363464 115189360 117117592 119024776 
920.361 120741304 122057968 122780856 122769728 121971208 120450440 
923.254 118393312 116102960 113931528 112255008 111420664 111665216 
926.146 113101528 115677168 119187448 123272552 127465856 131292832 
929.039 134287184 136092208 136512496 135504144 133168248 129694176 
931.932 125329808 120325752 114912248 109311280 103714600 98292944 93204704 
935.306 88574112 84496776 81037896 78226352 76066832 74545376 73638192 
938.681 73312952 73525504 74217496 75299680 76649816 78124760 79554824 
942.056 80775904 81656184 82102888 82084912 81630320 80820760 79769064 
945.431 78598488 77431352 76361896 75454936 74744984 74238680 73923368 
948.806 73775096 73767328 73872816 74065512 74323048 74622920 74944376 
952.181 75270760 75589968 75897112 76194592 76490584 76795824 77119840 
955.555 77469488 77847872 78254960 78689984 79152568 79642824 80161208 
958.930 80707352 81279024 81873176 82486856 83118336 83768000 84437808 
962.305 85129968 85845288 86582848 87340456 88116040 88909480 89722656 
965.680 90559568 91423808 92317400 93239856 94188680 95160792 96155008 
969.055 97172056 98215048 99287584 100392408 101531152 102704664 103914944 
972.429 105165968 106463784 107814888 109224568 110694456 112222872 
975.322 113805736 115440320 117126968 118870528 120678736 122560840 
978.215 124525112 126578120 128727328 130983040 133360328 135880848 
981.108 138568576 141446448 144532448 147834912 151350496 155061216 
984.000 158934624 162914528 166914064 170820288 174481408 177719952 
986.893 180363344 182248848 183261072 183351520 182543136 180931296 
989.786 178664800 175944432 172988368 170009792 167215968 164770448 
992.678 162790736 161349472 160469840 160139488 160321712 160972160 
995.571 162045296 163500416 165305696 167431632 169848832 172528848 
998.464 175440528 178552032 181832112 185241936 188730912 192233008 
1001.356 195655952 198891936 201830784 204366528 206424048 207967504 
1004.249 209006304 209591824 209812320 209789392 209655888 209553888 
1007.142 209623984 209980048 210710816 211869424 213471504 215504016 
1010.035 217934272 220724416 223834272 227227264 230870288 234724400 
1012.927 238746128 242889840 247106496 251351472 255583024 259748784 
1015.820 263777904 267565968 270962432 273793856 275877344 277052288 
1018.713 277227008 276395200 274655264 272190208 269267872 266208448 
1021.605 263325248 260930128 259279792 258544272 258815200 260090016 
1024.498 262291456 265277568 268874592 272902496 277171936 281509312 
1027.391 285749696 289723296 293274272 296259488 298560160 300104160 
1030.284 300864288 300856736 300124512 298725856 296722368 294170016 
1033.177 291125184 287642112 283768480 279543072 274988000 270109120 
1036.070 264902048 259366720 253520608 247410544 241111104 234716704 
1038.963 228336256 222072128 216015968 210248704 204827504 199788720 
1041.856 195138736 190849088 186852464 183045872 179313840 175538112 
1044.750 171627392 167540944 163292800 158954304 154632048 150461952 
1047.643 146578864 143096752 140109792 137676208 135820400 134538048 
1050.536 133800624 133563208 133767936 134357200 135274016 136463824 
1053.429 137878032 139464880 141161872 142897152 144577920 146095184 
1056.322 147341136 148207312 148604992 148478240 147805984 146610176 
1059.215 144952304 142939152 140709232 138418384 136241168 134339056 
1062.108 132850184 131889120 131527976 131802488 132712080 134223712 
1065.001 136273328 138764240 141580816 144579488 147597648 150478784 
1067.894 153068368 155236416 156893520 157982976 158484240 158403968 
1070.787 157768304 156615760 154990912 152946688 150538192 147822048 
1073.680 144862240 141725312 138486672 135237744 132076352 129111112 
1076.573 126456184 124212072 122466520 121284624 120698560 120708352 
1079.466 121275944 122330056 123756752 125406576 127112864 128685656 
1082.359 129946040 130755560 131026224 130748584 129990368 128894968 
1085.252 127649368 126459200 125535992 125053392 125143248 125886648 
1088.146 127303872 129357456 131951752 134951344 138178352 141430560 
1091.039 144516720 147253088 149490800 151129888 152110080 152413584 
1093.932 152056560 151082416 149554144 147545440 145142192 142430928 
1096.825 139496352 136425936 133299960 130192488 127170536 124280136 
1099.718 121544840 118958448 116487328 114074776 111653648 109168280 
1102.611 106584128 103902616 101162224 98437152 95823832 93421336 91328856 
1105.986 89627056 88371080 87595176 87309672 87506160 88161256 89240704 
1109.361 90702360 92493040 94554744 96820272 99209712 101637872 104006128 
1112.737 106205512 108131792 109684256 110780776 111371296 111436976 
1115.630 110994216 110085128 108774720 107138720 105252472 103191752 
1118.523 101021680 98792296 96542256 94295056 92063392 89854992 87677392 
1121.898 85542448 83470312 81486392 79620936 77905240 76365216 75021280 
1125.273 73887736 72972400 72280936 71818584 71591120 71605264 71866040 
1128.648 72373304 73118552 74082256 75233792 76527168 77905752 79303992 
1132.024 80646384 81860976 82885360 83674912 84215600 84526080 84659256 
1135.399 84687520 84697184 84772496 84975448 85343216 85878312 86550696 
1138.774 87299016 88039376 88681344 89128168 89294472 89116456 88550016 
1142.149 87577744 86204376 84453664 82363232 79979648 77360632 74565992 
1145.525 71659032 68705608 65764776 62891200 60132560 57524384 55093456 
1148.900 52857108 50823668 48995236 47368912 45939360 44698460 43636540 
1152.275 42743532 42008000 41419344 40969020 40650932 40461772 40400860 
1155.650 40467592 40662032 40983004 41429476 42001068 42699080 43527048 
1159.026 44489096 45589352 46830004 48209732 49722724 51357828 53098812 
1162.401 54920500 56788672 58662264 60488668 62210856 63772508 65117052 
1165.776 66196612 66974388 67424064 67533400 67304496 66753432 65907748 
1169.151 64804904 63490196 62009008 60407020 58728528 57011000 55289476 
1172.527 53595108 51953512 50388388 48919800 47563548 46332120 45234216 
1175.902 44274224 43454348 42774868 42235232 41834884 41573076 41449052 
1179.277 41461592 41609836 41893740 42315472 42878976 43589944 44454664 
1182.652 45478408 46664176 48012180 49518500 51173528 52958724 54845528 
1186.028 56788672 58727008 60589644 62293492 63757428 64913476 65707564 
1189.403 66112184 66125572 65772600 65099196 64166948 63050204 61822116 
1192.778 60553992 59312496 58151060 57113592 56233236 55530316 55015184 
1196.153 54688228 54541124 54555924 54705476 54955692 55261444 55570876 
1199.529 55830256 55981792 55972824 55760820 55314392 54621036 53687820 
1202.904 52543100 51230864 49807328 48336852 46878016 45483596 44195088 
1206.279 43037988 42025596 41160188 40436676 39845748 39375724 39015120 
1209.654 38750948 38570504 38462320 38416380 38426696 38491716 38614036 
1213.030 38798696 39050464 39372460 39764220 40221652 40737176 41301260 
1216.405 41902020 42525468 43157164 43781208 44381848 44946244 45463728 
1219.780 45927612 46334704 46684760 46980568 47226928 47432400 47608912 
1223.155 47771956 47940980 48136204 48376220 48676004 49044128 49481664 
1226.531 49982536 50535244 51124100 51730024 52334112 52917924 53465424 
1229.906 53966040 54414952 54814780 55174300 55509308 55841108 56194088 
1233.281 56598504 57088196 57698384 58468808 59438240 60641456 62109420 
1236.656 63864192 65918312 68275312 70929792 73867712 77064128 80485632 
1240.031 84086896 87810240 91594920 95373664 99078488 102647712 106020432 
1243.407 109138928 111952448 114412576 116477664 118115968 119302176 
1246.300 120019088 120257744 120016288 119302832 118136240 116547552 
1249.193 114574576 112257448 109634864 106737336 103589920 100216840 
1252.086 96646056 92917056 89084968 85214064 81380920 77666128 74141752 
1255.461 70873608 67911288 65282532 62995344 61035964 59372668 57956580 
1258.836 56728672 55626084 54581396 53535548 52441284 51265240 49993952 
1262.212 48631376 47197412 45720384 44234012 42772236 41362268 40025848 
1265.587 38778264 37627536 36577848 35628868 34777320 34016804 33339646 
1268.962 32738384 32206930 31741850 31342760 31010326 30745822 30549120 
1272.337 30418854 30352402 30347500 30401832 30513894 30681098 30898562 
1275.713 31158532 31448364 31751476 32048482 32317210 32534282 32678864 
1279.088 32732312 32683186 32528676 32275736 31940412 31543594 31109516 
1282.463 30659264 30208200 29766830 29340726 28934128 28553282 28206818 
1285.838 27906208 27664666 27493854 27402756 27397780 27482664 27660748 
1289.214 27935358 28309968 28786854 29365612 30042422 30807992 31647078 
1292.589 32539316 33454974 34357212 35204304 35949448 36551280 36980516 
1295.964 37224916 37294012 37217152 37040704 36814840 36590428 36412248 
1299.339 36311908 36310760 36419024 36635520 36947688 37330444 37749104 
1302.715 38158144 38508588 38757072 38867252 38818116 38604908 38237560 
1306.090 37737608 37133556 36459956 35751388 35041132 34361372 33737028 
1309.465 33186544 32720738 32342408 32049802 31838928 31707096 31653348 
1312.840 31678974 31785164 31971868 32237082 32578352 32993990 33484426 
1316.216 34051672 34698356 35424332 36225320 37091400 38008976 38963396 
1319.591 39939676 40924928 41906288 42868372 43792420 44653872 45422600 
1322.966 46068544 46563320 46886692 47032480 47012468 46859380 46621384 
1326.341 46363752 46157232 46064604 46138112 46405228 46866724 47497344 
1329.717 48254828 49090164 49955924 50818156 51658104 52471344 53264344 
1333.092 54049076 54839624 55647548 56481844 57346444 58239860 59153380 
1336.467 60070156 60967936 61818260 62590904 63259088 63799256 64195492 
1339.842 64439864 64532460 64480448 64296564 63998556 63606688 63143156 
1343.218 62632508 62097036 61556844 61027576 60518376 60032828 59570556 
1346.593 59127484 58698332 58274228 57843836 57390876 56897140 56346808 
1349.968 55730228 55050240 54323772 53584200 52876832 52251216 51761048 
1353.343 51453236 51363872 51516428 51914604 52539772 53347208 54273196 
1356.719 55236608 56147748 56926908 57506604 57841148 57912356 57727184 
1360.094 57318352 56736372 56053828 55356508 54732196 54268280 54030804 
1363.469 54050724 54319568 54789704 55386396 56013004 56572196 56972688 
1366.844 57135056 57008812 56577140 55862096 54918468 53825972 52675160 
1370.219 51544224 50498540 49582232 48818128 48217136 47783756 47521772 
1373.595 47436876 47533012 47807280 48244940 48819276 49498040 50247456 
1376.970 51041808 51866100 52714700 53591996 54509040 55484084 56539812 
1380.345 57703720 59002896 60453668 62049596 63746376 65462560 67072280 
1383.720 68422792 69364456 69755336 69494624 68544992 66953936 64863956 
1387.096 62487892 60083812 57875520 56010892 54554308 53492896 52769028 
1390.471 52303200 52018760 51845300 51719240 51589296 51410376 51147952 
1393.846 50784448 50321156 49778940 49187820 48578384 47970212 47370612 
1397.221 46780104 46200680 45643780 45134684 44707416 44394584 44220072 
1400.597 44191312 44302328 44539168 44887232 45334172 45871264 46493248 
1403.972 47195788 47973616 48819832 49724952 50678088 51668628 52687360 
1407.347 53727488 54785272 55857764 56942584 58036784 59135988 60235740 
1410.722 61333128 62426412 63513980 64591512 65648020 66665724 67621744 
1414.098 68492696 69264808 69937352 70525568 71056288 71563656 72083320 
1417.473 72645160 73272984 73980328 74765136 75610520 76484184 77345784 
1420.848 78152088 78865768 79462360 79931656 80285568 80557264 80800248 
1424.223 81071232 81414768 81850928 82371160 82947808 83546096 84140096 
1427.599 84714944 85269584 85813024 86360744 86932832 87551144 88243264 
1430.974 89039408 89965688 91040072 92264416 93626080 95100112 96661912 
1434.349 98297184 100003176 101791064 103676696 105669776 107759336 
1437.242 109916096 112103488 114284400 116425376 118487496 120424072 
1440.135 122167032 123630192 124727528 125373896 125502784 125076416 
1443.028 124083616 122545904 120513752 118073272 115335216 112418680 
1445.921 109452920 106554992 103826616 101358432 99215744 97433392 96009040 
1449.297 94909320 94082760 93480304 93074512 92864280 92870720 93117736 
1452.672 93614080 94334864 95224528 96191312 97122576 97903472 98423808 
1456.047 98620656 98512888 98224064 97935472 97810120 97952952 98396088 
1459.422 99132440 100143520 101408184 102901112 104579280 106379584 
1462.315 108202640 109908888 111344192 112350224 112814624 112712080 
1465.208 112116008 111170336 110027584 108818736 107627416 106494312 
1468.102 105437480 104455480 103526832 102600832 101591816 100382304 
1470.995 98836552 96852200 94407256 91594592 88596784 85618872 82816232 
1474.370 80259256 77958992 75904568 74094712 72549280 71296184 70347176 
1477.745 69684064 69255632 68994480 68830336 68711352 68612352 68531952 
1481.120 68486680 68500376 68598808 68805448 69145744 69653064 70366688 
1484.496 71329224 72575528 74118560 75936536 77960424 80081800 82144160 
1487.871 83953768 85307528 85994864 85842784 84764040 82784440 80053864 
1491.246 76799184 73273848 69683568 66155204 62756040 59501428 56390080 
1494.621 53437992 50686392 48205768 46080412 44377336 43125580 42310068 
1497.997 41890712 41817408 42046036 42542532 43275496 44210680 45310524 
1501.372 46529872 47821224 49140624 50434976 51643216 52688592 53457028 
1504.747 53802904 53562756 52601064 50893364 48583020 45953284 43292808 
1508.122 40790892 38510980 36433724 34516720 32730918 31068798 29545532 
1511.498 28184156 26999062 25992130 25150408 24453868 23881090 23413928 
1514.873 23037610 22736120 22493670 22296728 22137638 22018200 21947132 
1518.248 21933226 21977628 22070386 22191440 22319716 22442934 22567934 
1521.623 22719360 22927634 23210978 23565582 23971698 24403990 24845344 
1524.999 25290798 25751020 26245414 26793972 27406390 28079690 28802470 
1528.374 29562486 30354002 31177756 32041278 32952412 33916192 34934396 
1531.749 36005424 37125760 38291660 39497744 40735464 41990192 43244600 
1535.124 44480620 45682836 46834944 47920740 48925512 49829588 50613420 
1538.500 51258156 51749212 52078748 52247140 52268856 52167436 51971776 
1541.875 51708788 51394972 51032304 50610884 50118324 49549512 48918392 
1545.250 48257200 47608208 47006820 46466032 45977152 45514832 45052896 
1548.625 44576652 44094148 43633020 43232300 42922612 42714984 42601700 
1552.000 42564716 42587920 42664680 42799552 43003124 43281244 43628624 
1555.376 44025500 44440972 44841416 45190236 45452396 45603736 45645364 
1558.751 45620116 45602228 45671020 45869276 46195008 46623888 47126352 
1562.126 47679020 48265972 48880272 49522772 50197912 50911916 51668108 
1565.501 52463268 53288132 54128224 54966372 55787908 56579860 57333704 
1568.877 58045948 58718968 59360132 59976300 60574028 61155760 61719784 
1572.252 62260068 62766412 63225248 63615164 63910180 64084724 64121128 
1575.627 64024016 63825160 63576424 63323216 63085296 62850572 62585084 
1579.002 62246684 61797020 61214160 60494268 59652008 58710508 57694828 
1582.378 56622248 55501100 54335936 53134536 51909564 50679504 49460796 
1585.753 48262492 47085028 45924740 44780068 43659436 42580284 41565676 
1589.128 40636196 39802532 39064164 38412616 37838352 37334092 36894440 
1592.503 36512212 36172664 35850944 35518172 35145628 34715764 34228056 
1595.879 33697068 33146344 32597672 32065820 31556174 31068584 30604546 
1599.254 30170586 29778896 29443010 29171946 28966502 28820314 28724582 
1602.629 28673044 28663806 28697432 28771100 28872792 28980420 29062710 
1606.004 29087086 29028914 28874952 28626572 28294866 27896138 27444792 
1609.380 26951534 26426934 25884994 25345240 24832890 24370414 23971278 
1612.755 23635130 23349170 23092258 22841680 22580916 22302276 22009382 
1616.130 21715850 21441174 21204804 21020408 20895402 20830082 20819548 
1619.505 20852886 20914560 20986434 21049276 21090282 21108022 21114562 
1622.881 21131988 21182710 21279994 21422446 21597886 21790712 21989724 
1626.256 22190742 22395172 22604930 22819086 23031810 23235306 23424558 
1629.631 23601020 23772302 23949114 24138364 24339154 24540808 24725580 
1633.006 24873414 24965982 24992480 24953314 24861800 24739926 24611812 
1636.382 24496776 24403324 24331024 24274080 24224014 24170484 24102076 
1639.757 24009760 23888058 23739020 23572368 23402352 23242018 23097150 
1643.132 22963720 22827782 22670346 22471196 22218362 21913502 21575008 
1646.507 21234030 20924990 20675418 20497468 20390496 20344102 20343476 
1649.883 20369798 20397684 20395148 20320214 20130260 19805430 19378554 
1653.258 18940054 18587892 18374152 18286398 18278312 18299184 18313354 
1656.633 18302848 18264176 18204432 18133880 18060302 17984838 17901892 
1660.008 17802498 17678690 17527006 17350064 17155202 16952330 16751206 
1663.384 16560089 16385226 16231036 16100110 15991570 15899621 15814085 
1666.759 15719322 15598717 15439279 15236624 14998253 14742292 14492066 
1670.134 14265985 14073186 13912220 13775356 13652076 13530848 13400836 
1673.509 13250606 13070276 12855241 12612000 12358872 12120134 11916773 
1676.885 11756911 11634883 11534734 11438247 11331851 11210996 11082051 
1680.260 10957358 10848939 10759840 10679961 10586584 10451952 10253917 
1683.635 9992192 9695825 9414255 9190124 9037149 8942299 8878749 8822613 
1687.492 8757087 8675109 8577430 8468151 8352210 8233263 8115225 8002383 
1691.350 7900943 7816595 7751591 7701470 7653547 7589612 7490560 7345494 
1695.207 7161535 6965769 6794592 6672906 6603162 6565350 6528585 6458022 
1699.065 6328027 6132467 5893298 5655132 5459909 5327529 5250219 5206220 
1702.922 5171984 5130575 5072542 4994641 4899228 4792110 4680965 4572930 
1706.780 4473625 4386493 4312497 4249956 4195319 4144235 4093157 4041216 
1710.637 3990786 3946547 3913479 3894289 3888104 3891113 3897565 3901878 
1714.494 3900908 3893152 3878041 3853570 3816565 3763822 3696714 3622635 
1718.352 3554948 3506378 3484533 3488942 3512123 3543289 3572420 3592966 
1722.209 3603858 3608502 3612945 3622367 3639073 3661661 3687024 3712053 
1726.067 3735647 3758173 3779998 3799953 3814693 3819808 3812253 3792298 
1729.924 3763955 3732974 3703030 3672387 3632391 3568244 3466764 3323069 
1733.781 3149017 2972631 2826399 2730093 2683316 2671414 2674414 2675348 
1737.639 2662579 2632409 2587709 2536714 2488857 2451602 2428611 2419848 
1741.496 2423946 2439007 2463231 2494622 2530248 2566677 2601275 2633376 
1745.354 2664213 2696185 2731327 2769240 2806589 2838138 2858416 2864086 
1749.211 2854881 2833469 2804821 2773942 2744865 2720924 2704453 2697685 
1753.069 2702119 2717723 2741897 2768673 2791249 2802287 2797718 2779277 
1756.926 2753768 2730727 2717423 2715489 2720691 2725692 2721458 2702753 
1760.783 2669380 2626742 2583109 2546412 2521450 2508386 2505020 2508052 
1764.641 2514951 2524316 2534414 2543179 2547612 2545712 2537147 2524749 
1768.498 2513318 2507019 2506886 2509519 2508086 2494256 2463331 2416549 
1772.356 2363575 2316870 2286492 2275933 2280829 2293420 2305844 2314039 
1776.213 2318236 2321667 2327897 2337957 2350016 2359578 2362443 2356879 
1780.071 2345319 2332927 2325198 2324732 2330428 2337357 2340755 2337324 
1783.928 2326964 2313073 2300415 2292454 2290822 2294452 2301747 2311807 
1787.785 2324932 2342088 2362776 2384564 2401822 2408020 2397624 2369172 
1791.643 2326597 2278897 2234999 2201562 2179450 2165697 2155174 2144951 
1795.500 2134296 2125240 2120012 2119846 2123841 2128869 2131533 2129668 
1799.358 2123575 2115117 2106993 2100800 2096472 2092677 2088515 2084220 
1803.215 2082222 2084919 2093875 2108924 2127504 2145917 2161101 2172457 
1807.073 2181448 2190472 2201595 2214517 2226806 2234566 2234533 2226140 
1810.930 2211686 2195668 2181714 2172157 2166629 2162933 2159370 2155574 
1814.787 2153542 2156639 2167795 2188374 2216815 2250353 2285392 2320068 
1818.645 2353481 2386596 2419681 2452069 2481726 2506286 2524482 2536047 
1822.502 2542580 2545979 2547345 2546579 2543413 2537980 2532614 2531515 
1826.360 2538913 2557611 2586275 2619975 2650878 2672314 2680815 2678782 
1830.217 2673314 2674014 2687183 2714222 2751300 2791982 2830634 2863986 
1834.074 2892237 2918022 2944141 2971997 3000989 3029984 3057879 3086242 
1837.932 3118346 3158095 3208262 3268950 3337493 3409488 3481226 3550238 
1841.789 3616053 3679639 3741997 3803763 3865371 3927288 3991689 4061149 
1845.647 4137779 4221181 4307443 4389707 4458996 4508711 4534893 4538442 
1849.504 4523677 4496357 4460469 4416785 4363667 4298275 4220111 4131457 
1853.362 4037337 3943237 3853202 3767966 3685620 3603256 3519405 3435770 
1857.219 3355624 3282604 3218476 3161399 3107867 3054075 2998487 2943074 
1861.076 2892671 2851912 2823130 2804988 2792916 2781811 2768039 2751567 
1864.934 2734728 2721057 2712288 2706721 2700386 2688883 2669813 2645110 
1868.791 2620209 2601842 2594309 2598242 2609975 2624309 2637843 2648677 
1872.649 2657245 2664613 2670680 2673247 2669380 2656411 2634110 2605442 
1876.506 2575609 2549679 2530282 2516517 2504987 2491756 2474761 2454934 
1880.364 2435708 2421147 2413051 2410818 2410818 2409252 2403821 2394792 
1884.221 2384464 2375469 2368772 2362776 2353981 2339123 2317370 2290389 
1888.078 2262710 2238663 2221044 2209555 2201762 2194435 2186610 2179217 
1891.936 2174621 2174921 2179583 2185644 2189407 2187675 2180848 2172790 
1895.793 2169260 2175221 2192271 2218347 2247722 2275633 2299116 2317936 
1899.651 2335059 2353281 2373670 2394526 2412517 2424879 2431443 2434775 
1903.508 2438507 2445937 2457600 2470796 2481293 2485725 2482959 2475528 
1907.365 2467497 2461799 2458933 2456067 2448936 2434142 2411918 2385997 
1911.223 2362542 2346885 2341122 2343753 2351116 2358944 2365741 2372037 
1915.080 2379800 2389961 2400856 2408286 2407420 2395958 2375902 2353381 
1918.938 2335525 2327130 2327563 2332060 2332993 2324332 2304479 2277298 
1922.795 2250053 2229404 2219179 2218213 2222243 2226606 2229637 2232934 
1926.653 2239995 2253384 2272602 2293486 2309708 2316504 2312140 2299016 
1930.510 2282028 2265674 2250952 2235965 2217214 2192238 2162267 2132598 
1934.367 2109191 2096738 2095040 2099535 2103198 2100401 2090046 2075830 
1938.225 2064344 2060549 2065676 2076829 2088315 2095473 2097637 2098004 
1942.082 2102732 2116316 2138791 2165397 2189440 2205925 2213951 2217614 
1945.940 2223309 2236331 2257713 2284193 2309642 2329895 2343887 2353681 
1949.797 2363742 2375969 2388429 2395625 2390861 2370172 2335159 2292387 
1953.655 2249753 2213418 2184878 2159570 2131166 2094674 2050029 2002692 
1957.512 1960253 1928035 1907235 1893291 1879247 1860280 1836854 1813928 
1961.369 1798656 1796261 1805843 1822080 1837918 1848766 1854922 1860878 
1965.227 1872725 1892958 1919682 1945176 1962150 1965745 1958323 1945908 
1969.084 1935191 1928601 1922311 1909132 1882043 1840015 1790006 1744427 
1972.942 1714953 1708100 1722305 1749916 1784516 1825308 1879747 1959654 
1976.799 2073633 2218280 2376235 2520083 2624342 2672014 2663012 2609175 
1980.656 2530815 2445871 2365341 2292554 2226639 2167195 2117848 2085518 
1984.514 2075997 2089614 2120312 2155440 2181548 2191305 2185244 2171857 
1988.371 2162000 2162866 2174188 2190106 2201129 2200996 2191038 2178184 
1992.229 2171990 2178018 2194935 2213884 2224908 2220844 2201296 2173855 
1996.086 2148748 2134263 2132532 2138725 2143986 2141256 2128203 2108192 
1999.944 2088748 2075630 2069704 2066375 2057952 2038810 2008151 1971337 
2003.801 1936822 1913259 1905438 1911761 1928102 1949968 1974599 2003225 
2007.658 2037612 2078261 2122143 2163765 2197699 2222044 2238596 2253217 
2011.516 2271403 2295818 2324032 2350416 2368939 2377468 2377434 2373970 
2015.373 2371538 2371538 2371271 2365374 2350783 2329329 2308709 2298649 
2019.231 2307210 2336591 2380666 2430210 2474195 2507753 2531148 2549679 
2023.088 2567577 2585742 2600042 2604275 2593775 2571043 2544279 2525782 
2026.946 2525449 2545446 2579643 2616875 2645677 2661512 2667580 2672847 
2030.803 2686516 2713556 2750433 2788548 2820329 2841773 2857516 2876927 
2034.660 2909682 2960187 3025379 3095553 3159597 3211099 3248686 3277997 
2038.518 3305541 3335891 3368781 3400671 3425384 3439177 3442583 3438743 
2042.375 3432063 3425751 3420608 3415866 3411792 3410857 3417369 3437808 
2046.233 3475214 3528424 3591196 3654210 3709580 3751957 3780667 3796944 
2050.090 3802928 3799585 3786583 3763989 3735012 3704835 3682145 3674392 
2053.948 3685286 3712555 3749517 3786516 3815964 3834750 3844945 3851531 
2057.805 3859053 3868480 3877907 3883256 3881852 3874798 3866808 3864167 
2061.662 3871589 3889608 3913847 3937887 3955642 3965172 3968248 3969719 
2065.520 3974401 3983830 3996236 4006804 4011051 4007606 3998076 3985870 
2069.377 3974735 3965573 3956678 3943638 3924379 3898568 3870419 3845881 
2073.235 3830204 3826226 3832911 3846082 3861593 3876336 3889976 3903583 
2077.092 3918896 3935312 3950560 3961861 3966944 3966877 3965205 3967546 
2080.949 3978480 4000149 4030882 4066099 4100616 4129383 4150223 4162199 
2084.807 4165879 4161932 4151528 4135973 4116939 4097573 4080515 4067470 
2088.664 4057638 4047437 4032387 4008744 3975872 3937018 3899036 3869683 
2092.522 3854306 3854506 3867477 3887703 3909769 3929361 3945578 3959353 
2096.379 3971892 3983496 3993561 4001119 4006068 4010616 4017839 4031183 
2100.237 4052620 4081150 4113661 4146276 4176283 4203215 4228642 4254941 
2104.094 4282915 4312028 4339236 4362395 4380268 4394794 4409555 4428501 
2107.951 4453439 4483066 4513800 4541255 4562282 4576413 4585922 4594160 
2111.809 4602833 4612042 4618739 4620012 4613850 4601829 4587596 4576714 
2115.666 4573667 4580029 4594294 4612879 4631934 4648813 4663047 4675003 
2119.524 4685453 4694396 4700727 4703239 4702133 4699220 4697779 4701832 
2123.381 4713421 4732548 4756901 4782528 4806181 4826584 4843806 4858783 
2127.239 4872153 4883646 4891018 4892660 4887700 4877447 4864647 4852651 
2131.096 4843772 4839149 4838579 4841192 4848094 4861028 4882239 4914006 
2134.953 4954556 4999133 5042004 5076967 5101541 5116427 5125680 5133156 
2138.811 5141304 5148714 5152201 5148647 5136510 5117935 5097619 5080722 
2142.668 5069726 5064463 5062184 5059535 5055044 5050753 5049814 5055781 
2146.526 5068653 5084577 5096344 5096009 5078844 5043847 4994038 4933208 
2150.383 4865150 4790971 4709770 4621419 4527092 4430208 4334618 4242929 
2154.240 4152866 4060513 3962463 3861359 3769436 3708043 3704501 3780399 
2158.098 3943204 4177420 4450326 4720187 4947552 5107475 5192438 5209205 
2161.955 5173694 5104189 5019612 4933242 4857175 4798609 4760753 4741190 
2165.813 4732280 4723571 4705047 4671253 4622725 4566668 4513097 4469675 
2169.670 4438677 4415647 4391146 4355534 4303829 4236839 4161731 4088876 
2173.528 4027070 3981322 3953000 3938924 3935580 3939559 3947684 3956177 
2177.385 3960190 3953870 3931768 3893553 3842371 3786482 3735614 3697015 
2181.242 3672086 3656616 3641747 3620095 3588690 3550705 3513025 3484032 
2185.100 3468768 3467131 3475047 3487172 3499397 3511689 3526620 3546396 
2188.957 3571919 3600049 3625909 3644419 3654343 3657818 3660692 3669647 
2192.815 3687424 3714125 3745072 3775185 3799953 3818939 3833847 3848188 
2196.672 3863900 3881618 3899671 3915352 3927321 3935547 3941565 3946681 
2200.530 3951830 3955876 3957013 3953870 3946814 3938255 3930531 3925951 
2204.387 3923643 3921303 3915920 3906659 3894423 3883724 3879445 3885028 
2208.244 3899638 3919030 3936483 3946447 3946447 3938188 3926586 3918027 
2212.102 3916388 3922607 3935112 3950392 3965707 3980353 3994464 4009011 
2215.959 4023826 4037638 4047805 4052620 4051316 4045363 4037002 4028608 
2219.817 4020949 4013893 4005399 3995066 3983162 3971357 3961794 3956444 
2223.674 3954405 3953167 3949657 3941030 3926419 3907662 3887335 3868680 
2227.531 3853603 3843007 3836755 3835518 3840566 3853236 3874665 3903282 
2231.389 3935380 3965539 3988010 3999046 3998377 3989481 3976574 3965439 
2235.246 3959922 3961360 3969719 3984198 4004496 4030481 4062153 4098308 
2239.104 4136675 4172971 4204051 4227103 4241992 4250123 4254406 4257016 
2242.961 4260094 4264210 4270233 4279134 4292887 4313467 4341980 4378059 
2246.819 4419362 4462009 4501915 4536567 4564994 4587496 4605512 4618840 
2250.676 4627413 4630427 4627916 4620983 4612578 4605947 4602866 4602799 
2254.533 4602833 4598580 4586424 4565363 4537605 4507774 4481593 4462411 
2258.391 4451531 4447213 4446409 4446376 4446242 4446611 4448920 4454511 
2262.248 4462980 4472856 4482263 4490163 4496525 4502819 4510151 4518822 
2266.106 4528029 4535027 4537773 4535194 4528397 4519860 4512930 4509849 
2269.963 4510887 4514771 4518923 4521266 4520797 4517985 4514001 4510385 
2273.821 4508075 4507405 4509414 4514336 4523576 4537706 4556824 4579560 
2277.678 4603971 4627547 4649081 4669276 4689841 4713287 4741525 4774421 
2281.535 4809498 4843605 4873761 4898055 4917123 4932102 4944368 4953886 
2285.393 4959081 4957773 4948088 4930360 4906734 4881636 4859219 4842734 
2289.250 4833185 4829466 4828963 4829298 4829298 4828461 4827757 4827791 
2293.108 4828394 4829097 4829131 4828728 4828528 4830404 4836099 4846687 
2296.965 4861765 4879759 4898558 4916117 4931064 4943195 4952177 4958511 
2300.823 4961695 4961661 4958243 4952344 4945139 4938503 4933577 4930829 
2304.680 4929421 4927913 4924931 4920072 4914274 4909046 4906231 4906500 
2308.537 4909180 4912766 4915112 4914475 4910588 4904120 4896346 4888639 
2312.395 4881602 4875168 4868869 4862368 4855332 4848229 4841461 4834826 
2316.252 4827958 4820252 4811441 4802529 4794756 4790401 4791071 4797771 
2320.110 4810034 4826015 4842834 4857544 4866658 4866658 4854494 4827522 
2323.967 4783801 4723604 4649349 4565999 4479752 4397237 4324109 4263540 
2327.824 4215928 4179729 4152096 4130688 4113695 4100550 4090916 4084160 
2331.682 4079377 4075397 4071618 4068240 4067169 4070313 4078875 4092890 
2335.539 4110316 4128279 4143901 4155509 4163404 4169492 4176250 4185450 
2339.397 4197962 4213151 4230382 4248952 4269463 4292050 4317148 4344022 
2343.254 4371164 4396903 4420902 4444937 4473425 4510988 4562081 4627681 
2347.112 4705751 4790904 4876509 4955964 5023735 5076666 5113409 5134095 
2350.969 5139862 5132452 5114247 5087427 5054641 5018674 4981536 4945072 
2354.826 4910655 4878854 4850206 4825412 4805578 4791574 4784907 4785075 
2358.684 4791306 4801926 4814489 4827020 4838344 4848430 4857309 4866255 
2362.541 4876040 4888103 4903886 4924562 4951205 4984117 5022428 5064262 
2366.399 5107542 5150525 5192271 5233518 5275976 5321054 5369996 5422331 
2370.256 5476250 5529706 5581053 5629588 5675676 5720427 5764948 5809507 
2374.114 5854305 5898873 5943849 5990072 6039189 6092950 6152261 6217093 
2377.971 6286137 6358050 6430984 6504166 6577427 6650869 6724457 6797553 
2381.828 6868642 6936107 6998227 7054464 7105319 7151935 7196030 7238950 
2385.686 7281403 7323421 7364501 7404134 7441176 7474716 7503808 7527373 
2389.543 7544534 7555221 7560245 7561121 7560008 7558525 7557851 7557783 
2393.401 7557514 7556030 7553063 7549624 7547568 7549254 7556300 7569180 
2397.258 7587016 7608090 7630548 7653243 7676277 7700222 7726024 7754188 
2401.115 7784648 7816831 7850230 7884746 7920952 7960569 8004071 8052573 
2404.973 8105740 8162963 8223437 8286857 8353595 8424298 8499945 8580776 
2408.830 8666117 8755228 8846453 8938340 9029774 9119738 9207182 9291428 
2412.688 9371255 9446051 9515272 9579185 9638670 9694673 9747838 9798670 
2416.545 9846831 9892217 9934319 9973307 10009450 10042883 10073571 10100939 
2420.403 10123967 10142045 10154899 10163311 10168535 10171892 10175114 
2423.778 10179152 10185291 10194008 10206967 10225725 10252628 10289473 
2427.153 10337009 10395376 10463255 10538884 10620503 10707366 10798936 
2430.528 10895280 10996540 11102276 11211812 11324266 11439233 11556748 
2433.904 11677666 11803213 11934619 12072572 12217250 12368145 12523936 
2437.279 12683161 12844524 13006529 13167604 13326586 13483097 13637408 
2440.654 13790576 13944243 14100430 14260473 14424856 14593243 14764882 
2444.029 14938716 15114129 15290746 15468635 15647834 15827727 16007865 
2447.405 16187219 16365098 16541569 16716667 16891422 17065592 17239108 
2450.780 17410934 17579792 17744610 17904690 18060302 18211584 18358876 
2454.155 18502064 18640288 18772846 18898834 19017728 19129592 19234312 
2457.530 19331542 19420410 19499140 19565614 19617886 19654736 19675816 
2460.906 19682056 19674672 19655500 19626380 19589184 19545684 19497788 
2464.281 19447506 19396640 19347062 19300402 19257900 19221670 19193446 
2467.656 19175438 19170002 19179074 19204182 19245708 19303864 19377966 
2471.031 19467638 19572338 19691902 19825890 19973210 20132656 20301846 
2474.406 20478744 20660788 20845794 21031504 21215274 21394114 21564874 
2477.782 21724558 21870710 22002026 22117834 22218186 22302972 22371902 
2481.157 22424092 22459054 22476954 22479292 22468476 22448132 22421266 
2484.532 22389694 22353900 22312984 22265756 22211596 22150782 22084678 
2487.907 22015064 21943264 21869038 21791094 21707246 21615194 21513586 
2491.283 21402152 21281492 21153034 21018080 20877082 20730046 20576532 
2494.658 20415882 20247618 20071092 19885720 19690826 19486108 19271442 
2498.033 19047848 18817584 18583568 18348988 18116644 17888046 17664022 
2501.408 17443872 17226904 17012800 16801522 16593788 16390216 16191173 
2504.784 15996967 15807142 15621936 15441751 15267854 15101778 14944889 
2508.159 14797963 14660547 14531705 14409853 14293995 14183268 14078080 
2511.534 13979144 13887176 13803197 13727613 13660830 13602876 13553511 
2514.909 13512628 13479030 13452098 13430601 13414198 13402715 13396804 
2518.285 13397726 13405996 13422126 13445058 13472809 13503331 13534881 
2521.660 13566365 13597953 13630262 13664044 13699913 13738044 13778127 
2525.035 13819376 13861622 13903906 13945167 13983832 14017812 14044574 
2528.410 14062062 14069352 14066819 14056278 14039920 14019968 13997760 
2531.786 13973258 13945715 13913827 13876913 13834802 13788455 13739275 
2535.161 13689073 13639390 13591697 13547084 13506476 13470109 13438256 
2538.536 13410267 13385254 13361881 13339672 13318181 13298058 13280156 
2541.911 13265466 13254125 13245824 13238992 13232159 13224132 13213919 
2545.287 13201759 13188029 13173000 13156812 13139257 13120132 13099506 
2548.662 13078232 13057437 13038726 13022883 13010250 13000214 12992053 
2552.037 12984577 12977407 12970545 12963855 12957437 12951155 12944601 
2555.412 12937842 12931323 12925690 12922072 12920979 12921833 12923130 
2558.788 12922413 12917088 12905482 12887119 12862681 12833911 12802480 
2562.163 12769482 12735532 12700219 12663680 12626395 12589591 12554801 
2565.538 12523458 12496348 12473227 12453279 12435651 12419763 12405817 
2568.913 12394362 12386248 12382157 12382328 12386146 12393169 12402681 
2572.289 12414648 12429003 12445539 12463952 12483457 12502929 12521310 
2575.664 12538294 12553675 12568170 12582974 12599175 12617765 12639903 
2579.039 12665762 12695544 12728981 12765046 12802685 12840122 12876607 
2582.414 12911183 12944055 12975872 13008134 13041662 13077173 13114703 
2585.790 13154011 13194689 13237284 13282206 13330618 13383375 13440649 
2589.165 13501417 13564484 13628347 13691707 13754152 13815716 13876811 
2592.540 13937845 13998375 14058024 14116003 14171800 14225378 14277182 
2595.915 14327691 14377042 14424993 14471100 14514745 14556373 14597114 
2599.291 14638888 14683440 14732317 14785794 14842979 14902297 14962139 
2602.666 15021509 15080234 15139002 15198945 15260886 15325033 15391250 
2606.041 15458815 15527662 15597824 15670266 15746223 15826970 15913095 
2609.416 16004805 16101521 16202006 16304890 16408795 16512278 16614581 
2612.792 16714841 16812680 16907612 16999566 17087958 17172540 17253140 
2616.167 17329548 17402036 17471262 17538082 17603324 17667818 17731838 
2619.542 17795108 17857388 17918294 17978138 18037782 18098334 18160726 
2622.917 18225578 18292170 18359012 18424136 18485746 18542868 18595674 
2626.292 18645200 18693418 18741606 18790838 18841044 18891774 18942304 
2629.668 18992182 19041442 19090638 19140430 19191298 19243178 19295898 
2633.043 19348656 19400764 19451734 19501288 19549358 19596186 19641770 
2636.418 19686562 19730736 19774634 19818400 19862552 19907124 19952498 
2639.793 19998814 20046386 20095382 20146434 20199574 20255116 20312782 
2643.169 20371952 20431892 20492186 20552212 20612074 20672048 20732758 
2646.544 20794696 20858168 20923358 20989912 21057798 21126668 21196522 
2649.919 21267816 21340198 21413848 21488346 21562820 21636786 21709720 
2653.294 21781620 21852730 21923990 21996242 22070558 22147716 22228022 
2656.670 22311414 22397370 22485294 22574180 22663572 22752496 22840248 
2660.045 22926204 23009588 23090126 23167358 23241702 23313402 23383680 
2663.420 23453516 23524026 23596016 23669488 23743954 23818956 23893098 
2666.795 23965886 24036900 24106104 24174128 24241566 24309474 24378090 
2670.171 24448048 24519178 24591438 24664344 24737506 24810436 24883132 
2673.546 24955524 25028210 25101678 25176602 25253502 25332666 25413352 
2676.921 25495040 25576636 25657720 25738082 25818108 25898674 25981014 
2680.296 26065904 26153874 26245096 26339614 26437250 26538254 26643088 
2683.672 26752104 26865942 26984852 27108944 27237832 27371594 27510162 
2687.047 27653472 27801704 27954758 28112636 28274674 28440276 28608806 
2690.422 28780164 28953998 29130630 29310240 29493116 29679334 29868862 
2693.797 30061916 30258678 30459406 30664172 30873160 31085954 31302624 
2697.173 31522468 31745556 31971830 32201756 32435656 32673542 32915168 
2700.548 33159756 33406052 33653100 33900140 34146720 34392752 34638100 
2703.923 34882940 35126660 35368544 35607432 35842020 36071052 36293396 
2707.298 36508212 36715020 36913776 37104680 37288092 37464896 37635664 
2710.674 37800936 37960988 38115748 38264916 38408128 38545156 38675532 
2714.049 38799096 38915264 39023456 39122684 39212208 39291348 39360052 
2717.424 39418424 39467156 39507104 39538860 39563324 39580996 39593048 
2720.799 39601000 39607132 39614320 39625608 39644268 39672836 39712992 
2724.175 39765856 39831476 39909672 39999728 40101028 40212968 40334900 
2727.550 40466680 40607676 40757740 40916408 41082932 41256552 41436000 
2730.925 41619716 41806028 41993440 42180604 42366352 42550024 42730920 
2734.300 42908380 43081672 43249724 43411980 43567852 43717112 43859712 
2737.676 43996128 44126680 44252172 44373260 44490784 44605808 44719612 
2741.051 44833520 44948632 45066236 45187260 45312616 45443344 45580184 
2744.426 45724248 45876164 46036460 46204848 46380380 46561700 46746820 
2747.801 46933316 47118816 47300628 47476088 47642336 47797328 47938872 
2751.177 48066028 48178372 48276268 48360372 48431636 48490428 48536772 
2754.552 48570272 48590096 48595620 48586352 48561636 48521252 48464680 
2757.927 48390888 48298708 48186812 48054332 47900612 47725688 47530352 
2761.302 47315852 47084212 46837384 46577928 46308160 46030676 45748396 
2764.677 45464244 45181192 44902664 44631988 44372012 44125580 43895304 
2768.053 43682812 43489508 43316128 43162908 43029792 42916396 42822292 
2771.428 42746788 42688952 42647280 42620048 42605172 42600092 42602504 
2774.803 42610436 42621732 42635292 42649800 42664060 42676668 42685844 
2778.178 42689172 42684164 42668408 42639752 42596732 42539356 42468280 
2781.554 42385420 42293848 42197036 42098092 42000192 41905636 41815984 
2784.929 41731864 41653156 41579420 41509276 41441212 41373528 41304028 
2788.304 41230356 41150612 41062828 40966292 40860708 40747148 40626884 
2791.679 40501820 40374204 40246192 40119892 39997580 39881488 39773628 
2795.055 39675852 39589344 39514836 39452640 39402496 39364660 39339408 
2798.430 39327548 39330268 39349056 39384864 39437872 39507868 39593340 
2801.805 39692552 39803436 39923692 40051356 40184656 40321952 40462172 
2805.180 40604400 40748384 40894128 41041668 41190792 41340800 41489768 
2808.556 41634960 41772904 41900160 42013476 42110724 42190792 42253968 
2811.931 42301044 42333224 42352000 42358172 42352616 42336072 42308896 
2815.306 42272048 42227088 42175420 42119740 42063268 42009972 41964496 
2818.681 41931908 41917164 41924792 41958328 42019684 42109224 42226612 
2822.057 42369604 42536248 42724196 42930840 43153832 43390340 43637348 
2825.432 43891236 44148284 44404348 44655452 44898696 45131928 45354104 
2828.807 45565832 45768536 45964628 46156828 46348084 46540936 46737780 
2832.182 46940512 47151060 47371424 47604400 47853224 48121808 48414520 
2835.558 48736124 49091244 49484632 49921016 50405540 50944476 51545268 
2838.933 52217396 52972984 53825708 54792220 55891412 57143560 58571628 
2842.308 60200988 62056976 64167300 66558696 69253024 72264424 75590960 
2845.683 79208984 83060840 87051560 91051312 94884496 98355856 101266096 
2849.059 103422424 104681176 104958840 104246456 102607848 100171352 
2851.952 97113792 93619912 89879528 86064744 82309400 78721408 75376224 
2855.327 72317568 69568784 67133152 64999780 63146756 61545348 60164568 
2858.702 58970632 57932728 57023432 56217356 55494324 54837484 54232876 
2862.077 53670684 53143524 52646808 52178572 51738240 51327208 50948016 
2865.453 50604336 50301584 50045296 49842112 49698348 49618260 49604220 
2868.828 49655404 49767232 49931312 50136136 50367700 50609436 50844416 
2872.203 51056528 51231420 51359020 51434660 51459428 51439768 51386732 
2875.578 51313712 51233512 51157980 51095700 51052540 51031744 51035324 
2878.954 51064428 51120184 51203496 51315500 51456184 51625640 51822380 
2882.329 52044644 52289184 52552296 52828932 53113756 53401160 53686020 
2885.704 53964388 54234188 54495516 54750312 55002136 55256060 55516876 
2889.079 55789828 56079992 56391668 56730560 57102708 57515076 57977140 
2892.455 58500124 59096544 59781876 60572084 61482512 62527148 63714528 
2895.830 65044692 66505320 68070160 69695896 71321024 72876032 74284288 
2899.205 75471416 76381216 76978312 77257456 77241432 76981320 76547128 
2902.580 76013064 75457776 74951032 74547928 74294864 74224808 74361112 
2905.956 74722080 75321160 76169280 77277728 78657856 80322992 82289136 
2909.331 84572568 87188320 90144704 93438592 97047624 100923056 104992760 
2912.706 109150896 113264496 117190536 120770392 123854624 126322672 
2915.599 128085208 129102696 129384992 128990072 128008856 126549200 
2918.492 124728808 122651448 120402296 118047304 115627520 113166408 
2921.385 110675168 108157504 105616272 103057264 100491872 97937680 95418112 
2924.760 92957520 90581160 88310208 86159968 84139696 82252216 80494808 
2928.136 78860640 77339328 75919088 74586016 73326408 72127208 70976216 
2931.511 69864104 68783280 67728424 66695244 65680392 64680560 63692732 
2934.886 62714844 61745832 60786104 59837776 58903880 57987252 57091216 
2938.261 56218264 55371264 54554084 53771816 53030484 52337476 51699348 
2941.637 51121376 50606604 50154916 49763184 49425188 49132644 48875564 
2945.012 48642056 48421188 48202472 47978428 47746028 47507504 47270740 
2948.387 47047544 46853252 46702544 46607584 46576488 46611716 46710476 
2951.762 46864548 47062208 47289324 47529244 47765264 47981832 48163932 
2955.138 48300076 48381960 48404668 48367108 48270640 48119288 47918116 
2958.513 47673656 47393448 47085248 46757300 46418136 46075032 45734704 
2961.888 45402216 45081160 44773900 44481608 44205176 43944980 43701868 
2965.263 43476068 43268136 43078268 42906408 42752312 42615444 42495504 
2968.639 42392104 42305424 42235964 42184768 42153440 42143944 42158332 
2972.014 42198020 42263572 42353712 42465648 42593700 42729972 42864896 
2975.389 42986624 43083064 43142856 43155664 43114752 43017316 42865520 
2978.764 42665228 42427032 42164392 41891000 41621028 41366856 41137496 
2982.140 40938836 40772876 40637836 40528624 40437480 40355548 40272840 
2985.515 40180328 40070724 39938732 39781944 39600744 39397856 39177648 
2988.890 38944804 38704216 38459060 38211004 37959760 37704216 37442792 
2992.265 37174740 36901148 36624672 36349844 36081132 35822772 35576788 
2995.641 35343168 35119620 34902292 34687120 34470512 34250108 34025152 
2999.016 33796016 33564064 33330842 33098354 32868386 32642606 32422554 
3002.391 32209604 32004644 31808160 31620312 31440884 31269650 31106420 
3005.766 30951150 30803972 30664810 30533338 30409080 30291576 30179962 
3009.142 30073916 29972974 29877094 29785922 29699200 29616260 29536596 
3012.517 29459392 29384014 29310028 29237188 29165284 29094384 29024628 
3015.892 28956512 28890710 28827962 28769296 28715450 28666708 28622962 
3019.267 28583644 28548152 28515774 28486408 28460052 28437056 28417600 
3022.643 28401540 28388488 28378124 28370482 28366202 28366946 28374870 
3026.018 28392202 28421066 28461962 28514254 28575470 28641792 28708548 
3029.393 28770888 28824066 28864682 28890250 28899918 28893968 28874066 
3032.768 28842338 28801230 28753152 28700264 28644128 28586404 28528548 
3036.144 28471904 28417672 28366804 28319906 28277150 28238570 28203954 
3039.519 28173334 28146784 28124336 28106062 28091462 28080222 28071916 
3042.894 28065766 28061664 28059862 28060250 28063008 28067744 28073964 
3046.269 28080894 28088388 28096518 28106202 28118858 28135472 28156898 
3049.645 28182740 28212016 28243308 28274992 28306184 28336422 28366062 
3053.020 28395490 28425240 28455206 28485312 28515066 28544472 28573488 
3056.395 28602614 28632624 28663984 28697540 28733966 28774076 28818544 
3059.770 28868294 28923752 28984920 29051162 29121064 29193740 29267882 
3063.146 29343350 29420496 29499926 29582350 29667628 29754978 29842562 
3066.521 29928812 30012134 30091708 30167602 30240490 30311044 30379800 
3069.896 30446538 30510446 30570806 30627014 30678786 30727006 30772672 
3073.271 30817134 30861956 30908276 30956664 31007302 31059972 31114142 
3076.646 31169106 31224146 31278588 31331756 31383466 31433300 31481248 
3080.022 31527848 31573526 31619280 31666004 31714580 31765808 31819568 
3083.397 31875298 31931996 31988308 32043490 32097570 32151442 32206752 
3086.772 32265134 32328024 32395672 32467362 32541424 32616068 32689978 
3090.147 32762646 32834574 32906984 32981012 33057772 33137724 33220772 
3093.523 33306588 33395174 33486072 33579496 33675260 33773236 33873024 
3096.898 33973948 34075464 34176832 34277500 34376828 34474064 34568632 
3100.273 34660172 34749104 34836412 34923444 35012288 35104352 35200280 
3103.648 35299640 35401364 35504076 35606528 35708576 35810464 35913132 
3107.024 36017124 36122648 36229172 36335652 36440748 36543784 36644532 
3110.399 36743616 36841924 36940580 37040376 37142000 37245888 37352328 
3113.774 37461320 37572580 37685604 37799164 37912068 38023044 38131412 
3117.149 38237344 38341600 38445736 38550880 38657748 38766236 38875224 
3120.525 38983292 39089108 39191396 39290296 39386280 39480728 39575228 
3123.900 39671420 39770396 39872588 39978108 40086204 40196104 40306500 
3127.275 40416896 40526988 40636852 40747000 40857396 40967748 41076996 
3130.650 41184048 41287964 41388724 41487400 41586132 41687584 41793880 
3134.026 41906508 42025452 42149388 42276684 42405588 42534932 42663952 
3137.401 42792272 42919648 43045192 43168324 43288084 43404732 43518696 
3140.776 43631228 43743896 43857880 43973544 44090628 44208296 44325960 
3144.151 44443432 44560976 44679288 44799428 44921920 45046868 45174356 
3147.527 45304232 45436764 45572312 45711328 45853588 45998404 46144152 
3150.902 46288732 46430376 46567232 46698596 46824204 46944424 47060064 
3154.277 47171964 47281344 47389460 47497860 47607912 47720732 47836760 
3157.652 47955780 48077128 48199920 48323816 48448676 48574940 48702872 
3161.028 48832440 48962712 49092208 49219364 49343216 49463396 49580932 
3164.403 49697420 49814464 49933248 50054220 50176972 50300468 50423588 
3167.778 50545628 50666212 50785376 50902864 51018740 51132896 51245328 
3171.153 51356112 51466028 51575752 51685984 51797332 51909488 52021860 
3174.529 52133144 52241948 52346892 52447008 52542204 52632820 52720464 
3177.904 52806780 52893900 52983392 53076276 53172356 53270448 53369012 
3181.279 53466024 53560472 53651904 53740500 53827356 53913256 53998608 
3184.654 54083372 54167372 54250372 54332372 54413824 54495404 54577604 
3188.030 54660456 54744188 54828424 54913204 54998788 55085860 55174716 
3191.405 55265320 55356320 55445796 55531488 55611544 55685252 55753472 
3194.780 55818048 55881880 55947568 56016960 56090740 56168596 56249416 
3198.155 56331756 56413624 56493280 56569364 56640744 56707224 56769416 
3201.531 56828668 56886904 56945868 57006580 57068888 57131956 57193868 
3204.906 57253476 57310412 57365084 57418744 57472944 57528624 57585856 
3208.281 57643932 57702244 57759728 57816616 57872868 57929052 57985396 
3211.656 58041744 58097800 58153252 58208528 58264376 58321936 58382004 
3215.031 58444204 58507248 58569128 58627376 58680392 58727692 58770404 
3218.407 58810504 58850608 58892800 58938568 58988740 59043396 59102544 
3221.782 59166064 59233464 59303876 59376236 59448840 59519668 59587388 
3225.157 59651440 59711880 59769860 59826556 59883640 59941912 60002016 
3228.532 60064180 60128144 60193492 60259760 60326300 60392512 60458356 
3231.908 60523328 60587816 60652088 60716632 60781648 60847204 60913152 
3235.283 60979452 61046072 61113232 61181356 61250860 61321528 61392660 
3238.658 61463656 61533936 61603344 61672464 61742016 61812984 61885388 
3242.033 61958716 62031560 62102504 62170476 62235820 62299380 62363220 
3245.409 62429472 62499104 62572612 62649308 62728128 62807992 62888332 
3248.784 62969148 63050472 63132620 63215204 63297300 63378228 63457028 
3252.159 63533308 63606992 63678192 63746756 63812540 63875212 63934676 
3255.534 63991228 64045632 64098968 64152584 64207472 64263752 64321152 
3258.910 64378836 64435520 64490096 64542072 64590624 64635688 64677604 
3262.285 64716636 64753636 64789676 64825528 64861880 64898504 64934828 
3265.660 64969340 65001012 65028720 65052464 65072632 65090536 65107124 
3269.035 65123560 65139688 65155512 65170064 65183156 65194556 65204560 
3272.411 65213880 65223196 65233244 65244184 65255852 65267900 65279880 
3275.786 65291196 65301792 65311760 65322004 65333292 65346844 65363720 
3279.161 65384364 65408588 65435828 65465452 65496580 65528908 65562928 
3282.536 65599112 65637960 65679736 65723836 65769708 65816672 65865016 
3285.912 65915652 65970340 66030592 66097520 66170604 66248400 66328952 
3289.287 66410372 66492072 66574372 66658892 66747748 66842312 66943152 
3292.662 67050204 67162808 67280552 67403360 67531976 67666736 67807936 
3296.037 67955144 68106864 68262320 68420544 68581896 68747064 68917736 
3299.413 69095120 69279416 69470552 69667264 69868808 70074224 70283400 
3302.788 70496608 70714608 70937904 71166888 71401784 71642816 71889896 
3306.163 72143096 72401992 72665832 72933360 73203368 73475272 73748992 
3309.538 74025512 74306144 74592112 74884056 75181992 75485528 75793656 
3312.914 76106464 76424400 76748096 77078376 77415312 77758264 78105608 
3316.289 78455808 78807528 79159920 79513208 79867248 80222504 80578608 
3319.664 80935200 81291368 81646744 82000736 82353136 82703656 83051296 
3323.039 83395632 83736096 84072944 84407184 84740200 85073144 85406424 
3326.415 85738784 86067728 86390416 86704520 87008408 87302056 87586008 
3329.790 87860456 88124768 88377096 88615184 88836816 89040760 89227032 
3333.165 89396592 89550208 89687904 89808824 89911032 89993072 90054224 
3336.540 90094872 90116440 90120232 90106696 90075064 90023528 89949664 
3339.916 89851808 89729336 89582336 89411816 89218488 89002800 88764784 
3343.291 88504184 88221424 87916600 87590272 87242304 86872112 86479120 
3346.666 86062192 85622184 85160768 84681360 84187640 83683632 83171536 
3350.041 82652712 82126864 81593648 81052944 80505656 79953200 79397472 
3353.417 78839776 78281584 77723824 77167648 76614512 76066352 75524872 
3356.792 74991592 74467336 73952120 73446192 72949904 72464752 71992416 
3360.167 71535056 71093784 70668400 70257384 69858344 69469120 69088712 
3363.542 68717136 68355696 68005832 67668520 67343968 67031220 66729432 
3366.917 66437788 66156016 65884688 65623856 65373348 65131836 64897156 
3370.293 64666452 64437404 64207824 63976176 63741348 63502476 63258172 
3373.668 63007332 62749260 62483644 62210776 61931236 61645504 61353316 
3377.043 61053964 60745904 60427888 60098692 59758416 59407124 59045068 
3380.418 58672240 58287756 57889904 57477064 57047576 56601144 56138584 
3383.794 55662236 55175316 54681876 54185952 53691192 53200296 52714780 
3387.169 52235072 51760112 51288728 50819424 50351068 49883516 49417204 
3390.544 48953588 48493980 48040080 47593124 47153940 46722948 46300196 
3393.919 45885260 45477380 45075352 44677196 44281560 43886984 43493024 
3397.295 43100040 42709352 42322080 41939464 41561516 41187692 40816884 
3400.670 40447916 40080388 39714188 39350072 38988840 38630328 38274072 
3404.045 37919336 37564884 37210400 36856532 36504424 36156388 35813736 
3407.420 35477832 35148576 34825460 34507320 34193140 33882052 33574016 
3410.796 33268954 32966926 32667648 32370966 32076702 31785198 31497244 
3414.171 31214034 30937664 30669576 30411214 30163020 29924270 29693312 
3417.546 29467868 29245376 29023176 28799848 28574762 28348730 28123700 
3420.921 27901930 27685854 27476840 27275088 27079214 26886952 26695692 
3424.297 26502930 26307438 26109112 25909226 25710380 25514858 25325570 
3427.672 25143632 24969422 24802156 24639936 24480650 24322368 24163968 
3431.047 24005312 23847240 23691182 23538646 23390498 23246982 23107354 
3434.422 22970358 22834626 22698972 22562454 22424930 22286544 22147608 
3437.798 22008510 21869838 21732082 21595624 21460842 21328228 21197880 
3441.173 21069448 20942620 20816664 20690742 20564268 20436720 20307124 
3444.548 20175034 20039826 19901122 19759274 19615634 19472456 19332304 
3447.923 19197776 19070592 18950956 18837998 18729912 18624448 18519976 
3451.299 18415424 18310694 18205710 18100544 17994748 17887736 17778540 
3454.674 17666888 17553020 17437596 17322204 17208254 17096472 16987370 
3458.049 16880638 16775863 16672455 16570002 16468192 16366886 16265469 
3461.424 16163282 16059985 15954994 15848449 15740864 15633168 15526425 
3464.800 15421392 15318478 15218024 15119789 15023669 14929114 14835744 
3468.175 14742943 14650334 14557402 14464146 14370911 14278072 14186246 
3471.550 14095877 14006964 13919164 13831998 13745123 13658709 13573407 
3474.925 13490172 13410063 13333590 13260820 13191034 13123479 13057198 
3478.301 12991610 12926373 12861146 12795417 12729185 12661532 12592626 
3481.676 12523049 12453961 12386930 12323284 12263907 12208356 12155877 
3485.051 12104836 12053904 12002739 11951444 11901245 11852957 11807537 
3488.426 11765116 11725763 11689000 11654555 11622972 11594521 11569748 
3491.802 11548582 11530684 11515305 11501559 11488835 11477438 11467707 
3495.177 11460699 11456788 11456720 11460734 11469137 11482609 11502206 
3498.552 11528813 11563214 11605343 11654112 11707279 11762529 11817580 
3501.927 11871345 11924368 11977806 12034180 12096149 12165793 12244753 
3505.302 12333374 12431390 12537851 12651604 12770881 12894014 13019913 
3508.678 13148239 13279370 13414642 13556109 13705214 13862546 14027223 
3512.053 14197133 14369575 14541127 14709729 14873837 15033307 15188273 
3515.428 15339484 15486867 15630661 15770514 15906325 16038187 16165655 
3518.803 16288413 16404873 16512519 16608041 16687950 16748795 16788020 
3522.179 16804174 16797078 16767839 16718147 16650179 16565768 16466161 
3525.554 16351542 16221646 16075525 15912648 15732823 15537346 15328466 
3528.929 15108743 14881277 14648312 14411635 14172382 13931687 13690646 
3532.304 13450526 13212109 12975769 12740547 12504906 12267076 12026345 
3535.680 11782921 11538919 11297230 11060808 10831818 10611165 10398295 
3539.055 10192618 9993582 9801415 9617158 9441717 9275383 9116997 8963675 
3542.912 8812098 8658275 8499235 8333431 8160972 7983552 7804214 7626940 
3546.770 7456345 7296262 7150385 7020553 6906716 6805799 6713622 6624559 
3550.627 6532991 6435390 6330548 6220320 6108373 5999243 5896455 5801750 
3554.485 5714888 5633817 5556654 5481182 5406026 5330446 5254545 5178120 
3558.342 5101138 5023735 4945876 4868366 4792378 4718915 4649047 4583311 
3562.199 4521668 4462746 4405003 4346230 4283919 4215426 4138013 4050012 
3566.057 3951094 3843408 3731102 3620463 3517100 3425150 3346442 3279533 
3569.914 3220946 3167173 3114842 3061649 3007095 2951280 2894772 2838005 
3573.772 2780744 2722258 2662112 2600475 2537780 2475194 2414083 2354913 
3577.629 2298016 2242859 2188674 2135362 2082788 2032185 1984617 1941082 
3581.487 1902043 1867035 1835123 1805177 1775766 1745358 1712425 1674870 
3585.344 1630169 1576027 1510986 1435449 1352714 1268432 1189682 1122506 
3589.201 1070886 1035246 1013160 999843 989548 977559 959793 934456 901385 
3593.541 862506 821141 780842 744862 716119 695476 682932 677688 677821 
3597.881 682268 690100 701516 717414 738423 765673 798568 835947 875322 
3602.220 914235 950030 980481 1003994 1018939 1023124 1013924 988319 943123 
3606.560 876384 788543 682832 565402 444687 329576 226463 138721 65974 4771 
3611.382 -49333 -100649 -151992 -204090 -255686 -304196 -347205 -382463 
3615.239 -409476 -429867 -446351 -462801 -483653 -512446 -550702 -597459 
3619.096 -649339 -701113 -747291 -784402 -811489 -829976 -842046 -850545 
3622.954 -857391 -862384 -865129 -864699 -861160 -856233 -853819 -859044 
3626.811 -877893 -915488 -973049 -1047229 -1129328 -1207348 -1270487 
3630.187 -1313069 -1335268 -1342039 -1339496 -1333418 -1327571 -1324433 
3633.562 -1323046 -1322319 -1319643 -1313433 -1302895 -1289582 -1275343 
3636.937 -1263417 -1255884 -1254067 -1257569 -1265267 -1275277 -1285816 
3640.312 -1295991 -1305075 -1312343 -1317364 -1318388 -1314358 -1304249 
3643.688 -1288458 -1268901 -1249111 -1233252 -1225719 -1229089 -1244717 
3647.063 -1271973 -1309039 -1353898 -1404663 -1459584 -1516610 -1571946 
3650.438 -1620804 -1657577 -1678404 -1682134 -1670945 -1649259 -1623742 
3653.813 -1600469 -1584854 -1579902 -1585812 -1599710 -1616051 -1628991 
3657.188 -1633909 -1628595 -1613773 -1592480 -1568611 -1545996 -1527836 
3660.564 -1515290 -1508290 -1504889 -1502412 -1498846 -1492506 -1482963 
3663.939 -1470382 -1454531 -1434750 -1409485 -1376655 -1335103 -1284593 
3667.314 -1226413 -1160921 -1086694 -996389 -876438 -708655 -474452 -163055 
3671.172 226298 685753 1203969 1768347 2364508 2974366 3561730 4069377 
3675.029 4425488 4557762 4427697 4046701 3468334 2763504 2000162 1237960 
3678.886 521776 -112574 -639182 -1047725 -1342634 -1541836 -1668865 -1748174 
3682.744 -1798035 -1829117 -1846208 -1851256 -1846868 -1837795 -1831460 
3686.119 -1835452 -1856601 -1897576 -1956755 -2027470 -2100777 -2168270 
3689.494 -2224314 -2267727 -2299764 -2323197 -2340301 -2351638 -2357537 
3692.870 -2357801 -2352462 -2342114 -2327976 -2311497 -2294457 -2277846 
3696.245 -2263474 -2252136 -2244290 -2240401 -2240763 -2245477 -2255432 
3699.620 -2271023 -2292447 -2318979 -2348178 -2376716 -2400080 -2414743 
3702.995 -2418499 -2411514 -2395532 -2373817 -2349661 -2325867 -2304510 
3706.371 -2285954 -2270825 -2258728 -2249960 -2244982 -2244752 -2249828 
3709.746 -2261299 -2279329 -2303488 -2332524 -2364392 -2396224 -2424232 
3713.121 -2445122 -2456028 -2456159 -2445781 -2427362 -2404034 -2380209 
3716.496 -2359745 -2346003 -2340565 -2343630 -2353780 -2368972 -2386536 
3719.872 -2404561 -2420970 -2434414 -2443936 -2448680 -2448219 -2443771 
3723.247 -2436852 -2429900 -2425781 -2426736 -2433227 -2444265 -2456719 
3726.622 -2466175 -2468646 -2461233 -2443376 -2417214 -2386339 -2355033 
3729.997 -2327416 -2306356 -2292777 -2285756 -2283185 -2283152 -2284668 
3733.373 -2289513 -2300785 -2321549 -2353286 -2393489 -2436160 -2473324 
3736.748 -2497012 -2503436 -2492696 -2468745 -2436390 -2400442 -2364293 
3740.123 -2329755 -2297918 -2270726 -2251146 -2244290 -2255629 -2289250 
3743.498 -2344157 -2411316 -2475071 -2518128 -2530284 -2512495 -2474478 
3746.874 -2428549 -2386075 -2355527 -2341488 -2343597 -2357307 -2376651 
3750.249 -2395236 -2408976 -2416259 -2417741 -2414084 -2405549 -2392402 
3753.624 -2375102 -2354934 -2334435 -2316144 -2302433 -2294358 -2291689 
3756.999 -2292777 -2295611 -2298676 -2300950 -2302928 -2304609 -2306257 
3760.375 -2306553 -2303719 -2296105 -2283383 -2266606 -2248411 -2232193 
3763.750 -2220457 -2214886 -2214952 -2218183 -2221743 -2222929 -2221116 
3767.125 -2217325 -2214589 -2215677 -2223127 -2237862 -2258761 -2282922 
3770.500 -2306619 -2326690 -2340829 -2348343 -2349463 -2345278 -2336676 
3773.875 -2324647 -2310080 -2293370 -2275209 -2255926 -2237038 -2219996 
3777.251 -2206447 -2198304 -2196722 -2201502 -2211655 -2224677 -2237697 
3780.626 -2249037 -2257377 -2263408 -2268155 -2272671 -2277615 -2282427 
3784.001 -2285921 -2286646 -2283811 -2277483 -2269605 -2261761 -2256618 
3787.376 -2254871 -2256717 -2261563 -2268155 -2275505 -2283284 -2290964 
3790.752 -2298478 -2304971 -2309091 -2309091 -2303587 -2292612 -2277780 
3794.127 -2262189 -2249465 -2242609 -2242708 -2248576 -2256618 -2262486 
3797.502 -2263936 -2260376 -2255003 -2253058 -2260574 -2281999 -2317891 
3800.877 -2363304 -2408779 -2442288 -2455006 -2444199 -2414084 -2373289 
3804.253 -2331535 -2298577 -2280614 -2280911 -2297556 -2324285 -2352363 
3807.628 -2372531 -2380111 -2374443 -2359053 -2338094 -2316243 -2296270 
3811.003 -2278670 -2262650 -2246762 -2229918 -2212512 -2197183 -2186831 
3814.378 -2185183 -2194150 -2212611 -2236016 -2257442 -2270660 -2273396 
3817.754 -2266804 -2256190 -2248773 -2251476 -2269078 -2302433 -2347354 
3821.129 -2394247 -2431481 -2450328 -2446868 -2423409 -2385877 -2341620 
3824.504 -2297984 -2260013 -2231269 -2213073 -2204502 -2202952 -2205194 
3827.879 -2209084 -2212480 -2214952 -2216996 -2219666 -2223589 -2229259 
3831.255 -2235951 -2242642 -2247488 -2249004 -2245938 -2238653 -2228039 
3834.630 -2216040 -2205359 -2198667 -2197546 -2203084 -2214424 -2229885 
3838.005 -2246466 -2261464 -2272638 -2278999 -2281010 -2279494 -2275373 
3841.380 -2270100 -2264167 -2258563 -2253256 -2249004 -2245081 -2241686 
3844.756 -2237862 -2233215 -2227050 -2218710 -2207370 -2192996 -2175029 
3848.131 -2153632 -2129233 -2103053 -2077431 -2055699 -2042673 -2043761 
3851.506 -2064570 -2109186 -2176974 -2261365 -2348705 -2423145 -2472830 
3854.881 -2493718 -2489237 -2467197 -2435797 -2401299 -2368247 -2338917 
3858.257 -2313771 -2292710 -2274549 -2258431 -2243730 -2230050 -2217556 
3861.632 -2206842 -2198865 -2194447 -2194711 -2199557 -2208029 -2217886 
3865.007 -2225501 -2227676 -2222105 -2208919 -2190128 -2170018 -2154225 
3868.382 -2147499 -2153533 -2172194 -2199689 -2228797 -2253124 -2267891 
3871.758 -2272572 -2269737 -2263672 -2258464 -2256981 -2259651 -2264793 
3875.133 -2269111 -2269440 -2263507 -2251410 -2234665 -2216172 -2199326 
3878.508 -2187326 -2182018 -2184260 -2192271 -2203315 -2213073 -2218644 
3881.883 -2218281 -2212941 -2205721 -2200974 -2203710 -2217227 -2242148 
3885.259 -2275011 -2308366 -2334007 -2344421 -2336578 -2312321 -2277120 
3888.634 -2237928 -2202392 -2176414 -2163160 -2162929 -2172293 -2186106 
3892.009 -2198766 -2206084 -2206348 -2199590 -2187227 -2170743 -2151752 
3895.384 -2130915 -2109120 -2087456 -2066846 -2048939 -2035517 -2027668 
3898.760 -2026117 -2030965 -2041024 -2055534 -2073441 -2093325 -2114890 
3902.135 -2137377 -2159270 -2179249 -2195469 -2206084 -2210304 -2208392 
3905.510 -2201403 -2191315 -2180337 -2169721 -2160457 -2152577 -2145455 
3908.885 -2138762 -2132102 -2125211 -2118649 -2112747 -2107537 -2102954 
3912.260 -2098206 -2092534 -2085642 -2077959 -2070506 -2064867 -2063053 
3915.636 -2066120 -2073837 -2085081 -2097183 -2107339 -2113406 -2113967 
3919.011 -2109186 -2099854 -2087390 -2073639 -2060085 -2048214 -2039474 
3922.386 -2035286 -2036836 -2044586 -2057975 -2074595 -2091775 -2105889 
3925.761 -2114231 -2115319 -2109647 -2099458 -2086631 -2074397 -2064372 
3929.137 -2057645 -2054248 -2053424 -2054215 -2055897 -2057810 -2059756 
3932.512 -2060943 -2061371 -2060349 -2058008 -2054512 -2050489 -2046367 
3935.887 -2042574 -2038847 -2034989 -2030207 -2024073 -2016652 -2008506 
3939.262 -2000887 -1995115 -1992774 -1994753 -2001547 -2012563 -2026777 
3942.638 -2042310 -2057348 -2069781 -2077563 -2079970 -2077101 -2069814 
3946.013 -2060382 -2051214 -2044421 -2041519 -2042970 -2047620 -2053688 
3949.388 -2058898 -2061536 -2060910 -2057183 -2051181 -2044586 -2038551 
3952.763 -2033802 -2030933 -2029613 -2029283 -2029053 -2028327 -2025656 
3956.139 -2020445 -2012431 -2001547 -1989278 -1977173 -1966750 -1959328 
3959.514 -1955370 -1954380 -1954842 -1955733 -1955568 -1953754 -1951247 
3962.889 -1948575 -1947025 -1947322 -1949400 -1952467 -1955832 -1958570 
3966.264 -1960153 -1960516 -1959955 -1958603 -1956755 -1954183 -1950455 
3969.640 -1945211 -1937855 -1928255 -1916545 -1903052 -1888372 -1873526 
3973.015 -1859537 -1847693 -1839379 -1835353 -1835881 -1840104 -1846604 
3976.390 -1853467 -1858878 -1861517 -1861055 -1857492 -1851949 -1845219 
3979.765 -1837795 -1830041 -1822155 -1814005 -1806020 -1799025 -1794108 
3983.141 -1792558 -1795527 -1802589 -1813412 -1826247 -1839544 -1851454 
3986.516 -1861055 -1867753 -1871811 -1874021 -1875275 -1876198 -1877551 
3989.891 -1878937 -1880421 -1881609 -1882137 -1881972 -1881609 -1881312 
3993.266 -1881312 -1882236 -1883555 -1885304 -1886722 -1887085 -1885832 
3996.642 -1882962 -1878145 -1872107 -1865278 -1858317 -1851619 -1845977 
4000.017 -1841193 -1837597 
##END=
