
##TITLE=Z326a_2_b
##JCAMP-DX=5.01  $$ Nicolet v. 1
##DATATYPE=INFRARED SPECTRUM
##ORIGIN=UniL
##OWNER=Nicolet
##LONGDATE=2011/09/15
##TIME=15:42:04
##SPECTROMETER/DATA SYSTEM=Nicolet iS5
##DATA PROCESSING=
Ratio against background
%Transmittance->Absorbance
Truncated
ElementMultiply or ElementDivide
##COMMENTS=
Number of sample scans: 32
Collection length: 51.15 sec
Sample gain: 2.0
Background collected on: Jeu Sep 15 15:37:39 2011 (GMT+02:00);
Number of background scans: 32
Background gain: 2.0
Sample spacing:  1.000
Number of scan points: 12415
Resolution points: 8192
Number of FFT points: 65536
Apodization: N-B fort;
Phase correction: Mertz;
Laser frequency: 15798.0 cm-1
Number of rejected sample scans: 0
Number of rejected background scans: 0
Bench serial number: ASB1000141;
##RESOLUTION=4.000
##XUNITS=1/CM
##YUNITS=ABSORBANCE
##FIRSTX=649.893372
##LASTX=4000.122314
##FIRSTY=0.127193
##MAXX=4000.122314
##MINX=649.893372
##MAXY=0.310160
##MINY=-0.003579
##XFACTOR=1.000000
##YFACTOR=1.000000E-009
##NPOINTS=6950
##DELTAX=0.482117
##ZPD=6100
##XYDATA=(X++(Y..Y))
649.893 127192688 126529024 125946704 125509280 125237880 125116200 
652.786 125106600 125177592 125320960 125555024 125910696 126412512 
655.679 127063008 127841864 128718360 129671496 130702776 131835792 
658.571 133100448 134512000 136061840 137719392 139453776 141253184 
661.464 143137120 145145808 147318624 149660816 152132704 154649600 
664.357 157114704 159445792 161575808 163460576 165058416 166312576 
667.250 167160992 167568560 167568032 167250208 166718192 166028240 
670.142 165176960 164117584 162798816 161196640 159336080 157295856 
673.035 155180432 153100288 151130080 149296336 147590528 145989248 
675.928 144476896 143054192 141734496 140528496 139434192 138433376 
678.820 137498272 136602848 135734880 134894096 134086800 133312808 
681.713 132558016 131794408 130992576 130132032 129213456 128258080 
684.606 127301600 126377416 125504240 124682968 123901248 123143360 
687.498 122398920 121668072 120957192 120272640 119612824 118967336 
690.391 118318856 117653784 116964968 116256456 115537888 114820432 
693.284 114111656 113414832 112734888 112084096 111484520 110968672 
696.177 110571120 110317152 110218824 110270760 110455392 110749600 
699.069 111133664 111595168 112127288 112725480 113381616 114080416 
701.962 114803040 115530584 116249568 116956032 117652528 118343832 
704.855 119029960 119703864 120351456 120958376 121515512 122023384 
707.747 122491912 122937160 123375288 123819280 124282120 124779240 
710.640 125333384 125976712 126743552 127660168 128734272 129946528 
713.533 131249312 132571144 133837192 134978736 135946992 136721712 
716.425 137308048 137734912 138045552 138299840 138568896 138924208 
719.318 139437744 140162992 141118768 142279136 143564704 144853168 
722.211 145981184 146783136 147116832 146883504 146057792 144691504 
725.104 142913968 140897840 138837216 136913904 135252944 133921784 
727.996 132926088 132228048 131765632 131475728 131311744 131241544 
730.889 131246432 131313368 131425992 131565120 131713000 131857648 
733.782 131998272 132143048 132304568 132491216 132703096 132930320 
736.674 133159520 133379552 133586984 133786424 133987472 134198400 
739.567 134421184 134651392 134880832 135103760 135319504 135533168 
742.460 135751008 135976272 136205120 136428560 136635936 136822176 
745.352 136990064 137149808 137313104 137486544 137666880 137842432 
748.245 137998192 138122864 138214512 138281424 138336864 138391824 
751.138 138450480 138508592 138557904 138592048 138611968 138626112 
754.031 138647952 138689168 138755072 138843104 138945744 139055488 
756.923 139169296 139288720 139418416 139561152 139714592 139871952 
759.816 140023696 140162848 140287376 140399792 140504512 140603664 
762.709 140695168 140774672 140839968 140897392 140964576 141072688 
765.601 141260800 141565776 142017456 142626512 143379088 144228672 
768.494 145098368 145890112 146488832 146796416 146753632 146362816 
771.387 145697392 144891984 144117376 143519232 143186912 143118416 
774.279 143224336 143346000 143302064 142950976 142211184 141082224 
777.172 139622512 137920176 136053136 134063032 131953848 129700664 
780.065 127271312 124643504 121818848 118823872 115707872 112530944 
782.958 109357944 106255736 103280896 100480888 97890480 95527216 93396112 
786.332 91490888 89799904 88309728 87008976 85889496 84944952 84169496 
789.707 83557176 83101160 82796264 82640568 82636640 82792216 83117128 
793.082 83621200 84310048 85181736 86223848 87414120 88719512 90096096 
796.457 91496328 92869040 94167080 95359216 96437280 97427336 98388648 
799.832 99414744 100614784 102082480 103876064 105980336 108293496 110609336 
803.206 112645896 114097872 114668056 114159792 112519480 109857288 
806.099 106421832 102546704 98587144 94813264 91382584 88318824 85537048 
809.474 82890448 80229720 77461920 74564496 71589872 68631136 65799160 
812.849 63186192 60846404 58801248 57042132 55544476 54276500 53206360 
816.224 52305068 51543292 50895524 50339568 49858572 49443608 49091908 
819.598 48804520 48582428 48423856 48323332 48274528 48272008 48314224 
822.973 48404300 48548412 48753252 49023500 49360444 49761584 50221788 
826.348 50732456 51281944 51855608 52433396 52994508 53520480 54000636 
829.723 54438388 54855300 55293092 55806216 56459620 57320280 58440528 
833.098 59851236 61544396 63464388 65494648 67459088 69152576 70344912 
836.473 70836752 70506360 69328312 67393024 64879112 62033276 59104708 
839.847 56304144 53791876 51650568 49900128 48514620 47444008 46631156 
843.222 46021836 45574296 45254620 45035584 44897224 44823196 44802292 
846.597 44827604 44894396 44997912 45132004 45288124 45456996 45631820 
849.972 45809148 45990412 46180560 46386168 46612712 46863584 47140792 
853.347 47445820 47780612 48148644 48553708 48999428 49488684 50023732 
856.721 50608392 51250100 51959452 52752188 53646352 54660264 55813488 
860.096 57126704 58621572 60322648 62252112 64421260 66819816 69404304 
863.471 72091456 74751992 77233744 79377656 81039368 82128224 82617128 
866.846 82555128 82054216 81281024 80432672 79693656 79233720 79183304 
870.221 79620816 80583952 82068104 84034704 86410424 89090784 91945776 
873.596 94803248 97469472 99742040 101415760 102329584 102386416 101569088 
876.970 99944984 97653728 94888536 91848288 88727392 85690064 82845216 
880.345 80256344 77939608 75876312 74027984 72351696 70816000 69403808 
883.720 68117024 66969632 65982068 65171144 64544648 64099932 63825892 
887.095 63707544 63730264 63884044 64164108 64568980 65098732 65752476 
890.470 66528568 67425808 68446216 69596624 70889016 72340816 73972312 
893.844 75802688 77848744 80119488 82610752 85295312 88113728 90970200 
897.219 93717800 96176760 98153904 99455816 99941232 99539608 98267528 
900.594 96224720 93579424 90547232 87341472 84166448 81193216 78537384 
903.969 76273536 74432880 73014616 71997152 71348904 71037824 71033768 
907.344 71313608 71861976 72669200 73731472 75048336 76622104 78455328 
910.719 80548208 82893744 85473064 88248496 91157328 94118472 97033248 
914.093 99796656 102323544 104554696 106474288 108110792 109536232 110852664 
917.468 112166536 113579768 115159080 116918992 118808936 120710896 
920.361 122457120 123836600 124649992 124749384 124071408 122671752 
923.254 120727208 118533544 116437504 114812152 114004416 114253832 
926.146 115678640 118234808 121727272 125806080 130012768 133877320 
929.039 136932720 138817328 139326896 138407104 136149680 132738080 
931.932 128417344 123438816 118036304 112436840 106837664 101414592 96330344 
935.306 91712192 87657120 84230760 81461088 79350960 77884344 77035088 
938.681 76768816 77039872 77788384 78924296 80324152 81843888 83313568 
942.056 84568584 85477496 85948456 85952008 85517920 84729840 83702672 
945.431 82561144 81428832 80400664 79541256 78884600 78435840 78180848 
948.806 78093744 78146456 78310512 78559144 78869536 79219088 79586984 
952.181 79956224 80314464 80656640 80985464 81309872 81642032 81992776 
955.555 82371208 82781472 83224752 83700296 84207112 84744256 85310472 
958.930 85904160 86522144 87161184 87818600 88493552 89187328 89902512 
962.305 90641408 91404632 92190664 92996672 93820224 94661656 95523416 
965.680 96410432 97326832 98275168 99254560 100262376 101295168 102351640 
969.055 103433112 104543280 105686416 106865680 108082320 109336424 
971.947 110628952 111962784 113342856 114775376 116265584 117815344 
974.840 119423776 121087920 122806000 124579712 126414688 128319472 
977.733 130303800 132375744 134541936 136809600 139189472 141697216 
980.625 144355552 147189648 150223456 153475424 156953824 160654560 
983.518 164557888 168629088 172808240 177003008 181093920 184920544 
986.411 188295888 191038960 192980208 194000832 194052544 193162672 
989.304 191433904 189024144 186145120 183026016 179890240 176954752 
992.196 174390320 172319536 170817088 169905712 169570496 169771072 
995.089 170459488 171587200 173111904 175001504 177226336 179757200 
997.982 182565280 185617568 188880080 192318432 195889904 199539264 
1000.874 203195440 206759840 210117760 213152672 215752464 217838288 
1003.767 219373856 220370848 220886496 221017216 220894608 220660896 
1006.660 220467200 220460912 220759936 221454736 222597840 224202832 
1009.552 226254336 228717632 231553632 234721680 238185072 241910480 
1012.445 245858464 249985136 254244240 258586848 262968480 267347184 
1015.338 271668512 275856448 279797088 283325760 286252384 288377344 
1018.231 289525792 289598944 288591360 286611200 283857152 280617920 
1021.123 277235616 274043552 271370208 269484448 268562720 268697696 
1024.016 269883904 272037760 275008352 278612032 282659616 286951904 
1026.909 291306464 295551040 299508896 303018496 305933664 308134496 
1029.802 309550688 310159936 309984736 309075392 307496640 305315360 
1032.695 302591008 299381408 295740768 291714944 287339968 282634432 
1035.588 277600512 272230624 266522832 260493936 254191696 247692544 
1038.481 241092656 234502784 228026224 221755376 215771792 210133664 
1041.374 204879040 200017472 195524128 191336496 187356736 183474352 
1044.267 179575488 175572064 171424320 167145952 162805184 158504752 
1047.160 154375488 150547424 147130128 144214384 141856208 140078496 
1050.053 138876352 138220976 138067504 138358336 139036416 140045152 
1052.947 141330128 142842368 144528288 146322896 148150400 149913616 
1055.840 151498928 152794736 153689760 154093488 153949536 153237424 
1058.733 151980912 150245040 148141504 145815216 143429520 141166512 
1061.626 139194112 137654864 136665520 136298256 136586736 137527568 
1064.519 139084928 141191728 143748752 146637760 149712448 152807088 
1067.412 155761968 158419520 160647664 162355344 163485056 164016112 
1070.305 163954480 163325616 162166672 160520768 158439376 155976592 
1073.198 153189280 150142208 146904192 143553952 140187568 136908496 
1076.091 133831232 131076128 128748624 126940352 125718784 125116496 
1078.984 125132768 125727472 126825856 128309144 130021528 131789384 
1081.877 133414376 134710032 135531792 135788464 135471328 134652832 
1084.770 133484080 132161512 130900296 129920784 129402624 129481272 
1087.663 130238864 131693792 133804504 136469120 139545008 142845872 
1090.556 146161056 149292176 152049888 154281856 155887312 156807120 
1093.449 157026304 156564768 155470624 153811600 151665776 149122816 
1096.343 146271792 143198560 139990304 136725888 133478072 130312648 
1099.236 127276064 124393560 121662728 119054288 116517008 113988776 
1102.129 111417880 108772120 106053760 103299720 100581496 97992152 95626848 
1105.504 93581480 91934064 90738376 90028176 89814120 90088800 90829448 
1108.879 92002440 93565288 95463840 97638576 100020440 102527032 105070200 
1112.254 107547992 109847056 111858640 113477216 114616200 115222536 
1115.147 115276160 114793848 113820032 112423448 110684528 108683216 
1118.041 106500536 104205896 101852976 99483400 97122208 94782560 92472016 
1121.416 90197184 87968736 85806360 83735256 81786448 79992712 78381624 
1124.791 76976016 75792272 74839928 74125760 73655584 73434456 73468248 
1128.166 73759864 74307208 75099384 76114872 77321160 78671200 80107256 
1131.542 81562944 82961440 84229032 85301400 86131920 86705208 87039784 
1134.917 87189448 87229144 87248384 87334832 87553584 87943744 88508536 
1138.292 89216984 90005672 90786928 91466632 91943320 92127824 91953104 
1141.667 91373264 90370016 88948640 87134216 84966112 82493104 79774912 
1145.042 76873968 73856000 70789832 67737408 64756168 61896196 59194576 
1148.418 56678684 54365528 52262164 50369524 48683672 47198668 45906692 
1151.793 44798696 43865796 43097188 42482640 42013624 41683136 41487072 
1155.168 41423680 41491920 41691268 42020996 42480452 43070000 43791904 
1158.543 44650200 45649412 46793132 48082756 49515644 51084628 52777032 
1161.919 54575876 56455168 58380716 60310844 62192348 63966692 65575184 
1165.294 66958420 68065392 68856584 69303824 69394200 69130512 68530600 
1168.669 67624336 66451916 65061128 63499288 61814060 60050944 58248952 
1172.044 56443960 54668420 52948580 51309092 49770616 48349148 47057588 
1175.420 45904336 44893036 44025024 43299472 42714908 42270256 41964572 
1178.795 41797856 41769764 41880820 42131860 42525360 43064624 43754380 
1182.170 44599308 45603004 46767300 48091864 49572908 51201744 52961232 
1185.545 54824628 56748608 58673980 60531556 62239496 63717520 64897464 
1188.921 65724568 66169672 66228792 65924524 65300712 64417108 63347176 
1192.296 62163824 60938544 59738684 58617892 57620588 56780176 56116752 
1195.671 55640620 55352292 55243380 55296364 55484044 55772232 56115280 
1199.046 56460336 56752420 56931852 56944096 56744980 56301540 55600548 
1202.422 54649292 53477116 52129740 50665616 49151160 47647220 46208052 
1205.797 44876468 43678712 42628492 41728620 40974300 40356312 39863364 
1209.172 39483844 39204808 39013124 38897076 38846200 38854168 38918672 
1212.547 39041472 39226536 39477752 39797700 40185924 40639108 41150788 
1215.923 41712968 42314956 42943276 43583128 44217136 44827828 45400376 
1219.298 45922640 46387200 46790952 47134072 47419872 47653616 47844124 
1222.673 48003224 48146684 48294116 48466568 48683416 48960820 49308064 
1226.048 49726660 50210408 50747464 51321508 51912960 52502676 53072304 
1229.424 53606204 54094332 54532444 54923392 55276120 55605596 55932040 
1232.799 56278380 56673056 57148212 57738308 58482948 59421712 60590752 
1236.174 62023112 63742420 65762812 68088728 70715072 73627904 76802424 
1239.549 80205328 83791872 87505104 91284904 95064568 98776112 102357976 
1242.925 105748592 108890040 111730952 114222584 116323496 118002040 
1245.818 119233848 120002968 120301360 120127952 119491176 118409024 
1248.711 116910712 115031544 112808688 110277808 107466720 104398424 
1251.604 101096024 97586472 93909424 90120360 86284344 82479000 78786272 
1254.979 75279072 72024376 69072672 66452496 64172560 62219492 60562068 
1258.354 59151480 57928260 56828888 55784856 54735768 53633044 52442332 
1261.729 51150004 49760436 48294484 46782280 45259180 43760828 42315580 
1265.105 40946012 39667572 38488384 37412092 36438048 35562620 34779436 
1268.480 34080700 33459372 32909806 32428838 32016058 31672240 31398214 
1271.855 31193350 31055736 30982676 30971786 31021000 31129024 31293224 
1275.230 31508430 31766270 32053440 32352760 32644644 32907412 33118128 
1278.606 33257042 33306622 33256040 33102750 32853946 32525140 32136708 
1281.981 31712230 31271714 30829762 30396038 29975566 29572594 29193528 
1285.356 28847862 28547798 28307386 28138690 28050884 28050496 28141446 
1288.731 28327652 28613230 29002878 29499926 30104598 30812830 31614148 
1292.107 32491572 33422440 34374644 35309236 36182892 36947432 37560692 
1295.482 37992956 38232024 38288220 38192152 37991980 37740104 37489384 
1298.857 37286252 37163512 37143084 37235168 37438564 37740284 38114988 
1302.232 38527852 38932988 39281300 39528848 39638928 39590216 39377788 
1305.608 39011640 38513220 37911160 37239608 36532864 35823524 35143404 
1308.983 34517220 33963628 33494268 33112836 32819212 32610354 32484930 
1312.358 32442476 32484074 32610212 32819818 33109296 33475190 33914868 
1315.733 34428548 35018792 35689080 36440568 37269788 38167696 39120684 
1319.109 40113892 41131592 42159868 43184720 44189588 45154168 46052264 
1322.484 46851776 47520848 48029536 48356520 48495908 48460900 48286708 
1325.859 48024832 47744400 47519408 47415180 47485404 47757900 48232464 
1329.234 48882384 49663240 50524376 51416456 52304396 53169028 54005736 
1332.610 54821020 55627436 56439244 57268600 58124692 59011928 59928940 
1335.985 60867100 61809664 62734060 63611208 64409964 65102040 65662316 
1339.360 66072872 66324240 66415080 66352116 66147908 65821068 65392948 
1342.735 64887464 64330800 63747488 63158676 62581180 62024296 61491100 
1346.111 60979948 60485812 60002320 59520924 59031288 58519688 57970856 
1349.486 57372156 56716740 56009196 55267500 54524816 53825596 53218648 
1352.861 52756456 52485328 52440764 52645464 53101584 53788540 54658164 
1356.236 55643028 56658032 57609428 58414980 59005440 59334872 59385656 
1359.612 59166780 58713656 58080492 57344028 56595144 55926120 55428892 
1362.987 55172084 55187128 55463752 55950884 56569288 57218056 57796520 
1366.362 58211256 58381628 58257480 57822864 57101156 56148536 55046328 
1369.737 53885832 52746580 51694420 50774204 50009084 49410488 48983444 
1373.113 48732232 48662920 48779832 49080000 49548100 50156444 50870900 
1376.488 51655976 52484020 53338368 54212300 55109144 56039616 57021956 
1379.863 58078864 59238020 60526264 61959784 63531892 65198288 66878096 
1383.238 68446608 69752928 70649608 70997392 70698304 69717640 68105352 
1386.614 66005520 63631004 61238196 59048448 57206868 55775396 54739376 
1389.989 54040144 53597432 53333908 53178124 53065640 52943936 52767532 
1393.364 52502004 52130376 51655828 51100652 50496384 49874112 49253284 
1396.739 48640648 48036196 47442416 46871596 46350812 45915972 45600908 
1400.115 45429920 45410240 45534668 45788488 46156128 46625108 47186924 
1403.490 47836872 48571492 49385872 50273160 51223480 52225020 53265956 
1406.865 54335600 55426104 56532940 57652900 58783644 59922512 61065176 
1410.240 62207180 63345188 64476760 65599732 66709460 67794760 68838144 
1413.615 69817520 70710240 71502984 72195168 72801696 73348496 73868728 
1416.991 74396856 74962608 75590448 76296128 77080864 77930760 78815384 
1420.366 79694056 80521608 81258208 81876776 82365472 82735608 83020608 
1423.741 83275200 83557304 83912088 84359496 84890160 85474912 86077872 
1427.116 86672072 87242272 87787200 88316104 88844832 89393864 89985656 
1430.492 90648800 91415344 92313224 93362104 94564672 95907704 97364104 
1433.867 98906488 100517848 102193984 103947240 105797384 107760736 
1436.760 109832976 111988464 114190256 116397608 118572512 120672304 
1439.653 122648688 124433272 125940504 127085416 127783192 127966760 
1442.546 127596648 126659680 125174088 123187624 120783432 118069832 
1445.439 115164744 112197688 109287928 106541528 104054800 101899312 
1448.332 100114520 98700784 97624472 96831904 96270992 95911880 95752192 
1451.708 95812056 96115192 96669360 97447608 98391264 99404488 100369816 
1455.083 101168160 101686944 101864536 101725552 101404000 101090672 
1457.976 100953320 101096776 101548944 102298296 103322504 104599008 
1460.869 106101648 107786984 109592048 111416424 113119368 114545632 
1463.762 115536592 115980816 115854520 115233168 114261288 113090784 
1466.655 111850800 110622584 109445160 108335456 107291328 106289976 
1469.548 105279072 104169592 102840688 101154656 99010776 96394304 93409792 
1472.923 90251792 87133440 84211368 81552672 79162344 77024760 75136016 
1476.299 73515848 72193600 71182032 70463296 69984960 69678232 69471528 
1479.674 69312376 69175816 69061408 68986280 68973976 69049056 69233560 
1483.049 69551128 70034392 70722400 71658368 72877592 74394456 76187720 
1486.424 78189456 80292296 82341248 84144480 85501536 86203840 86080456 
1489.800 85043880 83117648 80447592 77254648 73786136 70242616 66747056 
1493.175 63364812 60110412 56983912 54004312 51217216 48698576 46537872 
1496.550 44805232 43530492 42696776 42261488 42172424 42384252 42863840 
1499.925 43581152 44503964 45596084 46812876 48106408 49431132 50731936 
1503.301 51945224 52991776 53755164 54088740 53829944 52847492 51123912 
1506.676 48809232 46190032 43553236 41082532 38835328 36788112 34896696 
1510.051 33131898 31487056 29978512 28630040 27455838 26456796 25618670 
1513.426 24920468 24340730 23862362 23472540 23158410 22907096 22707490 
1516.802 22552646 22443456 22386484 22387460 22445026 22547446 22673976 
1520.177 22804000 22926656 23051096 23203846 23416236 23706160 24068488 
1523.552 24482122 24921170 25368564 25820674 26289942 26797180 27363302 
1526.927 27998012 28697150 29447266 30234594 31051572 31897974 32780010 
1530.302 33705020 34677716 35700228 36772320 37893264 39062716 40279272 
1533.678 41536620 42819992 44109000 45380700 46615700 47793964 48897180 
1537.053 49909940 50812828 51588288 52220572 52700564 53025544 53200520 
1540.428 53241568 53170524 53012480 52789792 52515168 52188548 51799196 
1543.803 51334856 50791860 50185340 49548544 48923584 48345184 47825516 
1547.179 47354908 46908548 46461204 46000504 45537020 45100568 44730592 
1550.554 44456500 44286956 44211084 44208516 44261640 44362764 44517252 
1553.929 44736028 45026100 45382500 45785472 46203152 46600944 46942288 
1557.304 47194272 47338244 47384692 47386724 47423792 47571240 47861696 
1560.680 48281972 48800148 49382792 50006332 50655492 51325420 52019396 
1564.055 52744332 53508488 54315924 55162600 56037428 56923696 57802084 
1567.430 58656840 59475512 60251344 60983836 61679072 62346844 62994392 
1570.805 63626668 64242856 64838724 65405548 65931692 66402808 66796556 
1574.181 67086896 67247640 67262104 67137440 66909016 66633588 66359600 
1577.556 66107788 65864092 65591908 65245256 64782828 64180896 63434908 
1580.931 62560060 61580744 60523176 59405680 58236676 57021052 55766508 
1584.306 54486612 53200972 51927224 50675188 49445612 48234128 47038832 
1587.682 45867292 44736872 43670652 42689684 41805076 41016504 40315812 
1591.057 39694220 39145016 38664192 38245560 37874608 37526048 37169432 
1594.432 36774196 36321312 35808988 35251844 34673664 34096648 33536144 
1597.807 32996920 32478434 31981602 31512774 31084530 30711288 30403004 
1601.183 30161672 29981388 29854344 29774460 29740360 29752956 29809734 
1604.558 29898216 29995554 30069266 30085742 30019520 29857076 29599444 
1607.933 29258064 28848888 28385940 27879884 27341458 26785126 26232040 
1611.308 25708798 25238962 24835976 24498668 24212382 23953806 23698846 
1614.684 23430222 23140866 22836442 22532928 22252016 22013878 21831650 
1618.059 21710974 21650264 21643160 21677884 21738248 21805728 21861022 
1621.434 21891792 21897542 21892176 21899494 21943332 22037408 22179446 
1624.809 22355576 22548144 22744990 22941432 23139226 23341828 23549560 
1628.185 23757638 23958988 24148312 24326678 24500912 24680862 24872394 
1631.560 25073492 25272326 25450240 25586688 25663802 25672940 25617756 
1634.935 25515736 25392522 25273062 25174460 25100976 25047900 25006096 
1638.310 24965738 24916396 24847590 24751396 24624014 24469116 24297628 
1641.686 24124598 23962770 23817208 23682576 23543614 23379938 23171412 
1645.061 22906818 22590096 22242600 21897610 21590122 21345700 21173734 
1648.436 21070110 21021870 21013212 21024826 21031538 21002082 20895890 
1651.811 20673924 20321950 19880208 19444388 19111794 18928356 18874230 
1655.187 18897760 18945108 18979202 18982246 18951164 18893920 18821666 
1658.562 18743024 18659104 18564652 18450480 18309172 18138304 17942292 
1661.937 17730320 17514070 17304376 17108776 16932314 16777688 16645841 
1665.312 16534651 16437838 16344247 16238121 16102588 15924644 15700942 
1668.688 15440996 15165146 14898937 14662054 14462912 14298275 14158004 
1672.063 14029481 13899937 13758666 13595081 13401315 13175083 12924461 
1675.438 12668525 12430469 12229417 12070972 11947970 11843423 11738868 
1678.813 11621133 11486419 11341509 11199062 11071005 10959432 10853118 
1682.188 10728762 10559185 10324997 10031795 9715274 9428883 9214661 9081571 
1686.046 9009848 8967193 8925996 8867284 8783831 8677001 8553571 8421258 
1689.903 8286586 8155772 8034481 7928544 7842134 7775237 7721032 7664439 
1693.761 7585836 7465884 7295285 7084168 6863694 6672873 6536994 6455904 
1697.618 6406503 6355361 6267010 6117143 5903978 5654797 5417735 5234121 
1701.476 5119243 5059770 5030104 5004663 4966353 4906667 4823971 4722365 
1705.333 4608794 4492172 4379967 4278364 4191304 4119950 4062754 4015699 
1709.190 3973398 3930698 3884995 3837324 3791663 3752792 3723917 3705102 
1713.048 3692972 3682479 3668411 3648362 3621666 3588990 3550305 3504106 
1716.905 3448996 3386512 3323604 3271220 3239473 3233531 3250756 3282738 
1720.763 3318161 3347077 3363605 3367746 3364674 3361902 3366110 3380034 
1724.620 3402241 3428356 3453906 3476717 3496057 3512390 3525184 3531932 
1728.478 3529560 3515564 3490445 3457546 3421477 3384542 3343938 3290651 
1732.335 3211199 3094418 2939104 2761170 2589975 2456934 2377768 2348084 
1736.192 2349716 2361543 2366907 2355780 2326264 2283127 2235498 2192537 
1740.050 2159869 2139158 2128869 2127204 2133264 2146883 2168161 2195634 
1743.907 2226673 2258313 2288856 2318536 2348750 2380966 2415016 2447803 
1747.765 2474295 2489757 2491123 2478827 2456833 2430910 2406454 2387529 
1751.622 2375702 2371071 2373503 2382765 2397924 2416616 2434175 2445604 
1755.479 2445438 2431743 2407087 2378467 2354247 2340289 2336658 2338257 
1759.337 2337324 2325665 2299116 2259046 2212119 2167628 2133264 2112520 
1763.194 2103864 2103631 2106960 2110956 2114052 2115117 2113486 2107426 
1767.052 2096572 2081590 2065676 2053192 2047000 2046900 2048265 2043804 
1770.909 2025295 1989111 1938220 1883507 1838384 1812764 1809170 1822113 
1774.767 1842777 1862742 1877317 1886469 1892958 1900180 1908799 1916853 
1778.624 1920713 1916786 1904939 1888599 1873856 1866003 1867035 1874289 
1782.481 1882109 1885138 1880379 1868732 1854589 1843475 1838750 1841246 
1786.339 1848467 1857551 1866669 1875687 1885870 1897318 1908400 1914923 
1790.196 1911029 1892792 1860013 1817721 1774968 1740235 1718479 1708333 
1794.054 1705007 1702579 1697456 1689772 1682155 1677365 1676800 1679128 
1797.911 1680924 1678563 1670280 1657541 1643738 1633295 1628506 1629038 
1801.769 1632497 1636155 1638550 1640944 1645568 1654348 1667885 1684350 
1805.626 1700749 1714687 1725398 1734314 1743695 1755106 1767582 1778494 
1809.483 1783518 1779559 1766817 1748153 1728925 1713290 1703244 1697722 
1813.341 1693930 1688841 1682088 1675536 1673207 1678696 1693331 1715685 
1817.198 1742165 1768813 1793632 1816557 1839748 1865238 1893657 1923476 
1821.056 1951799 1976196 1994803 2008018 2016806 2022465 2025161 2025062 
1824.913 2022265 2018703 2017638 2022565 2035748 2055788 2078261 2096339 
1828.771 2104530 2100967 2089347 2077661 2075897 2089813 2119945 2161168 
1832.628 2206124 2248388 2284160 2313906 2340289 2366773 2394959 2424579 
1836.485 2454134 2482859 2511885 2544812 2585809 2637843 2701019 2772141 
1840.343 2845976 2917488 2983541 3043030 3097155 3148249 3198848 3251490 
1844.200 3308446 3372254 3444788 3526620 3615418 3706005 3790861 3861092 
1848.058 3910571 3936182 3939626 3925416 3899103 3864267 3821078 3767398 
1851.915 3700323 3619594 3528157 3432063 3337560 3249387 3168608 3093083 
1855.772 3019207 2944875 2870457 2798352 2731060 2669947 2613308 2557944 
1859.630 2501121 2442172 2384064 2331861 2290122 2260611 2241360 2226806 
1863.487 2211453 2191372 2166263 2138292 2110889 2085818 2061947 2036713 
1867.345 2007985 1976562 1947472 1928035 1924574 1939318 1968474 2004157 
1871.202 2037878 2064477 2082522 2094008 2102232 2109124 2113486 2112421 
1875.060 2101966 2080624 2049962 2014642 1980024 1949735 1924308 1901977 
1878.917 1879846 1856553 1833460 1813296 1799222 1791802 1789074 1786479 
1882.774 1780025 1767449 1750116 1731553 1715020 1701980 1690537 1676667 
1886.632 1656710 1629537 1597942 1567381 1544037 1531435 1529340 1534028 
1890.489 1540446 1545035 1546731 1546531 1546032 1545201 1542408 1536057 
1894.347 1525017 1511817 1501211 1499216 1509257 1530836 1558801 1585338 
1898.204 1604361 1613606 1615602 1616400 1622486 1637652 1660867 1687610 
1902.062 1712525 1732018 1745458 1754873 1762824 1770776 1777563 1780856 
1905.919 1778827 1771607 1762092 1754274 1750648 1750681 1750448 1744826 
1909.776 1730222 1706903 1679527 1655147 1640346 1637885 1646166 1660635 
1913.634 1675868 1688342 1696857 1701880 1703676 1700982 1691169 1671943 
1917.491 1644403 1613772 1588098 1574796 1576625 1589761 1605857 1614371 
1921.349 1608019 1585870 1554113 1522524 1499881 1490106 1490239 1493198 
1925.206 1491003 1479932 1461480 1441301 1425277 1416800 1414939 1415238 
1929.063 1413410 1407459 1399382 1393697 1394595 1403204 1416601 1429532 
1932.921 1437311 1438176 1434120 1428801 1425111 1422784 1418396 1407160 
1936.778 1386551 1358796 1330146 1308344 1298706 1300833 1309241 1316054 
1940.636 1314526 1303226 1286377 1271755 1265441 1269063 1277836 1284715 
1944.493 1283885 1274978 1262583 1255239 1259792 1278401 1307447 1339851 
1948.351 1369233 1393099 1412977 1433023 1456261 1480796 1500413 1507395 
1952.208 1496390 1467498 1426640 1382462 1341579 1306051 1271556 1230650 
1956.065 1177555 1111809 1039265 969954 912276 869976 840462 816892 792825 
1960.405 765839 739219 718940 710311 713630 724748 737659 748247 756711 
1964.745 767664 786651 815929 852546 887672 911778 918950 910781 893881 
1969.084 876317 862805 851583 835648 807066 762685 707092 651671 608734 
1973.424 586636 587034 604918 634284 672744 724748 798933 901418 1029700 
1977.763 1169249 1298008 1395426 1448880 1459884 1439705 1405431 1371294 
1981.621 1344006 1323732 1306549 1290930 1279697 1278900 1293788 1324263 
1985.478 1362785 1397088 1413742 1406362 1377244 1337425 1299238 1272253 
1989.336 1258064 1251086 1242579 1226696 1204965 1184366 1174598 1180711 
1993.193 1200413 1224004 1239755 1239987 1224071 1199649 1178219 1168950 
1997.051 1174997 1191443 1209584 1221080 1222177 1215797 1207823 1203902 
2000.908 1205231 1207258 1203105 1187157 1158451 1122274 1086364 1059094 
2004.765 1045111 1043782 1052086 1067331 1089321 1120712 1164398 1220250 
2008.623 1283253 1344870 1396889 1434319 1457457 1472152 1485318 1501842 
2012.480 1522258 1542607 1558569 1568378 1573333 1577656 1585903 1599705 
2016.338 1616865 1632563 1643505 1650024 1656909 1670147 1693764 1725731 
2020.195 1758865 1782686 1788575 1775001 1747321 1716583 1692832 1681589 
2024.052 1682321 1689872 1698055 1705040 1713656 1729058 1755206 1790871 
2027.910 1828801 1860379 1878981 1885204 1886768 1895254 1920048 1964014 
2031.767 2021999 2083654 2139624 2186643 2229304 2275599 2334226 2406787 
2035.625 2487691 2565543 2628909 2671580 2693484 2701253 2701786 2700386 
2039.482 2697585 2691284 2678448 2659545 2638443 2621642 2613642 2615542 
2043.340 2623209 2631043 2634376 2633043 2632476 2641310 2667880 2715656 
2047.197 2782512 2861151 2943241 3020408 3087277 3140439 3177186 3195444 
2051.054 3193708 3172747 3137970 3097388 3062450 3042830 3043297 3061749 
2054.912 3090681 3120148 3141941 3153222 3156359 3156392 3158295 3162901 
2058.769 3167774 3169142 3164770 3156660 3150452 3153022 3169142 3197881 
2062.627 3233130 3265812 3288313 3297428 3295425 3288514 3283740 3285309 
2066.484 3292787 3302836 3311250 3315757 3316459 3315757 3315457 3315757 
2070.342 3314155 3306743 3291085 3267548 3239706 3212768 3191438 3178087 
2074.199 3171746 3169977 3170778 3173548 3180123 3192607 3212467 3237904 
2078.056 3264777 3288514 3306375 3318896 3329614 3343804 3365275 3394527 
2081.914 3428657 3462189 3489911 3508750 3518336 3520207 3516098 3507079 
2085.771 3492984 3473544 3449397 3422746 3397098 3375326 3358029 3342869 
2089.629 3325540 3301735 3269785 3232295 3195143 3166138 3150685 3150685 
2093.486 3163335 3182960 3203488 3220412 3232830 3241843 3249254 3256464 
2097.344 3263675 3270720 3278164 3288113 3303271 3326075 3357294 3394460 
2101.201 3434000 3471607 3505175 3535305 3564703 3595940 3629751 3664067 
2105.058 3694542 3717233 3730835 3737218 3741730 3750319 3766863 3791496 
2108.916 3821111 3851230 3878141 3900641 3920166 3939626 3960190 3981322 
2112.773 3999748 4012489 4017672 4016970 4014462 4015064 4022087 4035464 
2116.631 4051851 4066133 4074393 4075297 4070915 4065096 4061617 4062554 
2120.488 4067303 4073691 4079812 4085431 4092054 4102122 4117675 4138515 
2124.345 4162734 4187256 4209973 4230081 4249052 4268125 4287499 4305068 
2128.203 4316144 4316278 4302357 4275319 4239583 4202546 4172202 4154773 
2132.060 4153936 4170395 4203215 4250023 4307443 4371164 4434895 4491369 
2135.918 4534391 4560072 4569649 4567338 4560909 4556020 4555418 4556757 
2139.775 4554815 4544369 4523141 4493444 4461440 4434124 4415948 4407112 
2143.633 4403061 4397941 4385991 4366044 4339303 4309987 4280338 4251395 
2147.490 4220445 4183777 4139151 4086468 4027538 3963968 3895860 3820610 
2151.347 3734177 3633427 3517601 3390620 3258434 3126456 2997853 2873559 
2155.205 2753334 2641810 2550512 2497355 2504920 2589542 2753968 2980671 
2159.062 3236902 3484667 3689396 3832410 3910470 3933239 3916589 3876068 
2162.920 3824989 3771007 3720107 3675595 3639541 3611375 3587654 3563934 
2166.777 3534671 3497493 3453171 3406415 3362436 3324772 3292320 3259636 
2170.635 3219344 3165504 3096988 3018873 2940138 2871024 2818495 2785613 
2174.492 2770774 2769907 2779277 2795350 2815326 2834803 2847710 2846309 
2178.349 2824564 2780744 2719490 2651211 2587576 2538613 2508286 2492656 
2182.207 2483892 2474394 2460166 2443672 2429977 2425112 2430843 2443838 
2186.064 2457100 2463298 2459066 2446037 2430677 2420247 2420114 2430843 
2189.922 2449536 2471395 2492790 2513118 2534347 2559144 2588375 2620875 
2193.779 2652945 2681282 2704353 2723625 2742530 2764171 2789881 2818495 
2197.636 2846843 2871124 2889836 2903445 2913985 2923092 2931365 2937236 
2201.494 2938237 2933033 2922325 2909415 2898275 2891870 2890203 2891103 
2205.351 2891370 2889335 2885766 2884599 2890469 2906680 2932366 2963190 
2209.209 2992815 3015703 3029383 3035422 3037691 3041261 3048602 3059180 
2213.066 3070325 3079401 3084507 3086776 3088812 3093551 3101827 3113240 
2216.924 3125221 3134832 3141007 3143643 3143943 3143643 3143009 3141440 
2220.781 3137903 3132663 3126589 3121817 3119781 3121249 3123852 3124219 
2224.638 3118980 3106832 3088912 3069024 3051438 3039727 3034555 3035122 
2228.496 3039760 3047668 3060081 3078534 3104630 3137102 3172079 3203488 
2232.353 3225219 3234532 3232129 3223483 3214771 3212134 3218676 3234031 
2236.211 3255630 3280501 3307043 3335357 3366343 3400705 3437273 3473377 
2240.068 3506144 3533168 3554480 3571384 3586184 3600216 3613747 3625341 
2243.926 3633493 3637837 3640009 3642883 3649732 3662664 3681443 3704133 
2247.783 3728094 3751188 3772846 3793769 3814627 3835184 3854339 3870018 
2251.640 3880883 3887602 3892417 3898969 3909668 3924479 3940127 3951796 
2255.498 3954438 3945945 3927689 3904152 3881050 3862630 3849960 3841101 
2259.355 3832577 3821078 3805568 3787552 3770406 3757204 3749951 3748481 
2263.213 3751088 3756034 3761850 3768100 3774784 3781569 3787051 3789457 
2267.070 3787285 3780299 3770005 3759443 3751790 3749183 3751890 3758273 
2270.927 3765693 3771910 3775820 3777725 3778695 3779664 3781435 3784176 
2274.785 3788388 3795307 3806738 3824287 3849124 3880314 3915619 3951629 
2278.642 3985703 4016468 4044393 4071283 4099011 4128212 4157750 4185584 
2282.500 4209371 4227538 4240420 4248684 4254038 4256748 4256346 4251896 
2286.357 4242461 4228877 4212549 4196423 4182673 4172637 4165913 4160928 
2290.215 4156312 4151427 4147346 4145807 4148852 4157248 4170061 4185048 
2294.072 4199903 4212716 4222921 4231754 4240788 4251763 4264979 4280171 
2297.929 4296400 4312597 4328225 4343185 4357041 4369223 4378293 4382946 
2301.787 4382209 4376687 4367750 4357877 4349209 4343118 4339470 4337228 
2305.644 4334985 4331940 4328259 4324712 4322202 4321164 4320829 4320260 
2309.502 4318353 4314839 4310422 4306640 4305135 4306507 4310589 4316077 
2313.359 4321365 4325414 4327724 4328593 4328527 4327255 4324176 4318487 
2317.217 4309753 4298843 4287600 4278899 4275319 4278732 4289674 4306707 
2321.074 4327389 4348539 4366010 4375315 4372202 4352489 4313367 4254774 
2324.931 4179428 4093358 4003895 3919197 3845580 3786349 3741462 3708411 
2328.789 3683682 3664702 3649799 3639341 3633928 3633761 3637971 3644787 
2332.646 3652739 3661026 3670349 3682178 3697316 3716130 3736449 3755900 
2336.504 3771843 3783006 3790259 3795942 3802894 3813022 3826827 3842973 
2340.361 3859989 3876436 3892450 3908531 3925784 3944975 3965773 3987943 
2344.219 4011686 4038574 4072521 4116806 4174644 4246141 4328560 4416350 
2348.076 4503388 4583243 4650488 4702100 4735931 4751608 4749766 4732246 
2351.933 4701832 4662176 4617534 4571959 4528397 4488590 4452469 4419463 
2355.791 4388669 4360220 4335454 4316345 4305302 4302691 4307979 4318721 
2359.648 4331505 4343319 4352020 4357208 4359718 4360822 4362061 4365675 
2363.506 4373072 4386192 4406309 4434158 4469106 4509514 4552907 4596872 
2367.363 4639905 4681702 4723403 4766683 4813384 4864278 4919301 4977883 
2371.220 5039054 5102010 5165781 5229091 5290532 5348292 5400893 5448300 
2375.078 5491954 5534974 5581255 5634153 5695382 5764679 5839763 5917783 
2378.935 5995917 6072587 6147489 6220992 6293500 6364842 6433910 6499390 
2382.793 6559901 6615306 6666379 6714193 6760162 6805126 6848984 6891365 
2386.650 6931898 6970381 7006780 7041195 7073121 7101378 7124146 7140112 
2390.508 7148667 7150587 7147994 7143379 7139405 7137181 7136878 7137855 
2394.365 7139405 7141257 7144087 7148836 7156482 7167598 7181780 7198422 
2398.222 7217051 7237468 7259974 7284940 7312301 7341248 7370803 7400090 
2402.080 7429009 7458940 7492380 7532059 7579665 7635707 7698670 7766298 
2405.937 7835892 7906037 7976330 8047949 8122045 8200003 8281790 8367276 
2409.795 8455312 8545123 8635764 8726627 8816459 8904180 8988199 9067293 
2413.652 9140548 9208198 9271050 9329748 9384493 9434944 9479948 9518556 
2417.510 9551072 9578575 9603304 9627490 9652662 9678749 9704228 9726794 
2421.367 9744382 9756275 9763053 9766475 9768983 9772507 9778912 9788943 
2425.224 9803720 9824292 9852254 9889064 9935303 9990904 10054718 10125087 
2429.082 10200725 10281398 10367617 10460302 10560510 10668109 10782326 
2432.457 10901328 11023558 11147725 11273663 11401713 11532658 11667352 
2435.832 11805868 11948583 12095262 12245911 12400465 12558825 12719939 
2439.208 12882478 13045076 13206644 13366870 13526780 13688184 13853104 
2442.583 14022980 14197988 14377042 14558361 14740098 14920849 15100303 
2445.958 15278870 15457029 15635708 15814943 15994836 16174940 16355153 
2449.333 16535029 16714463 16892870 17069244 17242970 17413072 17578860 
2452.708 17740294 17897162 18049250 18196140 18337134 18471224 18597922 
2456.084 18716906 18827998 18931262 19026106 19111656 19186002 19247958 
2459.459 19295862 19329742 19349766 19357214 19352814 19337260 19310620 
2462.834 19272516 19223576 19165014 19099432 19030434 18961790 18897450 
2466.209 18840006 18791910 18754474 18729186 18717354 18720502 18740256 
2469.585 18777552 18832946 18906380 18997098 19104072 19226312 19362376 
2472.960 19510368 19668362 19833972 20005198 20180100 20357298 20535816 
2476.335 20714130 20890190 21061276 21223938 21374412 21509652 21627384 
2479.710 21726614 21807088 21869282 21913780 21941626 21954138 21953302 
2483.086 21941800 21922390 21897786 21869176 21837120 21801060 21759636 
2486.461 21712298 21659076 21600810 21538900 21474350 21407096 21336232 
2489.836 21260022 21176484 21084334 20983166 20873050 20754480 20628264 
2493.211 20494340 20352264 20201762 20042948 19875872 19701056 19518928 
2496.587 19329186 19131842 18926382 18712788 18491934 18265560 18035814 
2499.962 17804706 17573962 17344236 17115910 16888908 16664090 16442450 
2503.337 16225738 16015394 15812365 15617333 15429426 15248566 15074437 
2506.712 14907476 14748668 14598999 14458665 14327246 14203740 14086602 
2510.088 13975038 13868395 13767250 13672421 13584620 13504323 13431592 
2513.463 13366153 13307316 13254706 13208146 13166989 13131231 13100599 
2516.838 13075364 13055935 13043369 13038998 13043369 13056617 13077720 
2520.213 13104662 13135808 13169380 13204731 13242271 13282684 13326244 
2523.589 13372816 13421305 13470075 13517482 13562365 13604175 13642297 
2526.964 13676558 13705658 13728057 13742181 13747209 13743550 13732777 
2530.339 13716875 13697999 13677550 13655290 13630467 13601851 13569031 
2533.714 13532249 13493214 13453533 13414642 13377565 13341757 13306667 
2537.090 13271581 13236259 13200940 13166409 13133417 13102375 13073622 
2540.465 13047398 13023805 13003422 12986864 12974164 12965118 12958495 
2543.840 12952487 12945557 12936033 12923369 12907702 12890055 12871043 
2547.215 12851692 12832580 12813946 12796235 12779890 12764909 12751773 
2550.591 12740684 12731437 12723999 12717891 12713047 12709260 12706087 
2553.966 12702675 12698377 12692303 12684252 12674290 12663442 12653207 
2557.341 12644542 12638027 12633150 12628407 12622097 12612478 12598322 
2560.716 12579426 12555994 12528711 12498018 12464396 12428082 12389487 
2564.092 12349566 12309547 12270826 12234869 12202767 12174994 12151856 
2567.467 12133525 12120305 12112230 12109300 12111139 12116727 12125109 
2570.842 12134990 12145962 12157683 12170530 12185046 12201062 12218579 
2574.217 12236812 12255114 12273314 12291754 12310808 12331294 12353622 
2577.593 12377452 12402272 12427843 12454030 12481445 12511284 12544297 
2580.968 12580722 12619710 12660166 12700082 12738295 12774566 12809510 
2584.343 12844729 12881556 12921184 12963889 13009500 13057608 13107702 
2587.718 13159817 13214124 13270625 13328909 13388329 13448168 13507673 
2591.094 13566706 13625304 13684081 13743104 13802137 13860800 13918241 
2594.469 13973943 14027840 14080099 14131406 14182206 14232363 14281496 
2597.844 14329026 14374541 14418348 14461303 14504571 14549555 14597183 
2601.219 14647867 14701366 14757032 14814420 14872877 14932097 14992218 
2604.594 15053169 15115261 15179009 15245032 15314393 15387783 15465992 
2607.970 15549297 15637221 15728770 15823053 15918870 16015429 16112180 
2611.345 16208852 16305234 16401054 16495965 16589692 16682062 16773142 
2614.720 16862658 16950642 17036474 17119494 17198842 17274414 17346066 
2618.095 17414522 17480814 17545568 17609364 17672166 17733530 17793108 
2621.471 17851380 17908626 17965946 18024692 18085138 18147250 18210134 
2624.846 18272470 18332986 18390916 18446020 18498884 18550128 18600618 
2628.221 18650560 18700542 18750566 18800524 18850802 18901568 18952894 
2631.596 19004748 19057158 19109820 19162592 19215298 19267876 19320008 
2634.972 19371556 19421900 19470688 19517890 19563674 19608770 19653870 
2638.347 19699982 19747622 19796968 19847810 19899840 19952602 20006308 
2641.722 20060890 20116830 20174202 20232794 20292194 20351950 20411540 
2645.097 20471000 20530606 20591088 20653178 20717570 20784406 20853718 
2648.473 20925304 20998848 21074108 21151192 21230132 21310792 21392824 
2651.848 21475708 21558712 21641314 21723024 21803706 21883848 21963722 
2655.223 22044170 22125642 22208458 22292544 22377728 22463730 22550028 
2658.598 22636484 22722538 22807806 22892078 22974760 23055708 23134472 
2661.974 23211012 23285470 23358506 23430818 23503354 23576704 23651226 
2665.349 23726842 23803310 23880144 23956712 24032908 24108134 24182640 
2668.724 24256178 24329026 24401010 24472832 24544560 24617106 24690996 
2672.099 24766516 24843588 24922012 25000798 25079388 25157254 25234328 
2675.475 25310924 25387814 25465210 25543532 25622606 25702258 25782172 
2678.850 25862310 25943132 26025304 26109746 26197160 26287972 26382602 
2682.225 26480988 26583306 26689842 26801126 26917410 27039434 27167210 
2685.600 27300528 27439392 27583206 27731522 27883876 28039892 28199216 
2688.976 28361640 28526992 28695380 28867196 29042482 29221346 29403478 
2692.351 29588450 29775454 29964384 30155100 30348174 30544642 30745430 
2695.726 30951362 31162628 31379122 31600072 31824880 32053120 32284800 
2699.101 32520284 32759822 33003286 33250068 33499100 33749028 33998492 
2702.477 34246736 34493256 34737764 34980468 35221300 35459816 35695552 
2705.852 35927708 36155344 36377656 36593704 36802828 37004368 37197876 
2709.227 37383096 37560080 37729444 37891960 38048576 38200148 38347608 
2712.602 38491100 38630656 38765544 38894716 39016712 39129788 39232156 
2715.978 39322652 39400284 39465268 39517956 39559692 39591888 39616208 
2719.353 39633956 39646556 39655448 39662236 39668844 39677740 39691352 
2722.728 39712300 39742908 39784884 39839212 39906184 39985412 40076028 
2726.103 40177060 40287744 40407328 40535644 40672620 40818448 40973064 
2729.479 41136148 41306840 41484008 41666140 41851412 42038880 42227196 
2732.854 42415232 42602176 42786788 42968044 43144428 43314812 43478740 
2736.229 43635844 43786664 43931488 44070972 44205324 44334692 44459180 
2739.604 44579408 44696032 44810668 44925040 45040548 45158768 45280588 
2742.979 45406632 45537572 45674368 45817872 45969488 46129856 46299236 
2746.355 46476652 46660780 46849192 47039092 47227852 47412704 47591016 
2749.730 47760192 47918116 48062548 48192368 48306892 48406408 48491868 
2753.105 48564272 48624336 48672408 48707840 48729748 48737348 48729932 
2756.480 48707064 48668812 48615072 48545296 48458380 48352964 48227500 
2759.856 48080756 47912268 47722472 47512680 47285372 47042672 46787560 
2763.231 46522640 46250400 45973356 45694096 45415240 45139868 44871028 
2766.606 44611536 44364268 44131668 43915540 43717332 43538184 43378664 
2769.981 43239292 43120276 43021816 42943572 42884940 42844456 42819808 
2773.357 42808472 42807304 42813296 42823940 42836924 42850928 42864864 
2776.732 42877476 42887716 42894008 42894084 42885596 42866468 42834944 
2780.107 42789712 42730996 42659600 42577360 42486880 42391120 42293044 
2783.482 42195504 42100976 42011104 41926908 41848680 41775892 41707356 
2786.858 41641488 41576216 41508872 41436840 41358148 41270616 41173740 
2790.233 41067344 40953036 40832496 40707952 40581952 40456644 40333952 
2793.608 40215548 40102916 39997908 39902008 39816440 39742216 39680028 
2796.983 39629968 39592320 39567424 39555880 39558604 39576932 39611416 
2800.359 39662492 39729800 39811864 39907164 40013496 40129120 40252192 
2803.734 40381584 40516076 40654936 40797264 40942624 41090108 41239208 
2807.109 41389272 41538768 41686344 41829592 41965736 42092068 42205980 
2810.484 42305680 42389840 42458308 42511364 42549476 42573596 42584340 
2813.860 42582588 42569284 42545344 42512240 42471788 42425864 42377204 
2817.235 42328732 42284280 42247832 42224240 42218072 42233516 42274308 
2820.610 42342392 42438648 42562816 42713264 42887828 43083940 43298812 
2823.985 43529648 43773396 44027296 44288272 44553264 44819264 45082888 
2827.361 45341488 45592624 45834404 46065820 46287368 46500512 46707564 
2830.736 46911644 47116192 47324164 47538524 47761712 47996116 48244644 
2834.111 48510320 48797104 49109460 49452404 49830776 50250060 50715328 
2837.486 51232540 51808456 52451268 53170748 53979436 54891432 55923976 
2840.862 57097076 58432492 59954996 61692244 63671632 65922708 68473104 
2844.237 71345160 74551864 78089144 81930352 86012512 90234504 94458400 
2847.612 98498792 102149792 105201896 107452760 108752504 109014808 
2850.505 108232656 106475384 103880352 100635552 96936640 92984032 88959088 
2853.880 85002248 81226888 77711616 74501712 71620544 69070144 66837712 
2857.256 64898616 63221372 61772724 60516816 59421828 58459600 57604848 
2860.631 56837428 56140808 55501136 54908240 54354188 53833808 53344472 
2864.006 52885328 52457772 52064592 51709872 51399152 51138040 50932928 
2867.381 50789440 50711344 50700284 50754836 50870600 51038972 51248424 
2870.757 51485128 51732004 51971924 52188476 52366892 52496956 52574064 
2874.132 52599648 52580012 52526348 52452052 52370068 52292140 52227300 
2877.507 52181788 52159628 52163552 52195124 52255964 52347232 52469776 
2880.882 52623396 52807456 53020152 53259100 53520928 53801704 54096660 
2884.258 54400456 54707764 55012932 55311796 55601528 55881580 56153668 
2887.633 56421284 56690388 56966612 57256236 57565464 57899180 58263084 
2891.008 58662796 59105236 59599780 60157528 60791824 61518704 62354492 
2894.383 63315056 64414300 65660700 67053916 68581232 70215584 71912488 
2897.759 73608472 75231360 76700888 77939368 78887416 79507952 79795256 
2901.134 79773952 79498240 79042488 78484864 77908248 77385816 76975072 
2904.509 76723904 76666576 76826984 77224208 77872288 78783208 79969096 
2907.884 81442264 83217048 85310312 87738912 90518224 93656328 97149472 
2911.260 100973424 105076360 109381648 113777312 118121976 122264368 
2914.153 126036464 129280704 131870672 133713560 134769056 135049040 
2917.046 134614800 133561760 132002536 130060192 127843184 125442176 
2919.939 122928672 120348088 117728040 115082544 112416536 109732840 
2922.832 107036792 104339312 101657720 99016136 96439440 93953728 91580680 
2926.207 89334800 87224520 85251280 83411168 81696176 80095416 78597064 
2929.582 77187120 75852040 74578816 73354968 72170944 71018776 69892512 
2932.958 68787440 67699808 66625864 65562964 64509316 63465192 62432340 
2936.333 61414228 60414788 59437364 58484920 57559036 56661504 55795368 
2939.708 54965056 54176528 53437584 52755408 52135760 51581908 51093984 
2943.083 50668856 50300392 49980348 49698832 49444272 49205748 48972836 
2946.458 48737904 48497612 48253864 48014324 47790748 47598336 47452436 
2949.834 47365068 47344892 47394264 47509688 47682088 47898544 48143276 
2953.209 48398408 48646500 48871560 49058704 49197024 49278376 49297932 
2956.584 49254360 49148528 48984184 48766412 48502468 48200772 47870316 
2959.959 47519924 47158596 46793244 46430080 46073592 45727488 45394640 
2963.335 45077300 44777388 44496144 44234344 43991912 43768344 43562908 
2966.710 43374964 43204080 43049988 42913064 42793552 42691840 42608864 
2970.085 42545896 42504492 42486916 42495320 42531020 42594280 42683252 
2973.460 42793844 42919720 43051960 43180696 43294016 43380272 43428572 
2976.836 43429048 43375220 43264476 43098872 42884352 42631524 42353604 
2980.211 42064764 41779356 41510328 41267408 41057072 40882044 40741104 
2983.586 40629028 40537500 40457008 40376132 40284324 40173492 40037620 
2986.961 39874548 39685180 39473504 39244996 39005692 38761200 38514852 
2990.337 38267884 38019064 37765948 37505420 37235996 36958184 36675216 
2993.712 36392720 36116924 35853608 35606136 35374868 35157056 34947720 
2997.087 34741284 34532612 34318196 34096576 33868044 33634160 33397108 
3000.462 33159540 32923888 32692440 32467328 32250396 32042742 31844952 
3003.838 31657200 31479072 31310208 31150310 30999364 30857366 30724268 
3007.213 30599424 30481796 30370454 30263866 30161174 30061986 29966300 
3010.588 29874186 29785886 29701046 29619168 29539788 29462052 29385644 
3013.963 29310348 29236126 29163266 29091974 29022928 28956762 28894464 
3017.339 28837168 28785686 28740514 28701680 28668266 28639312 28613584 
3020.714 28590580 28569738 28551300 28535412 28522252 28511566 28503002 
3024.089 28496458 28492034 28490974 28495184 28507070 28529328 28563934 
3027.464 28611532 28671132 28739770 28812774 28884478 28948578 28999796 
3030.840 29033980 29049212 29045636 29025550 28992536 28950244 28902148 
3034.215 28850730 28797548 28743558 28689398 28635986 28584388 28535838 
3037.590 28491186 28450924 28415124 28383360 28355168 28329950 28307562 
3040.965 28287972 28271138 28257170 28246208 28238074 28232808 28230544 
3044.341 28231286 28234788 28240444 28247658 28255684 28264560 28274568 
3047.716 28286838 28302718 28323370 28349368 28380174 28414840 28451490 
3051.091 28488850 28525612 28561386 28596030 28629722 28662392 28693998 
3054.466 28724336 28753542 28782252 28811320 28841878 28874988 28911108 
3057.842 28950174 28992288 29037452 29085950 29138780 29196716 29260334 
3061.217 29329312 29402768 29479250 29557060 29635060 29712932 29790854 
3064.592 29869642 29949686 30031556 30114790 30199072 30283582 30367292 
3067.967 30449666 30529782 30606998 30680636 30750338 30815852 30877430 
3071.343 30935600 30991002 31044276 31095528 31144720 31191854 31237178 
3074.718 31281508 31325876 31371854 31420902 31473622 31530234 31590130 
3078.093 31651996 31714548 31776250 31836074 31893126 31947150 31998474 
3081.468 32047554 32095716 32144308 32194298 32246150 32299970 32354794 
3084.844 32410022 32465256 32520744 32577708 32637570 32701872 32771114 
3088.219 32845046 32922212 33001068 33080190 33159002 33237796 33317354 
3091.594 33398646 33482172 33567932 33655676 33744588 33834664 33925864 
3094.969 34018704 34113528 34210492 34309268 34409608 34510976 34612948 
3098.344 34715620 34818712 34921504 35023712 35123896 35221728 35316892 
3101.720 35410208 35503000 35596856 35693180 35792404 35894384 35998760 
3105.095 36104788 36212028 36320376 36430012 36540576 36651276 36760960 
3108.470 36868652 36973480 37075812 37176580 37277696 37380280 37485776 
3111.845 37594544 37706456 37821216 37938460 38058052 38179384 38302116 
3115.221 38424708 38545772 38663540 38777176 38886492 38992500 39096576 
3118.596 39200060 39303532 39406920 39509032 39608984 39706200 39800860 
3121.971 39894236 39987808 40083296 40181676 40283600 40389040 40497672 
3125.346 40609384 40723528 40839960 40957880 41076560 41195344 41313468 
3128.722 41430824 41547152 41662528 41776876 41889796 42000956 42110288 
3132.097 42218140 42325404 42433608 42544140 42658316 42776368 42898360 
3135.472 43023792 43152476 43284392 43419344 43556900 43696116 43834716 
3138.847 43970536 44101008 44225352 44343976 44459032 44573424 44689972 
3142.223 44810228 44934704 45061900 45190016 45317584 45443420 45567452 
3145.598 45690416 45813088 45936080 46060332 46186420 46315276 46447964 
3148.973 46585564 46728300 46875732 47026096 47176804 47325312 47469472 
3152.348 47608136 47741368 47869724 47994268 48116256 48236424 48355552 
3155.724 48474420 48593764 48714180 48835924 48958560 49081448 49203744 
3159.099 49324808 49444976 49565332 49687352 49812196 49940640 50072140 
3162.474 50205424 50338788 50470888 50601320 50730336 50858940 50987848 
3165.849 51117724 51248236 51378748 51508112 51635828 51761196 51883948 
3169.225 52004156 52121636 52236340 52347976 52456836 52563408 52668692 
3172.600 52774080 52880424 52988672 53098700 53210072 53321396 53431624 
3175.975 53539520 53644328 53745976 53844760 53941880 54038344 54135392 
3179.350 54233624 54332896 54432564 54531580 54628816 54723816 54816768 
3182.726 54908392 54999728 55091536 55184044 55276832 55368704 55458860 
3186.101 55546468 55631540 55714708 55796688 55877888 55958988 56039728 
3189.476 56120296 56200804 56281892 56364200 56448452 56534264 56621000 
3192.851 56707380 56791768 56872852 56950328 57024336 57095492 57165368 
3196.227 57234728 57304476 57375408 57447908 57522568 57599400 57678216 
3199.602 57758332 57838232 57916180 57990732 58060796 58126096 58187044 
3202.977 58244936 58300904 58356196 58411456 58467292 58524500 58582968 
3206.352 58642960 58704176 58766004 58827652 58888132 58947104 59004376 
3209.728 59060592 59115944 59170956 59225412 59278960 59331032 59381784 
3213.103 59431972 59482884 59536200 59592940 59652732 59713932 59774084 
3216.478 59830208 59880636 59924756 59963896 60000532 60037704 60078032 
3219.853 60123504 60174652 60231324 60292988 60358552 60427124 60497468 
3223.229 60568540 60639136 60708100 60774904 60839160 60901372 60962028 
3226.604 61022004 61082264 61143324 61205884 61270244 61336372 61404072 
3229.979 61472704 61541304 61609036 61675252 61739836 61803324 61866664 
3233.354 61931048 61996972 62064776 62133776 62203244 62272572 62341452 
3236.729 62410076 62479056 62548576 62618768 62689424 62760288 62831044 
3240.105 62902160 62973932 63046752 63120432 63194124 63266716 63337020 
3243.480 63404380 63469872 63535184 63602768 63674896 63752516 63835332 
3246.855 63922196 64010844 64099780 64187772 64274816 64360620 64445548 
3250.230 64529076 64610308 64688676 64763284 64834444 64902620 64968764 
3253.606 65033764 65097616 65160364 65221308 65280148 65336644 65391332 
3256.981 65445072 65498888 65553412 65609016 65665440 65722600 65779464 
3260.356 65835604 65890124 65942532 65992556 66039732 66084288 66126616 
3263.731 66166936 66205332 66241300 66274256 66303052 66327104 66346324 
3267.107 66361764 66374892 66387436 66400492 66414000 66427512 66439560 
3270.482 66448904 66455312 66459604 66463040 66467516 66474736 66485280 
3273.857 66498756 66513972 66529496 66544092 66556648 66567348 66576728 
3277.232 66585920 66595852 66608020 66623004 66641196 66662096 66685080 
3280.608 66709116 66733336 66757604 66782332 66808684 66838176 66871680 
3283.983 66909680 66951848 66997544 67045988 67096716 67150400 67207600 
3287.358 67269256 67335800 67406920 67481688 67558840 67637776 67718240 
3290.733 67801192 67887768 67979512 68077288 68181792 68292912 68410344 
3294.109 68533664 68662728 68796832 68936144 69080200 69228544 69381408 
3297.484 69538912 69701848 69870528 70045448 70226488 70412864 70603800 
3300.859 70798408 70996464 71198544 71405496 71618432 71837968 72064264 
3304.234 72296904 72535344 72779160 73028136 73282592 73542496 73807656 
3307.610 74077504 74350896 74627368 74906584 75188968 75475672 75767656 
3310.985 76065560 76369528 76679144 76993776 77313000 77636928 77965416 
3314.360 78298488 78635736 78976432 79319624 79664712 80011960 80361944 
3317.735 80715648 81073352 81434784 81798448 82162328 82524192 82882552 
3321.111 83236624 83586536 83932624 84274928 84613752 84949096 85281688 
3324.486 85612824 85944176 86277160 86612176 86947808 87281072 87608144 
3327.861 87925568 88230592 88522672 88802264 89070200 89327272 89572928 
3331.236 89805928 90024832 90228256 90415216 90585568 90738376 90872696 
3334.612 90986960 91079264 91148904 91196560 91224360 91235072 91231184 
3337.987 91213528 91181104 91131120 91059928 90964568 90843616 90697056 
3341.362 90526096 90332480 90117664 89882176 89626040 89348848 89049784 
3344.737 88728248 88383024 88012920 87616984 87194872 86747768 86278328 
3348.113 85790704 85289384 84778656 84261376 83738832 83210784 82676560 
3351.488 82135672 81588168 81034816 80477144 79916360 79353712 78790640 
3354.863 78228768 77669848 77116560 76570960 76035048 75509856 74995920 
3358.238 74493056 74001504 73521928 73055232 72602656 72164568 71740672 
3361.614 71329920 70930680 70541824 70162928 69794600 69438128 69094504 
3364.989 68764384 68447072 68141560 67845856 67558992 67279976 67009060 
3368.364 66746436 66492460 66246776 66008872 65777264 65550020 65324856 
3371.739 65099268 64870380 64635804 64393356 64142100 63882424 63614972 
3375.115 63341200 63061616 62775828 62482152 62178240 61862080 61532712 
3378.490 61190128 60835540 60470464 60095612 59710132 59312384 58900008 
3381.865 58471160 58025160 57563080 57087100 56600240 56106120 55607176 
3385.240 55106472 54606120 54108408 53615088 53127420 52645240 52167664 
3388.615 51693228 51220052 50747204 50274576 49803760 49336576 48875340 
3391.991 48421632 47976168 47538892 47108844 46685092 46266252 45851236 
3395.366 45438492 45027060 44615904 44205032 43794912 43387080 42983112 
3398.741 42584340 42191668 41804276 41421276 41041052 40662940 40286472 
3402.116 39912140 39540896 39172828 38807644 38444216 38081600 37719104 
3405.492 37357560 36998448 36644176 36296456 35956432 35623576 35296584 
3408.867 34973288 34652132 34332184 34013648 33697356 33384260 33074684 
3412.242 32768934 32466900 32168392 31874082 31585142 31303552 31030788 
3415.617 30768012 30515208 30271254 30033438 29799228 29565644 29330836 
3418.993 29093816 28855334 28617264 28382616 28153890 27933344 27722268 
3422.368 27520048 27324662 27133490 26943602 26752176 26557804 26360140 
3425.743 26160102 25959100 25759036 25561980 25369020 25181200 24998868 
3429.118 24822082 24650350 24483418 24320512 24161272 24005348 23852596 
3432.494 23702906 23556066 23411410 23268026 23124966 22981152 22836162 
3435.869 22689616 22542560 22395692 22250202 22106678 21965186 21825412 
3439.244 21686800 21548474 21410506 21273314 21137590 21004412 20873952 
3442.619 20746660 20621558 20497468 20372506 20245258 20114122 19978380 
3445.995 19838204 19694988 19550954 19408942 19271408 19140464 19016308 
3449.370 18898176 18784194 18671762 18559258 18445330 18330290 18214522 
3452.745 18099440 17985840 17873786 17763008 17652600 17541566 17429318 
3456.120 17315686 17200842 17084648 16967386 16848742 16729029 16608901 
3459.496 16489459 16372461 16259551 16151588 16048640 15949769 15852951 
3462.871 15756255 15658002 15557779 15455931 15353523 15251517 15150634 
3466.246 15051042 14951885 14852373 14751547 14649032 14545135 14440578 
3469.621 14336424 14233629 14132638 14033452 13935792 13839182 13742968 
3472.997 13647220 13552041 13458421 13367246 13279849 13196738 13118391 
3476.372 13044735 12974950 12908009 12843125 12779071 12715094 12650274 
3479.747 12583826 12516126 12446937 12377555 12309274 12243900 12182933 
3483.122 12126778 12074992 12025698 11976614 11925526 11871005 11813188 
3486.498 11753371 11694072 11637503 11585469 11538442 11496014 11457196 
3489.873 11420966 11387358 11356848 11330286 11308487 11291347 11278084 
3493.248 11267407 11257409 11247446 11237551 11228881 11222727 11220890 
3496.623 11224358 11233403 11247786 11267066 11290836 11319336 11352870 
3499.999 11391848 11436205 11485535 11539055 11596358 11657278 11722291 
3503.374 11792386 11869030 11953419 12046034 12146541 12253955 12366815 
3506.749 12483628 12603234 12725330 12850258 12979182 13113644 13255423 
3510.124 13406167 13566057 13734452 13909243 14087971 14267321 14444449 
3513.500 14617469 14785622 14948593 15106821 15260817 15410509 15556062 
3516.875 15697438 15834531 15967747 16096639 16220408 16337229 16443826 
3520.250 16536165 16610725 16664090 16694905 16702928 16689638 16657548 
3523.625 16608695 16545080 16467193 16374800 16266225 16139897 15993839 
3527.000 15827246 15640071 15434060 15212396 14978395 14735951 14488366 
3530.376 14238354 13987494 13737017 13487643 13239470 12992156 12745324 
3533.751 12497507 12247786 11995211 11740264 11484106 11229357 10979004 
3537.126 10735521 10500932 10275664 10059431 9851745 9651544 9458783 9273319 
3540.984 9095004 8923222 8756580 8593043 8430616 8267033 8101013 7932122 
3544.841 7761238 7589679 7420043 7254819 7097067 6949170 6812531 6687341 
3548.698 6571708 6462058 6354487 6244723 6129476 6008112 5882147 5755312 
3552.556 5632038 5516316 5410488 5314648 5226844 5144020 5063391 4982944 
3556.413 4901507 4818744 4735563 4652363 4569548 4487385 4405940 4325414 
3560.271 4246543 4169960 4096669 4026869 3960524 3896362 3832677 3766763 
3564.128 3695545 3616621 3527756 3428724 3321333 3209797 3099958 2998654 
3567.986 2910283 2837404 2778877 2731060 2688483 2646544 2600842 2549012 
3571.843 2490923 2427578 2361010 2293653 2226973 2162167 2099402 2038377 
3575.700 1978160 1918251 1857784 1796061 1732817 1667885 1601733 1535292 
3579.558 1470058 1408190 1351650 1301863 1259260 1223307 1192340 1163667 
3583.415 1134432 1101346 1061884 1013326 954380 884319 804908 719272 632558 
3587.755 551368 481837 428070 391323 369900 359321 353916 347748 335976 
3592.094 315451 285178 246421 202396 157282 115454 80059 53183 34924 24321 
3596.916 19814 19814 23161 29556 39365 53978 74458 102064 136765 177701 
3601.738 222916 269463 314124 353087 382767 399846 400742 382236 342376 
3606.078 279940 195667 93083 -22298 -142982 -261216 -370181 -466574 -550239 
3610.417 -624128 -692876 -760422 -829414 -900312 -970934 -1037809 -1097634 
3614.275 -1147670 -1187621 -1218384 -1243329 -1265597 -1289185 -1317298 
3617.650 -1351949 -1393533 -1440232 -1488643 -1533780 -1571120 -1597828 
3621.025 -1613410 -1619451 -1618626 -1614301 -1609449 -1605388 -1603308 
3624.400 -1604035 -1608161 -1617899 -1635956 -1665630 -1709726 -1769261 
3627.776 -1841457 -1918887 -1990993 -2046993 -2080696 -2092138 -2086763 
3631.151 -2072913 -2057876 -2046993 -2042574 -2044784 -2050951 -2058173 
3634.526 -2063317 -2064570 -2061569 -2055864 -2049203 -2043761 -2040760 
3637.901 -2040595 -2042574 -2046367 -2051379 -2057645 -2065790 -2075947 
3641.277 -2087555 -2099492 -2109581 -2115879 -2117627 -2115517 -2112186 
3644.652 -2111362 -2117000 -2132366 -2158445 -2193919 -2236280 -2281372 
3648.027 -2325834 -2367588 -2404759 -2436720 -2461431 -2476619 -2480078 
3651.402 -2470722 -2450426 -2422881 -2393061 -2367127 -2350188 -2345970 
3654.778 -2355428 -2377013 -2406241 -2435863 -2458927 -2469898 -2466076 
3658.153 -2448581 -2420937 -2388118 -2355527 -2327778 -2307608 -2295380 
3661.528 -2289217 -2285360 -2280911 -2273264 -2261859 -2247488 -2231632 
3664.903 -2215084 -2197546 -2177699 -2153962 -2125310 -2091083 -2049104 
3668.279 -1994324 -1915159 -1793877 -1608887 -1341313 -982339 -536506 -17196 
3672.136 559430 1177887 1822945 2476994 3103729 3645021 4026334 4170864 
3675.993 4036534 3633460 3017071 2262410 1442564 622504 -148713 -831398 
3679.851 -1397364 -1835452 -2150796 -2363008 -2498000 -2582362 -2636606 
3683.226 -2672832 -2697266 -2712808 -2722159 -2729831 -2742080 -2765390 
3686.601 -2804370 -2860431 -2930438 -3007247 -3081935 -3146644 -3196576 
3689.977 -3230485 -3249856 -3257420 -3255874 -3247093 -3233050 -3215586 
3693.352 -3196214 -3176413 -3157467 -3140131 -3125131 -3112728 -3103747 
3696.727 -3098352 -3097168 -3100128 -3107662 -3119308 -3135559 -3155953 
3700.102 -3180327 -3207035 -3233675 -3256959 -3273139 -3279716 -3275968 
3703.478 -3263208 -3244298 -3222822 -3202003 -3184176 -3170394 -3160427 
3706.853 -3153651 -3149802 -3148552 -3150822 -3157664 -3169440 -3186610 
3710.228 -3208022 -3231603 -3254690 -3274060 -3286688 -3290437 -3284320 
3713.603 -3268404 -3244627 -3216047 -3186379 -3159605 -3139309 -3127992 
3716.979 -3126315 -3132894 -3144769 -3158223 -3170032 -3177762 -3180985 
3720.354 -3180623 -3178123 -3175295 -3173946 -3174867 -3179143 -3187169 
3723.729 -3199273 -3215488 -3234794 -3255414 -3273896 -3286556 -3289483 
3727.104 -3280900 -3260807 -3232228 -3200325 -3170295 -3147697 -3136282 
3730.479 -3137730 -3151184 -3173321 -3200325 -3228117 -3254427 -3280111 
3733.855 -3306944 -3337162 -3370600 -3404233 -3432439 -3448974 -3449401 
3737.230 -3433360 -3403937 -3366425 -3325785 -3286129 -3250218 -3219599 
3740.605 -3195951 -3182367 -3182794 -3202726 -3246008 -3313159 -3397099 
3743.980 -3481845 -3547907 -3578667 -3570090 -3531113 -3478098 -3427048 
3747.356 -3390064 -3374250 -3381023 -3406666 -3443123 -3481023 -3511985 
3750.731 -3530325 -3534038 -3523291 -3499199 -3463832 -3420112 -3371718 
3754.106 -3323484 -3279979 -3245022 -3221013 -3208219 -3204996 -3208679 
3757.481 -3215784 -3223710 -3230518 -3235583 -3237951 -3237425 -3232754 
3760.857 -3223480 -3210192 -3194569 -3179242 -3167565 -3162072 -3163618 
3764.232 -3171183 -3182136 -3192366 -3198615 -3199273 -3195194 -3188452 
3767.607 -3182893 -3181182 -3185195 -3195194 -3209304 -3224927 -3238707 
3770.982 -3248277 -3251763 -3249198 -3241338 -3229367 -3215389 -3200523 
3774.358 -3186083 -3172499 -3159802 -3147894 -3136841 -3127170 -3119735 
3777.733 -3115557 -3115097 -3117663 -3122203 -3126348 -3128256 -3127696 
3781.108 -3125591 -3124341 -3126775 -3134539 -3147828 -3164802 -3181676 
3784.483 -3194668 -3200457 -3197858 -3187827 -3172499 -3155296 -3138585 
3787.859 -3123880 -3111807 -3102662 -3096345 -3092792 -3092266 -3094865 
3791.234 -3099668 -3105655 -3110787 -3113814 -3114604 -3113715 -3113419 
3794.609 -3115755 -3122104 -3132006 -3143486 -3152631 -3156578 -3153947 
3797.984 -3145953 -3136480 -3131085 -3135361 -3152829 -3183551 -3222460 
3801.360 -3260972 -3288595 -3298460 -3289121 -3265115 -3234497 -3205818 
3804.735 -3186741 -3181873 -3192004 -3213580 -3239431 -3260807 -3270311 
3808.110 -3265115 -3246567 -3218809 -3186840 -3154670 -3124966 -3098187 
3811.485 -3074401 -3053476 -3035412 -3022054 -3015769 -3018763 -3032287 
3814.861 -3054792 -3082034 -3107169 -3123486 -3127039 -3119275 -3105392 
3818.236 -3092891 -3090029 -3102596 -3132894 -3178387 -3230946 -3278829 
3821.611 -3310134 -3318091 -3302406 -3268930 -3225914 -3181873 -3143618 
3824.986 -3114735 -3096444 -3087397 -3084501 -3083745 -3081804 -3077231 
3828.362 -3070124 -3062096 -3055483 -3052423 -3054200 -3060879 -3070881 
3831.737 -3082198 -3092167 -3099076 -3102201 -3102760 -3102596 -3104142 
3835.112 -3109702 -3120821 -3137138 -3157828 -3179965 -3200687 -3216902 
3838.487 -3226769 -3229827 -3226571 -3218415 -3206706 -3192694 -3177564 
3841.863 -3162072 -3147236 -3133486 -3121479 -3110787 -3101115 -3091706 
3845.238 -3081639 -3070650 -3058543 -3045382 -3032188 -3019388 -3007904 
3848.613 -2998921 -2993656 -2994084 -3003067 -3024160 -3060879 -3116248 
3851.988 -3189997 -3276527 -3364748 -3438751 -3484573 -3495683 -3474975 
3855.364 -3431420 -3376255 -3319176 -3266135 -3221013 -3185195 -3158026 
3858.739 -3138322 -3124242 -3113978 -3106050 -3099832 -3094963 -3092167 
3862.114 -3092134 -3095523 -3102497 -3112235 -3122959 -3131611 -3135394 
3865.489 -3132203 -3122466 -3108254 -3093713 -3084271 -3084765 -3098187 
3868.865 -3124407 -3159506 -3195852 -3224433 -3239003 -3237622 -3222362 
3872.240 -3198516 -3171907 -3147532 -3128256 -3114604 -3105195 -3097727 
3875.615 -3090423 -3082659 -3075618 -3071572 -3072954 -3081837 -3098451 
3878.990 -3121117 -3146447 -3169539 -3185886 -3192037 -3187827 -3175229 
3882.365 -3158782 -3143881 -3135460 -3137368 -3150986 -3174505 -3202989 
3885.741 -3228643 -3244561 -3246041 -3232491 -3207496 -3176874 -3146907 
3889.116 -3123157 -3109077 -3105655 -3110623 -3119670 -3127762 -3130427 
3892.491 -3125262 -3112728 -3094799 -3074138 -3053673 -3035643 -3020968 
3895.866 -3010537 -3004252 -3001587 -3001883 -3004581 -3009155 -3014913 
3899.242 -3022054 -3030378 -3040512 -3052686 -3066834 -3082856 -3099931 
3902.617 -3116281 -3130427 -3140131 -3143519 -3139934 -3129407 -3112728 
3905.992 -3092233 -3070289 -3048639 -3029260 -3012840 -2999316 -2988128 
3909.367 -2978091 -2968219 -2958346 -2948737 -2940312 -2934322 -2931722 
3912.743 -2933038 -2938041 -2946268 -2956668 -2968416 -2981349 -2994643 
3916.118 -3007312 -3018467 -3026430 -3029753 -3027549 -3019685 -3007411 
3919.493 -2992176 -2976150 -2961012 -2947848 -2937152 -2928431 -2921684 
3922.868 -2916648 -2913390 -2912370 -2913456 -2916583 -2921322 -2926983 
3926.244 -2933269 -2939719 -2946927 -2954496 -2962822 -2971609 -2980099 
3929.619 -2987601 -2993360 -2996947 -2998395 -2997802 -2995367 -2991254 
3932.994 -2985660 -2978618 -2970852 -2963118 -2956405 -2951369 -2948078 
3936.369 -2945808 -2943010 -2938238 -2930340 -2919150 -2905787 -2892523 
3939.745 -2881925 -2876428 -2877053 -2884262 -2896802 -2912567 -2929155 
3943.120 -2944623 -2956997 -2965389 -2969502 -2969963 -2967133 -2962526 
3946.495 -2957359 -2952488 -2949000 -2947124 -2946532 -2946466 -2945939 
3949.870 -2944063 -2940213 -2934421 -2926818 -2918459 -2910263 -2903055 
3953.246 -2898217 -2896341 -2897526 -2901311 -2906446 -2910988 -2912929 
3956.621 -2911086 -2904471 -2894235 -2882122 -2870207 -2860694 -2854736 
3959.996 -2852037 -2851543 -2851938 -2851444 -2849272 -2845684 -2841207 
3963.371 -2836664 -2832977 -2830344 -2828698 -2827941 -2827776 -2827941 
3966.747 -2828303 -2828501 -2828073 -2826328 -2822378 -2815728 -2805950 
3970.122 -2793309 -2778395 -2762230 -2746195 -2731280 -2718768 -2709614 
3973.497 -2704247 -2703127 -2705761 -2711096 -2717945 -2724629 -2730095 
3976.872 -2733486 -2734935 -2734704 -2733486 -2731576 -2729173 -2725814 
3980.248 -2721336 -2715837 -2709515 -2703390 -2698254 -2694730 -2693446 
3983.623 -2694467 -2696904 -2700690 -2705300 -2710635 -2716562 -2722686 
3986.998 -2728745 -2734145 -2738260 -2740532 -2741059 -2740071 -2737997 
3990.373 -2735626 -2733585 -2731840 -2730951 -2731115 -2732136 -2734210 
3993.749 -2737437 -2740927 -2744549 -2747018 -2747842 -2746854 -2744681 
3997.124 -2741981 -2739907 -2739413 -2740532 -2742705 -2745207 -2746755 
4000.499 -2746755 
##END=
