
##TITLE=Z326a_2_a
##JCAMP-DX=5.01  $$ Nicolet v. 1
##DATATYPE=INFRARED SPECTRUM
##ORIGIN=UniL
##OWNER=Nicolet
##LONGDATE=2011/09/15
##TIME=15:40:11
##SPECTROMETER/DATA SYSTEM=Nicolet iS5
##DATA PROCESSING=
Ratio against background
%Transmittance->Absorbance
Truncated
ElementMultiply or ElementDivide
##COMMENTS=
Number of sample scans: 32
Collection length: 51.16 sec
Sample gain: 2.0
Background collected on: Jeu Sep 15 15:37:39 2011 (GMT+02:00);
Number of background scans: 32
Background gain: 2.0
Sample spacing:  1.000
Number of scan points: 12415
Resolution points: 8192
Number of FFT points: 65536
Apodization: N-B fort;
Phase correction: Mertz;
Laser frequency: 15798.0 cm-1
Number of rejected sample scans: 0
Number of rejected background scans: 0
Bench serial number: ASB1000141;
##RESOLUTION=4.000
##XUNITS=1/CM
##YUNITS=ABSORBANCE
##FIRSTX=649.893372
##LASTX=4000.122314
##FIRSTY=0.133037
##MAXX=4000.122314
##MINX=649.893372
##MAXY=0.297370
##MINY=-0.002223
##XFACTOR=1.000000
##YFACTOR=1.000000E-009
##NPOINTS=6950
##DELTAX=0.482117
##ZPD=6100
##XYDATA=(X++(Y..Y))
649.893 133037032 132508200 132058888 131724088 131504568 131377160 
652.786 131309688 131287408 131322768 131454336 131726144 132168648 
655.679 132783920 133546352 134420960 135381840 136427344 137577280 
658.571 138856512 140273136 141812096 143437264 145116000 146837872 
661.464 148626496 150526144 152581968 154805280 157163792 159583760 
664.357 161980048 164281712 166429136 168378080 170071200 171417424 
667.250 172306816 172657376 172485904 171911424 171094352 170148016 
670.142 169102976 167925888 166561312 164970288 163157856 161181696 
673.035 159131040 157105888 155177824 153374704 151691856 150109440 
675.928 148615104 147212720 145918864 144747536 143697776 142748688 
678.820 141866576 141015424 140174064 139335168 138504160 137685088 
681.713 136872544 136048144 135189344 134279600 133321136 132334488 
684.606 131356176 130420952 129549760 128743856 127988832 127262432 
687.498 126545264 125828784 125113008 124402608 123699792 122999776 
690.391 122292952 121570088 120826624 120066224 119297512 118530584 
693.284 117773712 117032072 116312840 115629728 115004768 114468384 
696.177 114051552 113775680 113649104 113663352 113799744 114035136 
699.069 114351440 114740288 115200592 115733776 116338216 117002744 
701.962 117709656 118438096 119169360 119893048 120605944 121309120 
704.855 122001264 122676280 123321848 123925576 124479608 124985080 
707.747 125451816 125896304 126334728 126779448 127241416 127733080 
710.640 128272728 128888952 129614608 130477920 131492376 132646832 
713.533 133902088 135193824 136450352 137602064 138595472 139404128 
716.425 140026672 140486688 140825024 141100752 141385872 141753824 
719.318 142277664 143010992 143971488 145130256 146403840 147666368 
722.211 148752704 149498000 149765872 149466304 148584032 147180064 
725.104 145388592 143381632 141346784 139455552 137822544 136506736 
727.996 135510160 134795840 134307088 133988184 133798736 133711752 
730.889 133710352 133780512 133902760 134054136 134212432 134361264 
733.782 134496512 134624112 134756032 134902752 135067264 135245344 
736.674 135428560 135610496 135790048 135972592 136165136 136372288 
739.567 136591232 136812640 137024048 137217104 137390240 137549616 
742.460 137704752 137863632 138028112 138194048 138354464 138505168 
745.352 138647952 138790544 138941408 139104912 139276672 139444784 
748.245 139594768 139715376 139804112 139868160 139919648 139968624 
751.138 140019760 140069760 140111424 140138976 140153200 140161568 
754.031 140177136 140211456 140270672 140353824 140454592 140565552 
756.923 140681888 140802288 140927952 141058784 141192144 141321360 
759.816 141439312 141541168 141626688 141698576 141760896 141814960 
762.709 141857904 141885232 141894240 141890416 141889504 141918304 
765.601 142011440 142201312 142515264 142964528 143539808 144203728 
768.494 144891520 145518080 145982208 146195056 146102000 145702352 
771.387 145060192 144295168 143560512 142987680 142657984 142570320 
774.279 142644672 142738704 142689504 142369488 141704272 140691232 
777.172 139378928 137840608 136139968 134306992 132338496 130206752 
780.065 127879664 125335648 122577936 119633160 116551584 113394736 
782.958 110230056 107128416 104151144 101349264 98760424 96403024 94280648 
786.332 92384288 90698608 89206696 87894288 86752016 85773904 84955504 
789.707 84292792 83780024 83411848 83184016 83094976 83147384 83346968 
793.082 83701224 84216272 84893824 85728008 86703632 87795072 88964944 
796.457 90170432 91364312 92501856 93553456 94510296 95395200 96260536 
799.832 97189176 98276912 99605288 101223088 103113432 105182008 107241864 
803.206 109039808 110303136 110767648 110261024 108737648 106299416 
806.099 103170616 99650960 96058432 92634512 89518488 86729520 84189528 
809.474 81765488 79323200 76780128 74117504 71384240 68666176 66065036 
812.849 63665608 61518244 59643340 58033340 56665660 55509984 54535640 
816.224 53715044 53020636 52429324 51921736 51483600 51107288 50790296 
819.598 50532492 50333468 50190252 50097648 50049608 50042024 50074076 
822.973 50149044 50272380 50450160 50686056 50981364 51334556 51741412 
826.348 52194788 52684404 53196776 53713844 54216772 54689876 55124944 
829.723 55527228 55917680 56335192 56829004 57456980 58277900 59337532 
833.098 60661840 62241136 64023056 65899380 67707824 69260568 70347440 
836.473 70788080 70473344 69383040 67601928 65295168 62689080 60011260 
839.847 57454484 55164556 53216476 51628288 50375888 49413232 48687900 
843.222 48150308 47762264 47492720 47316592 47215108 47172628 47177800 
846.597 47223268 47304104 47415660 47552940 47709044 47876680 48050000 
849.972 48225836 48404448 48588908 48783948 48993904 49221964 49471416 
853.347 49745204 50047268 50382656 50756440 51173116 51636236 52148456 
856.721 52713132 53336156 54025624 54793312 55653008 56619112 57708336 
860.096 58939440 60333496 61915456 63707700 65722988 67953136 70359096 
863.471 72865296 75354192 77687640 79721800 81326528 82420072 82978640 
866.846 83047600 82729192 82176344 81569984 81080016 80862592 81037968 
870.221 81677624 82814592 84442120 86521336 88980152 91716984 94604960 
873.596 97476728 100142896 102405920 104064904 104962848 105004912 104175280 
876.970 102541168 100240336 97462752 94404448 91256408 88180624 85285672 
880.345 82636360 80252480 78120240 76207192 74476544 72901344 71467560 
883.720 70177144 69042056 68078376 67297504 66702000 66284800 66031940 
887.095 65927528 65957152 66112108 66389100 66788128 67309376 67952392 
890.470 68714616 69594024 70591248 71712736 72970008 74381168 75967360 
893.844 77749256 79745288 81965648 84407392 87043992 89817184 92633240 
897.219 95348152 97786048 99757672 101073112 101592152 101242288 100035296 
900.594 98063736 95488000 92516416 89357224 86211648 83250360 80590528 
903.969 78309200 76441384 74989232 73934872 73249488 72902912 72866152 
907.344 73115296 73633208 74407208 75430176 76698640 78212544 79972952 
910.719 81979776 84225848 86692672 89342664 92113232 94923496 97674800 
914.093 100262536 102600928 104629776 106331120 107730248 108895704 
916.986 109926048 110925504 111995792 113206744 114578672 116072104 
919.879 117584504 118966864 120030928 120599424 120541256 119802352 
922.771 118434960 116600040 114564176 112639368 111160928 110439672 
925.664 110689400 112013552 114367824 117571432 121303680 125147488 
928.557 128677640 131474616 133215488 133720728 132945120 130973488 
931.450 127970904 124156288 119752544 114966344 109998176 105022464 
934.342 100196104 95665256 91545288 87925320 84866352 82395232 80516464 
937.717 79216624 78473352 78256464 78525152 79226368 80279064 81572824 
941.092 82978608 84344008 85521712 86393808 86877056 86943960 86619816 
944.467 85978096 85120496 84158160 83201792 82336760 81621200 81085936 
947.841 80736040 80559144 80532376 80631464 80831176 81107784 81440392 
951.216 81807728 82189552 82569272 82934728 83280576 83609512 83929848 
954.591 84253448 84590888 84951200 85339392 85757920 86208048 86690768 
957.966 87206864 87756464 88337824 88947464 89580544 90233032 90902312 
961.341 91588696 92294128 93021136 93771248 94544112 95338000 96151824 
964.716 96985352 97840872 98721496 99630032 100567504 101533040 102524304 
968.090 103539408 104578680 105644664 106741112 107871416 109037000 
970.983 110237016 111470344 112737256 114041208 115388640 116787344 
973.876 118243808 119761016 121337984 122971464 124659216 126402096 
976.768 128205016 130075528 132022472 134052888 136172512 138388000 
979.661 140709696 143153648 145743088 148503296 151458448 154626512 
982.554 158014864 161618592 165417568 169376944 173438288 177511920 
985.447 181481616 185191744 188460624 191111696 192979440 193947248 
988.339 193967136 193064352 191337936 188941360 186080880 182980928 
991.232 179860672 176933488 174367744 172284560 170758320 169812032 
994.125 169432144 169579936 170208960 171272160 172727840 174543616 
997.017 176688944 179132976 181845792 184793360 187940768 191254352 
999.910 194691776 198199712 201709232 205125152 208336864 211232272 
1002.803 213704000 215676848 217116112 218033456 218483200 218557328 
1005.695 218381840 218093632 217839024 217761984 217978560 218577952 
1008.588 219612128 221094112 223007632 225316768 227981264 230960128 
1011.481 234216688 237718816 241429024 245305296 249302320 253371152 
1014.374 257465904 261542944 265546832 269403488 273004864 276197344 
1017.266 278805984 280648192 281566464 281474336 280372608 278366848 
1020.159 275646208 272482368 269196032 266098736 263496816 261640096 
1023.052 260691280 260733968 261758768 263682960 266360400 269614816 
1025.945 273265632 277125184 281023424 284802272 288302208 291379520 
1028.838 293906016 295778368 296938048 297370432 297100800 296178592 
1031.731 294666336 292627296 290116256 287185088 283879712 280236000 
1034.624 276278752 272015424 267438944 262533568 257291072 251723136 
1037.517 245872048 239809008 233624960 227425664 221310384 215368496 
1040.410 209679472 204301296 199272448 194605120 190279168 186239440 
1043.303 182398544 178657904 174916896 171099168 167172624 163153936 
1046.196 159109040 155133248 151346544 147866528 144792080 142203872 
1049.089 140151232 138653376 137704192 137275328 137323696 137793696 
1051.982 138630032 139777584 141182976 142797904 144569552 146433728 
1054.875 148316064 150121184 151738592 153059456 153976144 154401296 
1057.768 154281504 153598016 152375376 150678192 148616688 146333376 
1060.661 143988800 141761680 139817264 138296096 137313504 136941472 
1063.554 137214064 138129072 139651520 141715168 144221408 147052720 
1066.448 150063424 153089248 155972800 158559264 160719184 162363376 
1069.341 163435424 163914176 163804592 163130688 161928944 160243168 
1072.234 158126864 155637072 152833984 149785216 146560976 143239680 
1075.127 139914848 136685712 133661808 130957992 128675416 126902624 
1078.020 125705552 125116944 125137064 125727296 126814272 128280656 
1080.913 129971904 131715464 133315368 134587648 135390640 135635760 
1083.806 135315472 134501072 133340464 132024752 130762544 129767272 
1086.699 129213008 129231440 129903048 131247104 133225304 135740992 
1089.592 138658384 141799440 144962192 147956480 150599680 152743920 
1092.485 154290016 155177904 155389552 154941008 153876160 152258960 
1095.378 150164400 147679344 144890176 141879584 138730816 135519216 
1098.271 132313776 129177632 126156552 123277352 120541872 117927136 
1101.164 115389328 112874768 110337992 107751560 105119240 102476768 
1104.057 99891440 97450312 95241944 93355072 91861352 90809592 90229240 
1107.433 90128016 90496632 91311032 92537368 94132880 96044424 98213472 
1110.808 100572936 103042904 105538528 107961472 110202768 112157920 
1113.701 113725648 114823152 115400000 115438256 114955072 113995024 
1116.594 112625624 110925376 108972136 106843688 104606088 102310000 
1119.487 99993536 97679200 95378360 93098240 90845328 88631768 86478152 
1122.862 84411208 82463096 80667768 79053784 77644928 76458808 75505864 
1126.238 74793872 74329104 74116560 74161208 74464616 75022816 75822688 
1129.613 76840584 78042272 79379288 80793344 82218464 83578992 84803352 
1132.988 85829416 86613024 87140728 87431792 87539960 87539072 87516656 
1136.363 87558320 87727064 88060440 88560904 89197536 89908176 90607608 
1139.739 91204856 91602360 91714816 91478536 90850232 89813064 88372872 
1143.114 86554696 84397368 81948720 79267288 76413536 73450784 70444504 
1146.489 67453520 64532340 61729068 59079612 56611564 54342508 52280440 
1149.864 50426716 48777644 47326788 46065932 44985748 44077132 43329712 
1153.240 42733660 42280700 41963948 41779356 41724936 41799752 42003440 
1156.615 42335560 42795784 43384372 44103204 44955464 45944996 47074944 
1159.990 48346332 49757016 51300288 52963964 54731108 56576044 58464032 
1163.365 60353904 62193188 63924924 65492800 66839992 67917912 68688800 
1166.740 69125192 69213776 68956104 68368024 67477312 66322044 64948180 
1170.116 63401660 61729292 59976144 58180492 56378196 54601348 52876084 
1173.491 51226724 49673828 48233316 46917924 45736212 44691996 43786740 
1176.866 43019364 42388272 41891912 41528888 41298380 41199644 41232212 
1180.241 41396488 41694296 42128868 42704416 43425532 44295612 45315928 
1183.617 46485504 47800104 49250684 50820908 52485888 54206336 55928536 
1186.992 57589980 59116628 60435656 61485720 62217812 62606788 62651188 
1190.367 62373852 61817188 61037300 60102080 59077752 58028532 57014136 
1193.742 56081876 55270700 54609764 54116852 53800992 53662476 53693296 
1197.118 53876380 54185088 54585304 55030904 55468608 55842388 56092132 
1200.493 56163132 56011872 55606572 54935912 54009000 52856996 51526836 
1203.868 50077644 48575980 47082776 45652544 44328088 43136232 42091156 
1207.243 41195488 40444316 39827956 39334620 38952812 38670096 38474196 
1210.619 38354448 38301356 38308488 38373268 38496172 38679768 38926972 
1213.994 39239556 39616608 40054880 40547868 41087412 41662676 42259700 
1217.369 42863620 43457352 44023996 44549672 45023308 45438124 45791180 
1220.744 46082324 46314096 46490592 46619352 46711140 46780624 46846828 
1224.120 46930400 47050832 47224564 47461560 47764300 48127840 48541776 
1227.495 48991492 49459756 49929976 50386304 50815696 51210060 51566796 
1230.870 51889172 52185784 52470712 52762144 53080464 53450660 53900912 
1234.245 54461260 55166440 56051148 57147188 58483328 60079632 61947364 
1237.621 64088756 66497168 69158256 72048192 75135936 78380672 81730928 
1240.996 85132640 88526288 91851400 95053512 98078728 100876984 103404352 
1244.371 105619480 107487984 108983464 110085984 110782488 111066256 
1247.264 110936416 110399936 109471936 108177312 106546480 104611824 
1250.157 102405120 99951696 97273104 94390664 91329272 88124040 84824056 
1253.532 81486112 78178032 74971464 71930400 69114120 66567072 64314932 
1256.908 62365396 60706232 59308700 58127420 57106372 56185380 55298888 
1260.283 54388808 53408916 52326896 51130848 49826948 48437672 46994192 
1263.658 45532752 44089268 42692276 41364340 40120976 38970388 37916840 
1267.033 36960424 36098344 35325268 34634656 34020420 33477660 33004072 
1270.409 32599744 32265742 32002684 31809762 31684286 31622418 31620492 
1273.784 31675338 31784378 31944156 32148804 32389604 32653466 32924104 
1277.159 33183504 33412244 33590736 33702084 33731696 33670428 33516314 
1280.534 33275322 32960958 32591138 32186982 31766876 31344612 30929588 
1283.910 30526868 30140682 29777298 29445742 29158338 28929170 28770888 
1287.285 28693362 28703484 28805268 29001710 29296062 29691714 30191116 
1290.660 30794334 31497564 32291546 33160254 34082236 35026444 35954992 
1294.035 36825152 37589776 38207240 38648040 38899500 38970532 38889608 
1297.411 38702296 38458480 38209228 37999644 37862316 37819588 37882600 
1300.786 38051472 38314964 38649816 39023672 39393392 39712808 39940548 
1304.161 40042128 39997256 39801224 39463092 39002320 38444908 37821900 
1307.536 37164340 36502480 35865700 35277716 34756932 34315508 33958072 
1310.912 33685432 33495412 33386874 33359394 33414104 33551536 33770836 
1314.287 34069304 34443792 34892348 35415488 36015828 36696956 37460164 
1317.662 38302300 39214384 40182944 41192356 42225628 43266964 44300532 
1321.037 45307836 46267796 47154456 47936948 48585352 49071800 49377520 
1324.413 49497928 49447316 49260780 48989156 48700096 48466124 48351108 
1327.788 48408112 48665220 49123220 49757572 50525676 51378376 52267136 
1331.163 53156292 54025432 54868124 55689320 56500340 57315064 58145184 
1334.538 58999936 59882916 60791708 61716384 62638440 63534072 64373688 
1337.914 65126376 65764660 66264996 66611572 66796668 66820936 66692224 
1341.289 66423884 66034408 65544860 64978384 64360848 63716448 63066796 
1344.664 62429396 61814284 61225376 60661536 60118328 59589976 59068908 
1348.039 58546300 58010352 57447864 56848116 56205744 55525876 54826468 
1351.415 54139408 53507248 52975868 52594672 52406108 52442144 52722260 
1354.790 53246288 53992076 54911436 55937316 56985760 57964116 58790852 
1358.165 59396980 59736288 59790928 59569300 59106492 58456072 57693916 
1361.540 56909908 56195184 55641408 55317888 55258392 55456336 55864768 
1364.916 56408908 56991884 57516324 57891304 58038412 57908496 57485840 
1368.291 56793016 55884140 54837520 53741176 52671308 51691176 50843372 
1371.666 50149640 49620116 49258516 49067832 49052512 49215356 49552408 
1375.041 50047936 50674592 51399152 52186684 53009484 53850388 54701192 
1378.417 55563680 56446488 57365920 58342212 59400588 60565532 61852108 
1381.792 63255028 64736100 66223888 67607928 68753864 69529624 69810208 
1385.167 69507336 68590120 67104764 65183228 63020168 60849456 58872652 
1388.542 57220668 55948208 55040120 54441052 54076020 53872892 53764688 
1391.917 53689956 53598144 53444364 53194304 52831212 52358256 51798676 
1395.293 51185196 50550320 49914736 49285832 48664028 48052072 47462448 
1398.668 46922980 46469940 46138076 45951992 45918516 46030380 46271628 
1402.043 46626028 47080744 47626844 48260084 48977956 49777264 50653032 
1405.418 51597128 52598784 53646204 54727424 55832176 56952744 58083372 
1408.794 59219376 60357524 61494384 62627300 63755356 64878040 65994292 
1412.169 67099044 68180280 69219104 70191944 71075328 71855088 72530016 
1415.544 73114160 73632264 74115736 74597464 75105920 75665808 76294864 
1418.919 76998328 77768240 78579912 79396864 80176320 80878640 81475552 
1422.295 81952760 82317968 82600656 82850352 83120696 83453888 83868520 
1425.670 84355032 84884800 85422312 85940504 86424376 86873616 87299624 
1429.045 87721464 88163048 88648800 89207792 89870312 90662272 91601224 
1432.420 92689024 93912432 95244576 96657064 98129688 99653216 101234000 
1435.796 102887672 104630880 106465520 108375728 110333888 112304912 
1438.689 114252624 116134696 117903624 119495664 120833624 121842880 
1441.582 122450752 122600608 122260368 121419928 120096328 118331824 
1444.475 116199640 113794368 111219264 108587432 106003424 103561064 
1447.368 101347296 99428696 97844736 96600440 95669264 95005760 94564752 
1450.743 94320040 94269736 94431632 94825712 95456008 96293832 97279904 
1454.118 98320248 99298912 100098584 100607312 100764448 100595824 100237336 
1457.494 99882256 99700312 99796360 100197808 100892248 101856952 103069320 
1460.869 104503696 106116960 107845416 109587360 111199872 112526136 
1463.762 113407560 113735376 113491160 112756672 111682616 110424288 
1466.655 109112816 107829752 106613648 105481368 104429984 103436424 
1469.548 102447104 101372200 100089688 98459640 96377752 93823392 90893448 
1472.923 87774392 84673392 81743888 79052784 76607048 74394264 72413816 
1476.299 70689416 69254000 68123728 67283336 66682412 66253224 65924944 
1479.674 65646088 65391792 65161556 64971456 64843452 64799444 64858072 
1483.049 65039344 65371072 65886572 66623076 67610600 68860424 70352856 
1486.424 72028168 73792968 75513360 77023176 78147296 78702184 78535280 
1489.800 77567480 75818472 73417384 70561584 67471864 64326616 61234040 
1493.175 58249368 55382140 52628856 50003396 47544360 45318724 43406340 
1496.550 41870348 40738448 39996600 39608004 39527432 39715824 40144636 
1499.925 40787580 41615812 42596436 43689700 44853284 46047656 47225116 
1503.301 48329740 49290620 50002096 50329488 50123420 49262192 47728832 
1506.676 45660196 43318032 40964652 38766848 36775564 34967972 33301902 
1510.051 31749870 30305324 28982830 27803894 26781144 25915134 25192646 
1513.426 24594630 24102006 23699510 23375988 23119758 22919008 22763530 
1516.802 22647410 22572296 22545178 22572400 22653102 22776588 22923200 
1520.177 23073424 23216954 23362840 23536266 23767682 24074092 24450714 
1523.552 24877376 25329434 25790328 26256186 26738502 27256530 27830140 
1526.927 28468754 29169004 29919548 30708692 31530588 32386102 33281866 
1530.302 34225156 35220256 36269296 37371824 38526584 39732488 40986500 
1533.678 42280260 43597268 44916664 46216196 47477492 48681896 49811600 
1537.053 50850936 51779596 52577656 53227076 53715828 54038868 54200180 
1540.428 54216020 54109872 53909244 53639304 53315364 52939784 52503276 
1543.803 51994596 51410600 50766460 50095156 49438892 48831960 48286156 
1547.179 47791596 47322504 46853216 46371012 45886512 45430100 45042528 
1550.554 44754576 44575992 44496728 44497024 44559508 44677120 44855268 
1553.929 45105280 45434152 45836284 46291276 46766376 47226040 47631540 
1557.304 47946680 48148348 48241312 48275340 48330924 48490056 48793248 
1560.680 49233504 49782284 50407364 51085748 51802484 52552600 53338852 
1564.055 54165832 55038428 55956688 56913004 57893996 58882288 59859224 
1567.430 60809928 61721960 62587960 63405880 64180008 64919204 65631220 
1570.805 66321888 66992284 67638704 68252744 68822336 69332200 69758840 
1574.181 70074768 70252192 70272488 70141432 69894768 69590872 69281328 
1577.556 68989120 68701112 68379736 67976768 67448176 66768000 65930696 
1580.931 64952372 63859284 62680624 61437164 60139032 58792520 57406644 
1584.306 55996944 54585452 53192316 51829284 50498136 49194244 47915084 
1587.682 46667568 45468620 44341444 43306832 42375376 41545552 40807272 
1591.057 40149836 39565208 39048940 38595420 38191936 37814996 37436216 
1594.432 37026376 36567428 36057620 35510984 34949980 34395192 33858948 
1597.807 33343758 32846156 32364648 31903892 31475260 31093072 30767160 
1601.183 30499674 30284932 30114862 29983554 29890440 29837770 29825278 
1604.558 29843270 29872268 29882702 29844194 29734044 29541312 29269018 
1607.933 28929170 28537006 28104364 27638712 27147104 26640552 26137756 
1611.308 25663660 25241036 24883308 24589544 24345532 24128380 23913962 
1614.684 23685130 23434104 23165646 22894104 22639660 22421754 22253480 
1618.059 22141752 22086630 22083284 22121460 22185478 22256828 22315738 
1621.434 22348668 22353830 22344376 22344028 22377274 22459124 22588700 
1624.809 22752880 22934202 23120528 23306584 23493804 23685480 23881860 
1628.185 24078154 24267214 24443564 24608376 24768900 24935696 25115966 
1631.560 25308922 25503930 25682714 25824508 25909964 25927902 25879330 
1634.935 25779114 25651254 25521640 25409944 25323532 25260666 25213786 
1638.310 25173686 25129766 25071032 24988654 24877762 24741224 24588598 
1641.686 24434484 24291496 24164390 24048246 23927618 23781960 23590488 
1645.061 23341338 23037714 22700646 22363772 22063064 21825760 21662316 
1648.436 21569576 21535348 21544088 21576576 21607428 21604678 21525600 
1651.811 21326974 20989632 20548842 20099686 19744086 19535530 19459564 
1655.187 19466910 19503680 19531648 19531682 19499832 19443554 19373876 
1658.562 19299708 19222226 19136134 19031922 18901568 18741950 18556768 
1661.937 18354622 18146768 17943294 17751684 17576998 17422110 17288584 
1665.312 17175262 17076654 16982684 16878090 16746212 16573720 16356289 
1668.688 16102208 15830647 15566502 15329462 15128709 14961865 14820145 
1672.063 14691186 14562712 14423383 14261979 14069250 13841541 13585611 
1675.438 13320231 13069252 12853603 12680977 12545865 12432651 12323624 
1678.813 12205867 12075162 11937923 11806174 11691349 11595202 11506425 
1682.188 11401032 11250506 11032870 10749820 10433557 10136414 9902318 
1685.564 9744280 9646767 9580540 9519742 9446627 9354124 9243769 9121126 
1689.421 8992935 8863971 8738831 8621669 8517651 8431156 8362851 8307019 
1693.279 8249978 8172991 8057502 7894194 7692836 7483413 7303810 7178748 
1697.136 7108720 7071336 7034157 6962031 6830134 6634854 6400216 6171485 
1700.993 5988963 5869485 5802388 5764679 5732984 5691152 5631434 5551989 
1704.851 5455984 5348963 5237944 5129066 5027623 4937565 4860961 4797302 
1708.708 4744071 4697042 4651861 4606383 4561613 4521032 4488992 4467868 
1712.566 4457122 4453038 4450192 4443631 4430978 4412065 4387866 4358145 
1716.423 4320896 4273211 4215426 4153033 4096837 4057771 4042621 4050714 
1720.281 4075029 4105065 4131089 4146844 4151528 4149186 4146242 4148785 
1724.138 4159289 4176551 4196958 4217099 4235535 4252666 4269062 4284521 
1727.995 4296334 4300650 4294627 4278297 4255242 4230482 4207330 4183710 
1731.853 4151160 4095733 4004697 3873895 3715362 3556017 3427188 3346976 
1735.710 3314188 3314121 3327176 3337160 3333220 3311884 3275861 3232129 
1739.568 3188902 3151787 3123752 3105030 3095152 3094752 3103862 3122451 
1743.425 3148316 3177954 3207527 3234499 3258801 3282037 3306242 3331918 
1747.282 3356726 3376194 3385344 3380335 3360633 3328445 3288647 3246449 
1751.140 3206592 3172647 3146947 3131094 3126122 3130961 3142809 3155959 
1754.997 3163969 3160297 3142175 3111972 3076899 3046267 3026580 3018573 
1758.855 3017305 3014902 3002624 2975767 2935101 2886900 2840373 2803221 
1762.712 2779410 2768106 2765605 2767573 2771174 2774575 2776643 2776143 
1766.570 2771307 2761604 2748032 2734461 2725725 2725492 2733494 2744764 
1770.427 2750833 2742197 2713422 2666179 2610908 2561644 2529248 2517250 
1774.284 2521083 2532281 2542680 2548045 2549245 2550312 2555578 2566510 
1778.142 2580742 2593142 2598542 2594275 2582342 2567877 2556544 2551412 
1781.999 2551412 2552045 2548779 2538813 2522949 2505353 2491623 2485192 
1785.857 2486824 2494222 2504420 2515451 2527115 2540347 2555345 2570143 
1789.714 2580409 2579909 2563777 2531281 2486891 2439973 2399690 2372204 
1793.572 2357412 2351449 2348750 2345852 2342188 2339689 2340322 2344686 
1797.429 2350649 2354114 2351349 2340622 2323533 2304046 2287124 2275366 
1801.286 2269105 2266040 2263975 2262010 2261877 2266174 2276765 2293886 
1805.144 2314405 2333859 2348251 2355980 2358345 2358645 2360110 2363975 
1809.001 2369305 2372837 2371837 2365341 2355213 2345086 2337824 2334592 
1812.859 2333493 2331627 2326297 2317670 2308942 2305145 2310941 2328863 
1816.716 2357379 2392227 2428344 2462032 2491823 2518917 2544979 2570676 
1820.573 2595142 2616342 2632476 2643010 2649011 2652478 2655545 2658945 
1824.431 2662579 2666246 2670813 2678748 2693184 2715956 2745965 2778710 
1828.288 2806989 2824398 2827633 2819128 2806255 2799152 2804655 2824531 
1832.146 2854981 2889402 2921724 2948378 2970129 2990247 3012667 3039894 
1836.003 3071293 3104763 3137970 3170711 3204857 3244313 3292153 3349547 
1839.861 3414998 3484567 3553979 3620463 3682479 3740560 3795775 3849358 
1843.718 3902279 3955675 4011419 4071484 4137444 4208969 4282513 4352455 
1847.575 4411296 4453473 4475668 4478848 4466395 4443129 4411932 4373139 
1851.433 4324678 4264344 4191907 4110316 4025230 3942234 3865237 3794805 
1855.290 3728228 3662095 3594236 3525652 3459283 3398734 3345374 3297628 
1859.148 3252158 3205191 3155458 3105164 3059380 3022810 2998053 2983474 
1863.005 2973966 2964391 2950880 2933600 2915420 2900776 2891870 2887801 
1866.863 2884232 2876460 2861084 2839405 2816727 2799552 2793416 2799152 
1870.720 2814159 2833669 2854147 2873892 2893138 2912184 2930331 2944275 
1874.577 2949679 2942540 2922025 2890970 2855681 2822997 2797485 2780144 
1878.435 2768940 2759936 2750400 2740363 2731560 2726659 2726592 2729393 
1882.292 2730860 2726726 2714556 2695485 2673181 2652245 2635910 2624442 
1886.150 2615475 2606009 2594475 2581742 2571076 2565844 2567810 2575343 
1890.007 2584709 2591309 2592675 2589175 2583509 2578509 2575809 2574743 
1893.865 2573376 2569610 2564010 2558678 2558044 2565377 2580876 2602008 
1897.722 2623675 2641677 2654345 2662879 2671280 2683249 2700819 2722191 
1901.579 2743931 2762504 2776476 2787014 2797151 2809690 2825165 2841673 
1905.437 2855548 2863786 2865587 2862819 2858916 2855981 2854214 2850878 
1909.294 2842407 2826632 2805021 2782545 2765938 2760136 2766705 2782745 
1913.152 2802654 2820996 2834603 2843174 2848144 2850912 2850078 2843007 
1917.009 2826465 2800086 2768239 2738796 2719624 2715389 2724392 2739830 
1920.866 2752067 2753467 2741230 2719024 2694651 2675348 2665746 2664879 
1924.724 2667913 2669047 2665846 2658912 2651844 2648444 2649511 2652811 
1928.581 2654011 2649244 2637576 2621875 2607075 2597575 2594575 2596175 
1932.439 2598442 2598442 2596375 2595808 2601175 2614842 2635176 2656645 
1936.296 2672247 2677081 2671814 2661946 2655311 2658045 2671680 2692584 
1940.154 2713889 2729593 2737362 2739596 2741497 2747665 2758936 2772141 
1944.011 2782445 2786880 2786447 2786213 2792182 2808390 2833736 2862352 
1947.868 2887301 2904112 2913585 2921624 2935702 2960721 2995418 3033020 
1951.726 3063484 3079535 3079235 3066654 3049003 3032619 3019774 3007896 
1955.583 2992182 2969762 2942707 2917788 2903045 2903878 2918755 2939971 
1959.441 2957218 2962256 2953682 2936736 2920157 2909949 2907748 2909015 
1963.298 2907848 2901210 2891470 2886433 2895139 2922625 2966793 3018005 
1967.156 3064552 3098056 3117778 3129726 3141140 3157460 3176185 3189669 
1971.013 3187967 3166272 3126956 3080636 3040394 3015803 3010865 3023344 
1974.870 3049770 3089646 3149117 3236769 3357160 3504607 3659522 3794237 
1978.728 3884126 3913981 3886633 3817535 3730100 3644419 3572888 3517000 
1982.585 3472409 3435002 3404278 3384041 3379433 3390753 3412159 3431729 
1986.443 3436205 3417903 3378632 3329180 3284274 3256164 3249621 3260571 
1990.300 3279199 3296026 3307043 3313921 3322168 3335857 3354189 3370517 
1994.157 3376762 3367445 3343136 3311484 3283439 3267982 3268650 3281503 
1998.015 3298663 3312285 3318529 3319196 3319063 3322101 3328812 3334589 
2001.872 3332252 3317794 3292053 3261906 3238171 3230960 3246015 3281569 
2005.730 3331684 3388783 3447727 3507280 3567509 3629985 3692170 3750052 
2009.587 3798683 3834950 3859521 3876302 3890812 3906258 3923410 3940228 
2013.445 3953970 3964603 3974367 3986472 4003895 4026100 4048708 4066099 
2017.302 4075096 4077002 4079310 4091217 4119047 4163704 4218906 4273713 
2021.159 4317316 4344992 4357208 4360554 4361492 4363466 4365374 4363433 
2025.017 4353928 4338165 4322068 4314270 4321164 4343720 4375884 4408350 
2028.874 4433288 4448518 4458427 4471952 4496324 4534090 4579794 4624198 
2032.732 4659095 4682071 4698348 4716034 4744305 4786515 4838747 4892224 
2036.589 4938604 4973760 4999032 5020618 5043277 5068922 5093159 5109587 
2040.447 5111163 5096646 5069726 5038450 5010026 4988407 4971548 4955327 
2044.304 4935990 4914073 4895274 4889209 4903919 4942826 5001713 5069793 
2048.161 5135772 5188246 5220237 5229527 5216582 5183385 5132519 5068352 
2052.019 4998931 4933711 4885489 4863441 4871549 4905226 4952981 5000339 
2055.876 5034160 5048708 5045624 5032316 5017501 5006875 5001579 4998831 
2059.734 4994909 4988508 4981402 4978687 4984586 5000339 5022528 5044920 
2063.591 5060575 5065636 5060809 5049814 5038752 5031780 5030271 5033020 
2067.448 5038048 5044082 5051490 5061547 5074620 5088399 5098256 5097987 
2071.306 5083571 5054306 5014383 4971179 4932370 4904154 4889175 4886327 
2075.163 4892894 4905494 4921848 4939777 4957271 4971783 4980263 4981000 
2079.021 4974933 4966018 4959885 4962566 4977213 5002618 5033858 5063726 
2082.878 5085985 5097183 5097719 5089807 5076498 5059535 5039288 5015020 
2086.736 4986966 4956869 4928081 4903819 4885522 4871214 4856940 4837808 
2090.593 4811273 4778642 4745277 4718814 4705449 4708531 4726619 4755326 
2094.450 4788425 4820252 4848363 4871717 4890348 4904556 4914241 4919435 
2098.308 4921512 4923557 4928919 4940782 4959684 4982743 5005635 5023367 
2102.165 5033590 5037814 5040730 5048037 5064028 5089505 5121455 5155219 
2106.023 5186671 5213564 5237106 5259944 5284092 5309818 5335478 5358355 
2109.880 5376538 5390292 5401262 5412166 5423975 5435450 5442764 5442797 
2113.738 5433034 5415051 5393278 5373351 5360435 5356175 5359026 5364796 
2117.595 5369728 5371036 5368587 5363958 5358825 5354095 5349499 5344233 
2121.452 5338497 5334472 5335176 5344233 5362985 5389957 5420821 5450112 
2125.310 5473599 5490008 5501047 5510108 5520511 5533430 5547156 5558701 
2129.167 5564574 5563165 5555345 5544035 5532793 5524940 5522994 5529403 
2133.025 5546217 5575918 5619384 5676180 5741143 5806149 5862533 5902937 
2136.882 5925844 5934477 5936761 5940724 5951742 5969344 5990038 6007306 
2140.740 6017284 6019972 6019636 6022156 6031395 6047723 6067177 6084515 
2144.597 6095402 6098527 6096477 6093453 6091975 6091572 6088447 6076653 
2148.454 6053166 6017385 5972066 5921075 5866966 5808835 5743023 5665706 
2152.312 5574408 5471452 5361844 5251426 5144657 5044685 4952545 4874163 
2156.169 4821860 4812915 4869037 5005400 5222518 5499537 5800742 6083911 
2160.027 6312024 6465522 6542510 6555864 6524784 6467473 6399005 6327589 
2163.884 6258875 6195918 6142314 6099132 6064825 6035628 6004954 5967363 
2167.741 5920168 5864682 5804906 5744970 5686016 5625358 5557963 5478565 
2171.599 5386333 5285535 5186570 5101071 5039054 5005635 4999736 5015121 
2175.456 5043378 5076532 5107642 5130776 5141069 5134196 5108212 5064530 
2179.314 5009288 4951841 4902478 4868366 4851077 4845146 4840891 4829700 
2183.171 4806516 4772880 4734826 4700191 4673664 4656148 4643957 4632336 
2187.029 4619410 4606450 4598112 4599082 4610970 4630862 4652263 4667602 
2190.886 4672123 4666396 4655143 4645866 4644024 4651861 4666798 4684080 
2194.743 4699052 4709837 4717173 4724375 4733687 4746550 4761725 4776163 
2198.601 4788223 4797202 4803969 4810134 4817103 4823703 4828025 4828293 
2202.458 4823134 4814021 4803634 4795024 4789698 4788693 4790803 4795962 
2206.316 4804572 4818376 4838680 4865552 4895575 4922652 4940581 4944536 
2210.173 4934013 4913235 4889309 4870410 4861665 4864044 4874934 4890180 
2214.031 4905192 4918262 4929455 4940313 4951574 4963471 4973693 4979961 
2217.888 4980430 4974732 4963136 4947116 4927009 4902947 4874833 4844174 
2221.745 4812714 4784672 4763534 4751876 4748694 4750938 4754087 4754020 
2225.603 4748928 4739951 4729835 4721762 4717206 4716034 4716905 4718178 
2229.460 4719685 4722499 4728729 4739113 4753451 4768927 4781858 4789798 
2233.318 4792076 4790971 4789664 4791976 4799916 4813317 4830404 4848497 
2237.175 4866222 4883210 4900267 4918496 4938336 4959014 4979726 4999601 
2241.032 5018875 5038484 5059737 5082633 5106570 5129334 5148613 5163199 
2244.890 5173727 5181875 5190158 5200553 5213162 5227079 5240828 5252935 
2248.747 5263332 5273125 5283086 5293417 5303646 5312099 5317700 5321021 
2252.605 5323839 5329340 5339772 5354967 5372344 5387306 5395089 5393009 
2256.462 5381737 5364930 5347755 5334438 5326522 5322531 5319545 5313608 
2260.320 5302909 5287815 5270744 5254478 5241499 5232444 5227045 5224262 
2264.177 5223658 5225503 5230298 5238179 5248307 5258703 5267189 5272018 
2268.034 5273024 5271113 5268530 5267055 5267624 5270006 5272957 5275439 
2271.892 5276613 5276513 5275976 5275171 5274332 5273225 5272086 5271347 
2275.749 5272622 5277451 5287178 5301902 5320250 5339638 5358355 5375363 
2279.607 5390929 5406664 5424411 5445481 5469505 5495074 5520208 5543364 
2283.464 5563635 5580516 5593941 5603105 5606326 5602299 5589713 5569172 
2287.322 5542861 5514235 5486484 5462224 5442462 5426290 5412568 5400256 
2291.179 5389654 5381704 5378315 5380261 5387541 5398746 5411394 5423472 
2295.036 5433336 5441254 5447696 5454306 5461620 5470009 5478968 5487625 
2298.894 5495041 5500779 5504235 5505209 5503766 5500208 5495175 5490075 
2302.751 5486048 5484035 5484169 5485444 5486015 5484135 5478632 5470042 
2306.609 5460278 5451991 5447461 5447998 5452293 5458534 5463936 5466284 
2310.466 5464607 5459473 5452092 5443770 5435517 5427565 5419781 5412468 
2314.323 5405791 5400289 5396599 5394250 5392607 5390325 5386736 5381938 
2318.181 5377209 5374760 5376437 5383951 5396968 5414044 5432162 5447897 
2322.038 5457426 5456655 5442563 5411931 5363119 5296536 5214738 5123132 
2325.896 5027925 4936593 4854997 4786884 4733184 4692253 4661071 4637159 
2329.753 4618338 4604206 4594629 4589438 4587998 4588836 4590845 4593256 
2333.611 4596671 4602532 4611875 4625438 4641914 4659832 4677047 4692052 
2337.468 4704914 4716939 4729332 4743535 4759815 4776900 4793885 4810034 
2341.325 4825512 4840925 4857477 4875370 4894067 4912732 4931130 4950568 
2345.183 4974297 5006037 5049647 5106469 5175169 5251627 5330715 5406664 
2349.040 5474405 5531115 5574643 5604917 5622572 5628883 5625794 5615121 
2352.898 5598808 5578771 5556453 5532994 5509235 5485813 5463936 5444978 
2356.755 5430551 5422164 5420989 5426357 5436523 5448803 5460547 5469405 
2360.613 5474405 5476250 5476250 5475881 5476820 5480243 5486820 5497054 
2364.470 5511115 5529236 5551116 5576153 5603641 5632978 5664297 5698035 
2368.327 5735133 5775995 5820824 5868444 5917279 5965549 6012211 6056829 
2372.185 6099636 6140969 6180929 6219413 6255513 6289399 6321908 6354924 
2376.042 6391069 6433002 6482136 6538541 6600572 6665807 6732062 6797520 
2379.900 6861640 6924525 6986543 7047627 7107137 7164263 7217691 7267049 
2383.757 7312807 7355671 7397023 7437974 7478828 7519720 7560515 7600470 
2387.615 7638843 7675029 7707945 7736615 7760057 7777699 7789843 7797804 
2391.472 7802999 7807216 7811501 7815853 7819631 7821993 7822397 7821250 
2395.329 7819732 7819732 7822836 7830225 7841897 7857518 7876278 7897399 
2399.187 7920547 7945316 7971200 7997355 8023107 8047848 8072084 8097064 
2403.044 8125050 8158777 8199564 8248223 8303608 8364439 8428757 8495349 
2406.902 8563980 8635121 8709385 8787212 8867724 8950179 9033022 9115000 
2410.759 9195269 9273555 9349451 9422754 9492784 9558896 9620241 9676513 
2414.616 9727845 9774236 9816259 9854423 9888996 9920997 9951169 9980494 
2418.474 10009992 10039933 10070045 10099142 10125901 10149167 10168433 
2421.849 10184443 10198113 10210596 10222876 10235225 10248048 10261483 
2425.224 10276987 10296326 10322011 10356452 10400568 10454532 10516988 
2428.600 10586244 10660774 10740072 10824039 10913118 11007653 11106797 
2431.975 11209092 11313145 11417734 11522654 11629064 11738188 11851425 
2435.350 11969564 12092367 12219192 12349294 12481922 12617185 12755219 
2438.725 12895447 13037121 13178807 13319274 13457566 13594158 13730315 
2442.101 13868498 14010763 14158552 14312110 14470415 14631417 14793026 
2445.476 14953668 15112413 15268780 15423520 15577045 15730178 15883435 
2448.851 16036915 16190141 16342700 16493624 16641917 16787230 16929592 
2452.226 17069452 17207736 17344928 17480814 17614606 17744542 17869058 
2455.602 17986600 18096850 18199768 18296144 18386458 18470566 18547188 
2458.977 18614832 18671418 18715106 18744926 18760738 18762328 18750876 
2462.352 18727318 18693070 18650352 18601690 18550406 18499990 18453452 
2465.727 18413316 18380720 18356732 18341246 18334438 18336752 18349058 
2469.103 18372840 18409342 18460126 18526338 18608676 18707358 18821944 
2472.478 18951198 19092612 19243698 19401006 19561524 19723072 19884368 
2475.853 20044616 20203602 20360630 20514140 20661900 20800916 20928156 
2479.228 21040964 21137694 21217362 21280238 21326836 21358716 21377544 
2482.604 21385516 21384470 21375978 21361116 21339746 21311420 21275332 
2485.979 21231140 21179336 21121936 21060892 20998744 20937196 20875970 
2489.354 20814124 20749440 20679518 20602590 20517856 20425084 20324936 
2492.729 20217902 20103920 19982612 19852770 19714058 19565440 19407174 
2496.104 19239300 19062560 18878174 18687086 18490724 18290476 18087936 
2499.480 17884112 17680070 17475712 17271242 17066384 16861520 16657513 
2502.855 16456146 16259689 16069956 15888657 15716780 15554242 15400588 
2506.230 15255155 15117079 14986009 14861424 14742909 14630115 14522796 
2509.605 14420301 14322760 14229931 14141950 14058913 13980649 13907293 
2512.981 13838840 13775937 13718961 13668489 13625270 13588996 13559493 
2516.356 13536248 13518986 13507501 13502100 13503570 13511808 13527224 
2519.731 13549033 13575937 13606911 13640998 13676866 13714310 13752886 
2523.106 13791534 13829604 13866821 13902879 13938221 13973943 14010660 
2526.482 14048304 14085644 14120110 14148966 14169438 14180153 14181385 
2529.857 14174572 14161735 14144756 14125142 14102620 14076984 14048168 
2533.232 14016136 13981882 13946707 13911329 13876195 13841541 13806583 
2536.607 13771184 13736197 13702376 13670985 13642776 13617919 13595560 
2539.983 13574740 13554400 13534231 13514713 13497076 13481867 13469904 
2543.358 13460608 13452918 13445707 13437744 13428517 13418162 13406919 
2546.733 13394788 13381734 13367485 13351870 13334855 13317293 13299766 
2550.108 13283539 13269532 13258669 13251221 13247156 13246541 13248898 
2553.484 13253408 13258737 13263587 13266525 13266696 13263929 13258976 
2556.859 13253031 13247327 13242545 13238479 13234004 13227685 13217950 
2560.234 13203672 13184408 13160261 13131778 13099745 13065188 13029234 
2563.609 12993043 12958120 12925553 12896300 12870770 12848825 12829884 
2566.985 12813810 12800160 12789683 12782892 12780060 12781153 12785520 
2570.360 12792243 12800023 12808691 12817871 12828246 12840190 12853671 
2573.735 12868313 12883091 12897257 12910295 12922720 12935111 12948697 
2577.110 12964605 12983041 13004106 13028005 13054227 13083252 13115420 
2580.486 13150698 13188575 13227788 13266730 13303661 13337519 13367964 
2583.861 13395881 13422365 13449193 13477833 13509450 13544999 13585337 
2587.236 13630706 13681174 13735923 13793518 13851736 13908285 13961796 
2590.611 14011447 14058024 14103100 14148488 14195798 14245304 14296700 
2593.987 14348958 14401017 14452259 14502652 14552262 14601638 14650607 
2597.362 14698727 14745411 14790181 14833001 14874557 14915843 14958092 
2600.737 15002403 15049155 15098657 15150530 15204504 15260029 15316590 
2604.112 15373982 15432035 15490919 15551289 15613830 15679711 15749315 
2607.488 15822915 15900206 15980123 16061498 16143749 16226565 16310291 
2610.863 16395686 16483437 16573306 16665088 16757645 16849880 16940822 
2614.238 17030132 17117220 17202048 17284344 17363308 17438630 17510240 
2617.613 17578342 17643766 17707506 17770152 17831702 17891740 17949370 
2620.989 18004384 18057194 18108836 18161000 18215592 18273060 18333192 
2624.364 18394408 18455078 18513474 18568872 18621542 18672628 18723478 
2627.739 18775130 18827964 18881876 18936488 18991142 19045562 19099676 
2631.114 19153378 19206260 19257968 19307744 19355168 19399898 19442342 
2634.490 19483128 19522984 19562702 19602702 19643468 19684690 19726678 
2637.865 19769016 19811674 19854678 19898174 19942090 19986774 20032540 
2641.240 20079870 20128976 20180032 20232690 20286258 20340004 20393204 
2644.615 20445400 20496982 20548426 20600782 20654986 20711662 20770990 
2647.990 20832862 20896934 20962752 21029974 21098352 21167194 21236360 
2651.366 21304842 21372080 21437728 21501646 21564666 21627452 21691258 
2654.741 21757094 21825622 21897088 21971146 22047272 22124494 22202252 
2658.116 22279500 22355888 22430582 22503230 22573726 22641792 22707840 
2661.491 22772014 22835044 22897004 22958864 23020628 23082790 23145304 
2664.867 23208076 23270890 23333504 23395360 23456312 23516330 23575202 
2668.242 23633310 23691078 23749344 23808422 23869014 23930732 23993582 
2671.617 24056686 24119098 24180082 24239466 24297068 24353942 24411000 
2674.992 24469466 24530150 24593298 24658382 24724492 24790860 24856992 
2678.368 24922712 24988794 25056114 25125938 25198968 25275452 25355146 
2681.743 25437700 25522658 25609954 25700150 25793492 25890656 25992130 
2685.118 26097782 26207506 26321342 26439224 26561186 26687692 26818960 
2688.493 26954920 27095330 27239702 27387228 27537416 27689740 27844096 
2691.869 28000520 28159194 28320084 28483862 28650782 28821448 28996112 
2695.244 29175348 29358736 29545994 29736598 29929734 30124806 30321916 
2698.619 30521286 30723236 30928378 31136818 31348526 31563052 31779710 
2701.994 31997974 32217208 32437016 32656398 32875032 33091776 33305872 
2705.370 33516210 33722456 33923932 34120412 34311632 34497200 34676716 
2708.745 34849660 35015632 35174552 35326812 35473120 35614372 35751852 
2712.120 35886392 36018276 36147748 36274016 36396212 36512644 36621968 
2715.495 36722524 36813432 36894224 36965040 37026340 37078880 37123596 
2718.871 37160916 37191628 37216464 37236716 37254156 37270872 37289500 
2722.246 37312788 37343048 37382480 37432500 37493972 37567452 37652612 
2725.621 37748776 37854944 37969632 38091256 38219036 38352208 38490632 
2728.996 38635112 38785908 38943096 39106512 39274624 39445492 39617332 
2732.372 39788188 39956748 40122216 40284180 40442388 40596288 40745256 
2735.747 40888740 41026372 41158184 41284320 41405456 41522140 41634960 
2739.122 41744232 41850428 41954020 42055856 42157092 42258824 42362408 
2742.497 42469084 42579844 42695532 42817176 42945324 43080576 43223152 
2745.873 43372728 43528292 43688676 43851796 44015524 44178104 44337300 
2749.248 44491336 44638488 44777388 44906484 45025184 45132736 45228696 
2752.623 45312948 45385116 45444672 45490916 45523404 45541328 45544972 
2755.998 45534628 45510640 45473588 45423444 45359660 45280916 45185864 
2759.374 45073296 44942608 44793808 44627288 44444240 44245972 44033564 
2762.749 43808544 43572616 43327808 43077064 42823868 42571624 42324236 
2766.124 42084912 41855900 41639116 41435744 41246460 41072296 40914008 
2769.499 40772916 40650132 40546560 40462464 40397660 40350968 40320464 
2772.875 40303812 40298684 40302576 40313444 40329844 40350276 40373804 
2776.250 40399148 40424680 40448496 40468244 40481412 40485340 40478212 
2779.625 40458644 40426060 40381076 40324756 40258952 40186032 40108732 
2783.000 40029520 39950868 39874876 39802932 39736156 39674904 39618928 
2786.375 39567460 39519012 39471944 39423612 39371948 39314560 39249672 
2789.751 39176528 39094980 39006200 38911676 38813296 38713380 38613924 
2793.126 38516732 38423404 38335700 38254820 38182096 38118496 38064528 
2796.501 38020512 37986516 37963124 37950468 37949600 37961280 37986484 
2799.876 38026084 38079972 38147980 38228948 38321696 38424672 38536688 
2803.252 38656368 38782536 38914140 39050100 39189400 39331320 39475100 
2806.627 39620092 39765384 39910108 40052592 40190904 40322792 40445952 
2810.002 40558524 40658832 40746132 40820120 40880916 40928824 40964360 
2813.377 40987992 41000372 41002196 40994256 40977580 40953472 40923764 
2816.753 40890452 40856924 40826820 40804504 40794680 40802032 40830240 
2820.128 40882336 40959916 41063048 41191192 41342988 41516748 41710564 
2823.503 41922236 42149496 42389732 42640040 42897336 43158188 43419600 
2826.878 43678564 43932660 44180272 44420164 44652444 44877972 45098772 
2830.254 45316956 45535732 45758116 45986840 46224340 46472968 46734904 
2833.629 47012728 47309532 47629064 47975540 48354000 48768892 49225264 
2837.004 49728112 50282576 50895188 51573808 52328320 53171684 54118840 
2840.379 55188220 56400720 57779032 59348432 61136800 63171976 65483868 
2843.755 68101240 71047536 74337400 77967288 81910384 86101952 90436768 
2847.130 94771640 98913648 102649688 105763056 108046072 109345504 109575160 
2850.505 108731088 106887976 104190520 100834904 97024216 92965112 88843768 
2853.880 84803184 80957560 77385096 74129568 71212752 68635056 66382340 
2857.256 64429372 62744052 61292680 60039184 58951244 57999896 57159016 
2860.631 56407584 55728120 55106132 54531168 53995420 53493868 53024456 
2864.006 52586892 52182680 51814800 51486956 51204356 50972236 50796368 
2867.381 50681776 50631920 50647636 50726760 50863784 51049372 51271092 
2870.757 51515048 51764444 52003036 52215192 52387152 52509148 52576572 
2874.132 52590332 52556748 52486896 52394964 52294640 52199312 52119432 
2877.507 52062316 52032356 52032244 52063172 52125968 52221544 52350220 
2880.882 52511912 52706360 52931700 53185276 53463440 53761500 54073764 
2884.258 54394220 54716864 55035872 55347060 55647888 55937884 56219132 
2887.633 56495240 56772096 57055660 57352384 57668528 58009440 58380832 
2891.008 58788272 59238436 59740284 60304564 60944376 61675904 62516056 
2894.383 63481228 64586088 65839104 67239976 68774976 70416016 72117504 
2897.759 73815080 75436528 76902408 78136304 79080648 79700344 79991360 
2901.134 79979368 79718896 79283752 78751120 78202272 77708528 77325984 
2904.509 77101592 77069704 77254968 77678056 78354872 79299136 80524080 
2907.884 82042760 83869280 86020024 88511704 91359528 94571544 98143976 
2911.260 102051456 106239616 110627968 115098480 119502648 123682384 
2914.153 127463280 130683840 133216512 134970832 135912288 136060416 
2917.046 135486544 134295936 132609632 130557432 128251536 125783416 
2919.939 123222648 120611200 117972264 115314824 112639840 109947040 
2922.832 107239280 104525784 101823104 99154792 96546024 94024168 91612800 
2926.207 89329144 87184752 85183624 83323448 81596488 79991040 78493280 
2929.582 77086840 75755936 74485864 73263448 72078976 70924872 69795496 
2932.958 68686440 67593520 66512348 65439292 64371572 63308308 62251004 
2936.333 61203252 60169780 59154860 58162952 57196852 56259560 55354324 
2939.708 54485676 53659364 52882636 52162320 51504228 50911952 50386228 
2943.083 49924512 49521844 49170604 48861916 48585352 48330592 48088048 
2946.458 47850524 47614640 47381772 47158664 46955500 46786340 46665280 
2949.834 46603676 46609688 46685648 46828156 47028088 47271776 47542848 
2953.209 47821780 48089860 48329520 48524808 48664252 48739976 48747836 
2956.584 48687900 48562268 48376000 48135132 47847192 47520888 47164948 
2959.959 46788076 46399440 46006176 45615224 45231860 44860448 44504588 
2963.335 44166808 43848900 43552068 43276372 43020976 42784448 42565408 
2966.710 42362520 42175092 42003148 41847400 41708956 41589048 41489112 
2970.085 41410776 41355448 41325204 41321632 41345648 41397324 41474968 
2973.460 41574792 41690432 41813432 41933408 42038116 42115284 42153256 
2976.836 42141904 42074728 41949864 41770420 41543800 41282056 40999828 
2980.211 40711956 40432788 40174660 39946180 39752496 39594828 39470892 
2983.586 39374816 39298056 39231104 39163040 39083816 38986048 38864352 
2986.961 38717004 38545340 38353184 38145628 37927940 37704936 37479344 
2990.337 37252384 37023740 36792012 36555676 36314324 36068748 35821652 
2993.712 35577220 35339536 35112688 34898884 34698320 34508612 34325764 
2997.087 34145464 33962984 33775424 33581176 33380576 33175454 32968286 
3000.462 32762290 32560174 32364186 32175634 31995262 31822954 31658090 
3003.838 31500448 31349416 31205206 31068298 30939228 30818592 30706346 
3007.213 30601914 30504190 30412172 30324546 30240704 30160286 30083362 
3010.588 30009720 29939462 29871772 29806328 29742736 29680894 29621048 
3013.963 29563480 29508542 29456308 29406490 29358876 29313466 29270188 
3017.339 29229854 29192996 29160182 29131480 29106324 29083932 29063560 
3020.714 29044856 29027958 29013506 29002098 28994378 28990340 28989878 
3024.089 28992570 28998770 29009114 29025336 29049568 29083826 29129318 
3027.464 29185944 29252110 29324350 29398336 29469216 29531914 29582738 
3030.840 29619240 29640524 29647334 29641658 29626192 29603524 29575964 
3034.215 29545072 29511912 29477478 29442550 29408334 29376248 29347178 
3037.590 29321904 29300386 29281988 29266038 29251898 29239458 29228932 
3040.965 29221206 29216458 29215428 29218016 29223722 29231872 29242186 
3044.341 29254060 29267280 29281494 29296382 29311624 29327504 29344590 
3047.716 29364124 29387664 29416346 29450882 29490918 29535356 29582492 
3051.091 29630696 29678802 29726272 29772792 29818286 29862152 29903610 
3054.466 29941770 29976134 30007234 30036634 30066708 30100054 30138728 
3057.842 30183906 30235942 30294240 30357982 30426600 30499212 30575498 
3061.217 30654678 30735684 30817312 30898670 30979474 31059936 31141268 
3064.592 31224964 31311810 31402096 31494714 31587992 31680260 31769764 
3067.967 31855580 31937520 32015954 32091186 32163468 32232836 32299220 
3071.343 32362326 32422234 32479290 32533780 32586244 32637250 32687652 
3074.718 32738454 32790732 32845832 32904874 32968178 33035640 33105970 
3078.093 33177350 33247956 33316068 33380612 33441622 33499602 33555868 
3081.468 33611676 33668248 33726432 33786452 33847916 33910244 33972552 
3084.844 34034396 34095932 34157400 34220280 34286032 34355920 34430804 
3088.219 34510656 34594288 34680196 34766552 34851848 34935152 35016744 
3091.594 35096988 35177500 35259856 35345396 35434976 35529356 35628004 
3094.969 35730088 35834464 35939584 36044228 36147780 36249668 36350352 
3098.344 36450264 36549764 36648500 36746536 36843044 36938304 37032620 
3101.720 37127276 37223900 37324160 37428740 37537644 37650012 37764540 
3105.095 37879704 37994764 38109200 38223304 38337148 38450556 38562900 
3108.470 38673540 38781632 38887036 38990144 39092260 39194696 39298964 
3111.845 39406416 39517628 39632724 39751516 39873024 39995876 40118980 
3115.221 40240700 40359984 40476320 40590104 40702060 40813644 40925948 
3118.596 41039084 41152832 41266136 41377500 41485976 41591456 41694408 
3121.971 41796032 41897608 42000156 42104188 42209928 42317152 42426044 
3125.346 42536500 42648596 42762072 42876308 42990540 43103956 43216088 
3128.722 43326964 43436880 43546756 43656984 43767792 43879360 43991436 
3132.097 44104232 44218496 44334840 44454260 44577316 44703672 44832564 
3135.472 44962816 45093588 45224432 45355172 45485584 45615552 45744200 
3138.847 45870344 45992656 46111100 46225816 46338500 46451724 46567488 
3142.223 46687268 46811804 46940068 47070772 47202328 47333440 47463188 
3145.598 47591276 47717368 47841536 47964332 48086788 48210396 48337220 
3148.973 48469084 48607108 48751140 48899592 49049584 49198028 49341960 
3152.348 49479956 49611648 49737732 49859952 49980160 50099620 50219228 
3155.724 50339232 50459500 50579356 50698088 50815028 50929836 51042704 
3159.099 51155000 51267996 51383600 51503556 51628324 51757536 51889696 
3162.474 52022680 52154660 52284252 52411376 52536444 52660424 52783956 
3165.849 52907184 53029584 53150864 53270412 53388532 53505864 53623332 
3169.225 53741664 53860968 53980900 54100228 54218008 54333120 54445260 
3172.600 54554572 54661504 54766624 54870268 54972388 55072808 55171216 
3175.975 55267464 55361852 55455056 55548016 55641940 55737840 55836020 
3179.350 55936372 56037916 56138848 56237724 56332928 56424036 56511240 
3182.726 56595860 56679136 56762580 56847096 56932988 57019692 57106940 
3186.101 57193904 57280544 57366676 57452328 57537132 57621080 57703492 
3189.476 57784372 57863744 57942268 58020500 58099276 58178408 58257328 
3192.851 58335164 58410736 58483212 58552560 58619336 58684792 58750376 
3196.227 58817372 58886392 58958036 59031780 59107172 59182808 59257540 
3199.602 59330160 59399716 59465864 59529016 59589936 59650108 59710512 
3202.977 59771760 59833784 59896040 59957584 60017692 60076436 60133704 
3206.352 60190104 60245712 60300032 60352648 60402796 60450624 60496708 
3209.728 60542676 60590028 60639972 60692780 60747768 60803676 60859516 
3213.103 60914828 60970224 61027116 61086268 61147788 61210344 61271656 
3216.478 61328928 61379840 61423576 61460984 61494536 61527136 61561804 
3219.853 61600788 61645044 61694920 61750148 61809700 61873160 61939608 
3223.229 62008432 62078652 62149256 62219188 62287828 62354688 62419752 
3226.604 62483152 62545328 62606668 62667528 62728436 62789156 62849844 
3229.979 62910432 62970712 63030780 63091240 63152352 63215048 63279860 
3233.354 63346988 63415580 63484908 63553364 63620112 63684984 63748524 
3236.729 63811808 63876288 63942352 64010232 64079464 64149128 64218848 
3240.105 64288960 64359924 64432368 64506360 64580940 64654416 64725212 
3243.480 64791792 64854608 64915092 64975844 65039612 65108276 65182500 
3246.855 65261624 65344036 65428040 65512412 65596648 65680392 65763660 
3250.230 65845892 65926024 66002584 66074492 66140928 66201968 66258548 
3253.606 66312200 66364004 66415392 66466972 66518992 66570936 66622576 
3256.981 66673220 66722712 66770740 66817500 66863448 66909172 66954976 
3260.356 67001024 67046688 67090960 67132416 67169928 67202880 67231352 
3263.731 67255792 67277384 67296960 67315064 67331664 67346480 67359168 
3267.107 67369808 67378480 67385872 67392456 67398336 67403552 67407856 
3270.482 67410592 67411416 67410712 67408512 67405456 67402320 67399568 
3273.857 67397680 67396744 67396480 67396392 67395776 67393992 67390784 
3277.232 67386880 67382928 67380880 67382352 67388352 67398984 67413816 
3280.608 67430768 67448016 67464472 67479832 67494968 67511376 67530544 
3283.983 67553648 67580936 67612416 67647648 67686568 67729080 67775432 
3287.358 67825448 67878624 67933720 67990016 68046712 68104536 68165088 
3290.733 68230600 68302952 68383584 68472056 68567536 68668240 68772960 
3294.109 68880928 68992768 69108952 69230416 69357424 69489568 69626192 
3297.484 69766624 69910920 70059040 70211384 70368328 70529504 70694568 
3300.859 70862760 71033840 71208152 71386512 71570408 71760840 71958472 
3304.234 72163360 72375264 72593424 72817288 73046408 73279848 73516752 
3307.610 73755936 73996360 74237696 74480160 74725152 74974616 75230176 
3310.985 75493096 75763952 76042432 76327608 76619024 76915968 77217992 
3314.360 77524344 77833720 78144512 78454888 78763304 79069480 79373992 
3317.735 79678168 79983552 80291144 80601064 80912448 81223936 81534248 
3321.111 81842488 82148320 82451800 82752800 83051688 83347736 83641288 
3324.486 83932904 84222912 84511824 84800168 85086848 85370680 85649872 
3327.861 85922888 86188448 86445848 86694240 86932512 87158832 87370936 
3331.236 87566752 87745320 87906336 88050864 88180296 88295232 88394840 
3334.612 88477744 88541728 88585688 88609984 88616728 88608528 88588048 
3337.987 88556032 88511376 88451464 88372912 88272944 88150544 88005336 
3341.362 87838392 87650152 87441232 87211000 86958984 86685384 86390416 
3344.737 86075080 85740240 85385888 85011840 84617384 84202600 83768688 
3348.113 83318424 82855368 82383416 81905464 81422760 80935288 80442048 
3351.488 79942048 79435224 78922392 78405320 77886128 77367120 76850320 
3354.863 76337368 75829752 75329000 74836064 74351992 73877168 73411816 
3358.238 72956208 72510760 72076240 71653680 71244264 70847984 70464576 
3361.614 70092800 69731136 69378568 69034720 68700408 68376760 68065160 
3364.989 67766104 67479408 67204008 66938512 66681608 66432224 66190244 
3368.364 65954872 65726036 65502436 65283112 65066440 64850764 64634456 
3371.739 64416148 64194224 63967688 63735248 63496716 63252300 63002892 
3375.115 62748992 62490916 62227640 61957224 61677048 61384496 61077764 
3378.490 60756340 60420920 60072704 59712568 59340680 58956368 58558360 
3381.865 58145336 57717116 57274344 56818920 56353412 55880336 55402280 
3385.240 54921252 54438912 53956996 53476596 52998964 52524440 52053384 
3388.615 51585524 51120556 50658356 50198916 49742896 49291180 48844676 
3391.991 48404260 47970732 47544472 47125796 46714572 46310112 45911592 
3395.366 45517224 45125972 44736252 44347612 43960488 43575840 43194712 
3398.741 42817904 42445228 42075824 41708376 41341344 40974264 40607164 
3402.116 40240668 39875964 39513604 39153500 38795580 38439152 38084136 
3405.492 37731320 37381796 37037024 36698328 36366272 36040268 35719584 
3408.867 35402728 35088724 34776780 34467072 34160016 33856044 33555652 
3412.242 33258866 32966140 32677830 32394528 32117120 31847198 31585392 
3415.617 31332750 31089512 30854554 30626162 30401866 30178862 29954584 
3418.993 29727444 29497196 29265296 29034512 28807744 28588316 28378264 
3422.368 28178002 27986138 27800680 27618514 27436990 27254272 27069162 
3425.743 26882018 26693858 26505816 26320146 26138318 25961634 25790822 
3429.118 25625840 25465806 25309098 25154306 25000060 24845660 24691700 
3432.494 24539266 24389514 24243670 24101832 23963610 23827708 23692444 
3435.869 23556136 23417984 23277638 23135590 22992576 22849784 22708608 
3439.244 22569816 22434210 22302032 22173376 22047516 21923746 21800956 
3442.619 21678476 21555370 21431636 21306406 21179648 21050772 20919498 
3445.995 20785866 20650606 20515112 20381778 20252512 20129150 20011722 
3449.370 19899180 19789824 19681190 19571508 19460154 19347304 19233898 
3452.745 19121280 19010112 18900496 18791874 18683628 18575062 18465588 
3456.120 18355314 18244342 18132430 18019892 17906208 17791830 17677480 
3459.496 17564372 17453704 17346686 17243176 17142310 17042608 16942202 
3462.871 16839890 16735503 16629970 16525118 16422836 16324362 16229833 
3466.246 16138660 16048674 15957778 15863672 15765119 15661884 15554826 
3469.621 15445562 15336738 15230240 15127817 15030015 14936521 14845653 
3472.997 14755798 14665653 14574568 14483193 14393208 14306631 14225241 
3476.372 14150063 14080920 14016340 13954782 13893676 13831588 13767216 
3479.747 13700221 13630980 13560348 13489967 13421135 13355287 13293684 
3483.122 13236122 13182017 13129866 13077856 13024215 12968088 12909545 
3486.498 12849678 12790400 12733280 12679988 12631000 12586384 12545763 
3489.873 12509033 12476160 12447517 12423615 12404591 12389998 12379191 
3493.248 12371350 12365282 12360713 12357748 12356997 12358941 12364532 
3496.623 12374316 12388532 12407591 12431390 12460201 12493756 12531644 
3499.999 12573150 12617117 12663066 12710454 12759860 12812581 12870497 
3503.374 12935453 13009260 13093120 13187277 13291396 13404083 13524045 
3506.749 13648862 13776895 13906403 14036463 14167589 14301254 14439482 
3510.124 14585053 14739447 14902984 15074231 15250660 15429013 15606376 
3513.500 15780788 15951695 16118988 16283184 16444515 16602257 16755924 
3516.875 16904614 17047500 17184950 17316410 17441630 17559092 17666162 
3520.250 17759038 17834396 17888496 17919330 17926408 17910628 17874064 
3523.625 17819344 17749200 17665128 17567752 17456050 17328444 17182366 
3527.000 17016038 16828488 16620744 16395789 16157471 15910551 15658518 
3530.376 15404501 15149467 14894136 14638511 14382659 14127093 13872364 
3533.751 13618843 13366665 13115863 12866743 12619437 12375202 12135127 
3537.126 11900700 11672594 11451378 11236837 11029029 10827639 10632862 
3540.501 10444961 10263789 10088731 9918522 9750955 9584368 9416794 9246815 
3544.359 9074365 8900156 8724801 8550665 8379875 8215637 8060640 7917443 
3548.216 7787077 7669026 7560515 7458030 7357154 7254347 7147623 7037255 
3552.074 6925636 6815560 6710088 6611000 6518225 6431018 6347729 6266909 
3555.931 6187919 6109852 6032268 5954598 5875766 5794765 5711094 5625224 
3559.789 5538431 5453031 5371506 5294959 5224195 5158538 5095842 5033422 
3563.646 4968699 4898625 4821023 4733988 4637092 4531612 4420769 4309418 
3567.503 4203616 4107841 4024929 3954438 3893821 3838928 3785814 3731704 
3571.361 3675194 3616220 3555950 3495389 3435436 3376161 3317026 3257566 
3575.218 3197747 3137536 3077633 3018439 2959921 2901677 2843041 2783312 
3579.076 2722524 2661179 2601042 2543446 2490157 2441806 2398824 2360477 
3582.933 2325964 2293453 2261177 2226739 2187176 2139857 2082156 2013577 
3586.791 1935524 1852094 1769811 1695427 1634326 1589163 1559200 1541078 
3590.648 1529639 1519398 1506165 1486714 1459685 1425809 1387149 1346864 
3594.505 1308477 1274779 1247995 1228623 1216528 1210780 1209916 1212940 
3598.363 1219186 1228856 1243244 1263348 1290897 1326557 1370164 1420291 
3602.220 1474479 1529141 1579951 1622120 1651022 1661965 1651122 1615834 
3606.078 1555177 1470423 1365078 1245071 1117789 991075 871769 764013 668629 
3610.417 583816 506085 431652 358160 284979 213634 147106 88874 41386 5467 
3615.239 -19581 -36976 -50327 -63612 -80806 -104823 -136457 -175011 -218165 
3619.579 -261878 -302607 -337637 -365976 -388422 -405901 -420300 -432548 
3623.436 -443041 -451481 -457207 -460252 -461874 -464158 -471274 -487691 
3627.293 -517576 -562913 -622010 -688542 -753509 -807785 -846511 -869560 
3631.151 -880769 -885068 -887548 -891119 -897270 -904709 -911620 -915819 
3635.008 -915753 -912149 -906462 -901072 -898261 -899022 -903155 -909305 
3638.866 -916480 -923920 -931987 -941575 -953577 -967561 -981975 -993810 
3642.723 -999695 -997546 -987100 -970768 -952486 -937046 -929177 -931194 
3646.581 -944022 -967165 -998736 -1037214 -1081836 -1131344 -1183854 
3649.956 -1235532 -1280497 -1312970 -1329025 -1327637 -1311583 -1285716 
3653.331 -1256809 -1231038 -1213494 -1207249 -1212601 -1227272 -1245708 
3656.706 -1262029 -1270883 -1269231 -1256710 -1235697 -1210090 -1184119 
3660.082 -1161747 -1145125 -1134715 -1128932 -1124735 -1119844 -1111978 
3663.457 -1100708 -1086265 -1068714 -1047593 -1021248 -987562 -944584 
3666.832 -891516 -828587 -754899 -667138 -555832 -405503 -196274 90399 
3670.689 463925 922768 1456493 2052193 2696285 3373623 4064460 4727121 
3674.547 5296401 5689508 5824249 5658388 5207696 4536634 3728028 2860117 
3678.404 2000229 1197390 489765 -96144 -550967 -881299 -1107814 -1256974 
3682.262 -1355186 -1422497 -1469920 -1501851 -1519483 -1523874 -1518955 
3685.637 -1511294 -1508290 -1517304 -1543123 -1586142 -1642657 -1706359 
3689.012 -1769789 -1826907 -1874714 -1911860 -1938877 -1956458 -1965463 
3692.387 -1966717 -1961967 -1953193 -1942572 -1932379 -1924330 -1919580 
3695.763 -1918095 -1919481 -1922384 -1925847 -1928882 -1931455 -1934754 
3699.138 -1940361 -1950125 -1965364 -1986144 -2010452 -2035352 -2056326 
3702.513 -2070341 -2075683 -2072913 -2063581 -2050357 -2035616 -2020709 
3705.888 -2006494 -1993334 -1981593 -1972225 -1966354 -1965562 -1970675 
3709.264 -1981461 -1997160 -2016322 -2037561 -2059887 -2082443 -2104405 
3712.639 -2124024 -2139158 -2147038 -2146181 -2136487 -2120100 -2100316 
3716.014 -2081916 -2068692 -2063647 -2066879 -2076673 -2089863 -2103152 
3719.389 -2113934 -2121716 -2126958 -2130882 -2134740 -2139026 -2143708 
3722.765 -2148587 -2153434 -2158940 -2165633 -2174007 -2183172 -2191183 
3726.140 -2195106 -2191414 -2178161 -2154885 -2123562 -2087686 -2051280 
3729.515 -2018202 -1991388 -1972126 -1960582 -1955832 -1956393 -1961142 
3732.890 -1969653 -1983143 -2002899 -2029778 -2063581 -2100876 -2136553 
3736.266 -2164512 -2179513 -2179875 -2166325 -2142686 -2112648 -2080234 
3739.641 -2047983 -2017741 -1990399 -1967904 -1952698 -1948938 -1960681 
3743.016 -1991454 -2039639 -2097381 -2151588 -2186930 -2194447 -2174468 
3746.391 -2134904 -2086137 -2038847 -2001382 -1979317 -1974534 -1984792 
3749.767 -2005505 -2030603 -2054512 -2073573 -2086499 -2092863 -2092435 
3753.142 -2085642 -2073078 -2056590 -2038320 -2021335 -2008044 -2000360 
3756.517 -1998414 -2001250 -2006659 -2012266 -2016289 -2017773 -2016487 
3759.892 -2012728 -2006428 -1997160 -1984528 -1968828 -1950884 -1932643 
3763.268 -1916611 -1904966 -1899292 -1899555 -1903943 -1909452 -1913147 
3766.643 -1913675 -1910739 -1906714 -1904174 -1906285 -1914895 -1929905 
3770.018 -1949532 -1970708 -1990267 -2005834 -2016224 -2021830 -2023446 
3773.393 -2021896 -2017741 -2011606 -2003295 -1993038 -1981329 -1969653 
3776.769 -1959889 -1953985 -1953622 -1959130 -1969554 -1982384 -1994225 
3780.144 -2002273 -2005208 -2003229 -1998908 -1994753 -1993466 -1996995 
3783.519 -2005307 -2016487 -2028426 -2038122 -2043596 -2044355 -2040925 
3786.894 -2034989 -2028492 -2022886 -2019159 -2018136 -2019686 -2023710 
3790.270 -2030141 -2038683 -2048576 -2059063 -2068857 -2076508 -2081817 
3793.645 -2084191 -2084356 -2083367 -2081916 -2080630 -2079047 -2076112 
3797.020 -2070440 -2061734 -2050126 -2037759 -2027734 -2024007 -2030141 
3800.395 -2047653 -2074958 -2106614 -2134674 -2151884 -2154258 -2142719 
3803.771 -2122078 -2098469 -2079311 -2070275 -2074496 -2091611 -2117264 
3807.146 -2144532 -2166127 -2177666 -2178227 -2170380 -2157555 -2142785 
3810.521 -2128079 -2113406 -2098107 -2081256 -2062921 -2044883 -2030669 
3813.896 -2023908 -2028096 -2043794 -2068330 -2095073 -2116077 -2124914 
3817.271 -2119638 -2102855 -2080696 -2061306 -2051841 -2057414 -2079410 
3820.647 -2114395 -2154093 -2188051 -2207897 -2209743 -2195073 -2168699 
3824.022 -2136850 -2105592 -2079146 -2060085 -2049104 -2044883 -2044982 
3827.397 -2046696 -2048082 -2048082 -2046894 -2045146 -2043630 -2043036 
3830.772 -2043234 -2043267 -2042574 -2039672 -2034066 -2025392 -2014278 
3834.148 -2001910 -1989574 -1979284 -1972852 -1971763 -1977074 -1988453 
3837.523 -2004746 -2023248 -2040925 -2055139 -2064372 -2068494 -2068692 
3840.898 -2066483 -2063482 -2061174 -2060085 -2059756 -2059986 -2059525 
3844.273 -2057546 -2053787 -2047719 -2039375 -2028393 -2014475 -1997523 
3847.649 -1977074 -1953820 -1928684 -1903316 -1880520 -1863035 -1854556 
3851.024 -1858251 -1877551 -1914170 -1967179 -2031790 -2098997 -2157654 
3854.399 -2199392 -2220721 -2222963 -2210963 -2190326 -2165336 -2140246 
3857.774 -2117264 -2097843 -2082443 -2070638 -2061998 -2055798 -2051577 
3861.150 -2048840 -2047752 -2048345 -2050555 -2054314 -2058832 -2063053 
3864.525 -2065230 -2063647 -2056887 -2044883 -2028591 -2010518 -1994225 
3867.900 -1983341 -1981296 -1989080 -2005340 -2025392 -2042574 -2051511 
3871.275 -2049665 -2038320 -2021500 -2004944 -1993862 -1991224 -1997325 
3874.651 -2009495 -2023347 -2034066 -2038946 -2037396 -2031262 -2023149 
3878.026 -2016092 -2011837 -2011177 -2013255 -2015927 -2017048 -2014838 
3881.401 -2009133 -2000920 -1992279 -1985781 -1983802 -1988552 -2000392 
3884.776 -2018598 -2039573 -2058272 -2070011 -2070902 -2060283 -2040497 
3888.152 -2016092 -1991685 -1972489 -1961967 -1961406 -1969685 -1983604 
3891.527 -1998644 -2010617 -2016652 -2016289 -2010188 -1999931 -1987068 
3894.902 -1972786 -1957580 -1941813 -1925946 -1909914 -1894277 -1879531 
3898.277 -1866499 -1855578 -1847957 -1844229 -1845252 -1851388 -1862474 
3901.653 -1877683 -1895927 -1915423 -1934556 -1951775 -1965760 -1976150 
3905.028 -1982747 -1985517 -1984990 -1981593 -1975359 -1966849 -1956360 
3908.403 -1944221 -1930894 -1917172 -1903415 -1890615 -1879596 -1871052 
3911.778 -1865410 -1862540 -1862078 -1863035 -1864750 -1866466 -1867950 
3915.154 -1869633 -1871976 -1875044 -1878937 -1882731 -1885535 -1886459 
3918.529 -1885106 -1881774 -1876759 -1870722 -1863991 -1856568 -1848419 
3921.904 -1839610 -1830866 -1823772 -1819648 -1820209 -1825620 -1835254 
3925.279 -1846802 -1858086 -1866763 -1871745 -1873361 -1872602 -1870953 
3928.655 -1869534 -1868808 -1868577 -1868313 -1867588 -1866202 -1864750 
3932.030 -1863761 -1863398 -1863629 -1863727 -1863299 -1861847 -1859439 
3935.405 -1856502 -1853368 -1850267 -1846604 -1841919 -1835452 -1827171 
3938.780 -1817569 -1808264 -1801071 -1797672 -1799058 -1805459 -1815457 
3942.156 -1827468 -1839445 -1849640 -1857030 -1860725 -1860725 -1857525 
3945.531 -1851355 -1843404 -1834693 -1826346 -1819648 -1815160 -1812950 
3948.906 -1812587 -1812950 -1813148 -1812257 -1810211 -1806911 -1803348 
3952.281 -1800114 -1797672 -1796220 -1795758 -1795626 -1795098 -1793614 
3955.656 -1790050 -1784176 -1776058 -1765928 -1755302 -1745666 -1738273 
3959.032 -1734511 -1734478 -1737613 -1742464 -1747679 -1751672 -1753487 
3962.407 -1753091 -1750517 -1746623 -1742200 -1737877 -1734412 -1732234 
3965.782 -1731772 -1732663 -1734808 -1737184 -1738900 -1738834 -1736161 
3969.157 -1730716 -1722597 -1712498 -1701046 -1688735 -1675730 -1661802 
3972.533 -1647212 -1632259 -1617998 -1606213 -1598191 -1595022 -1596607 
3975.908 -1602087 -1609812 -1617998 -1624964 -1629816 -1632160 -1631995 
3979.283 -1629618 -1625393 -1619616 -1613014 -1606411 -1600832 -1597597 
3982.658 -1597234 -1600436 -1606676 -1614961 -1624303 -1633282 -1641237 
3986.034 -1647575 -1652295 -1655464 -1657247 -1658237 -1658435 -1658039 
3989.409 -1657940 -1658204 -1659260 -1661537 -1664475 -1668040 -1671869 
3992.784 -1675301 -1678041 -1680021 -1680682 -1680351 -1678866 -1676556 
3996.159 -1673882 -1671341 -1669393 -1668469 -1668469 -1669393 -1670582 
3999.535 -1671704 -1672232 -1672232 
##END=
