
##TITLE=Z326a_3_d
##JCAMP-DX=5.01  $$ Nicolet v. 1
##DATATYPE=INFRARED SPECTRUM
##ORIGIN=UniL
##OWNER=Nicolet
##LONGDATE=2011/09/15
##TIME=16:38:11
##SPECTROMETER/DATA SYSTEM=Nicolet iS5
##DATA PROCESSING=
Ratio against background
%Transmittance->Absorbance
Truncated
ElementMultiply or ElementDivide
##COMMENTS=
Number of sample scans: 32
Collection length: 51.15 sec
Sample gain: 2.0
Background collected on: Jeu Sep 15 16:15:34 2011 (GMT+02:00);
Number of background scans: 32
Background gain: 2.0
Sample spacing:  1.000
Number of scan points: 12415
Resolution points: 8192
Number of FFT points: 65536
Apodization: N-B fort;
Phase correction: Mertz;
Laser frequency: 15798.0 cm-1
Number of rejected sample scans: 0
Number of rejected background scans: 0
Bench serial number: ASB1000141;
##RESOLUTION=4.000
##XUNITS=1/CM
##YUNITS=ABSORBANCE
##FIRSTX=649.893372
##LASTX=4000.122314
##FIRSTY=0.129991
##MAXX=4000.122314
##MINX=649.893372
##MAXY=0.329050
##MINY=-0.000179
##XFACTOR=1.000000
##YFACTOR=1.000000E-009
##NPOINTS=6950
##DELTAX=0.482117
##ZPD=6100
##XYDATA=(X++(Y..Y))
649.893 129991088 129074456 128254072 127570688 127029568 126608016 
652.786 126278224 126026496 125864472 125824632 125942216 126233432 
655.679 126684920 127258208 127906712 128597976 129331488 130133152 
658.571 131042928 132090288 133283256 134607472 136041920 137574224 
661.464 139213296 140981584 142899312 144959968 147126688 149332208 
664.357 151506640 153595088 155553536 157347696 158928848 160213760 
667.250 161100496 161513520 161464256 161055168 160422864 159659328 
670.142 158783440 157761696 156546528 155112272 153477552 151708400 
673.035 149892832 148120768 146447840 144887072 143422192 142030560 
675.928 140701776 139444832 138278832 137216416 136252192 135360624 
678.820 134505264 133653208 132789496 131916600 131047456 130191552 
681.713 129345048 128490608 127608208 126684384 125724152 124750312 
684.606 123794912 122884256 122029304 121224392 120453456 119703128 
687.498 118969216 118259688 117588144 116963704 116382704 115829464 
690.391 115280520 114717336 114133416 113536904 112944384 112374912 
693.284 111841024 111346752 110892352 110480824 110121808 109834896 
696.177 109642968 109563384 109604456 109761896 110022840 110373280 
699.069 110804128 111313448 111904296 112578048 113328064 114137856 
701.962 114984688 115845208 116700936 117544280 118373992 119190200 
704.855 119988424 120756352 121476416 122134464 122724888 123256184 
707.747 123746840 124220056 124694936 125182496 125688120 126218272 
710.640 126786320 127417728 128143368 128989888 129967984 131061968 
713.533 132228808 133401128 134507792 135483376 136281632 136883520 
716.425 137295056 137545296 137678176 137754656 137848256 138034768 
719.318 138392688 138984944 139842096 140952016 142249344 143621344 
722.211 144908576 145940048 146560064 146648848 146159472 145125632 
725.104 143665616 141950368 140176944 138531376 137140256 136066768 
727.996 135307776 134816416 134523280 134363744 134296384 134299184 
730.889 134364736 134489328 134662176 134864960 135078976 135289184 
733.782 135492384 135695136 135908464 136139024 136385840 136639520 
736.674 136888896 137127952 137359552 137593504 137841840 138110352 
739.567 138395472 138685888 138968688 139236768 139493280 139749152 
742.460 140015824 140298672 140592016 140881856 141152288 141394912 
745.352 141612592 141819088 142030880 142257296 142496432 142735104 
748.245 142955040 143140880 143288064 143401824 143493056 143571024 
751.138 143639040 143694112 143733056 143756960 143776528 143807520 
754.031 143867184 143963872 144095024 144246992 144402352 144548752 
756.923 144682848 144810992 144943840 145090000 145250464 145419984 
759.816 145589840 145755120 145916864 146081440 146255280 146439536 
762.709 146628560 146812496 146984112 147147328 147320384 147537296 
765.601 147840544 148269024 148853248 149603344 150504416 151510384 
768.494 152544832 153508448 154283120 154765792 154892960 154668336 
771.387 154174752 153564272 153027632 152724416 152740896 153048144 
774.279 153509728 153902928 153982656 153565216 152557632 150985808 
777.172 148961184 146642208 144173008 141641936 139078320 136457792 
780.065 133732808 130857080 127809704 124603016 121279976 117902320 
782.958 114540144 111265200 108136424 105200704 102490360 100021112 97797216 
786.332 95814448 94063664 92535232 91220512 90112936 89206976 88497776 
789.707 87979528 87647312 87498136 87532704 87757440 88185008 88830760 
793.082 89711496 90838472 92212824 93818904 95623464 97571208 99583776 
796.457 101571296 103434032 105074968 106424496 107449872 108175096 
799.350 108679304 109096752 109590296 110309072 111366280 112791512 
802.242 114513664 116342848 117998608 119163128 119514992 118828920 
805.135 117024264 114190256 110567280 106492488 102333776 98376352 94791792 
808.510 91611936 88752304 86059040 83370776 80581360 77655632 74637048 
811.885 71614528 68698160 65981908 63522412 61343888 59440596 57790916 
815.259 56367256 55143864 54098460 53208948 52455004 51817152 51277132 
818.634 50822212 50444020 50138032 49901984 49732828 49626912 49580188 
822.009 49589996 49656300 49782024 49971832 50230348 50560632 50962960 
825.384 51434696 51970804 52561500 53192360 53842736 54484548 55086872 
828.759 55622240 56072488 56438036 56742040 57032464 57372992 57840124 
832.133 58512864 59454536 60706196 62268212 64090872 66060676 68001096 
835.508 69701928 70923776 71454352 71158152 69995968 68048104 65486984 
838.883 62558988 59517388 56581104 53921472 51632432 49744160 48238128 
842.258 47068260 46177504 45508692 45015888 44659784 44408896 44240284 
845.633 44136508 44086376 44084248 44126240 44208660 44326252 44470816 
849.008 44633712 44809052 44994240 45191196 45405236 45642016 45905624 
852.382 46197992 46519176 46868788 47248576 47661564 48112108 48604584 
855.757 49142736 49730560 50373316 51080156 51863336 52739396 53727080 
859.132 54844212 56110532 57546892 59175364 61021588 63108748 65447420 
862.507 68023928 70788312 73648440 76463192 79069088 81296728 82993128 
865.882 84062248 84474472 84279880 83594848 82594960 81489752 80477784 
869.256 79745128 79437960 79647992 80424704 81771128 83653336 85998736 
872.631 88700288 91622048 94582296 97374424 99781440 101581560 102598824 
876.006 102724312 101932744 100289336 97935472 95070664 91902168 88634368 
879.381 85441720 82442024 79706152 77255952 75076144 73130352 71377376 
882.756 69786040 68340144 67041428 65902732 64941712 64171256 63593872 
886.131 63200868 62976464 62903344 62967768 63164040 63494264 63964308 
889.505 64580516 65344728 66254652 67305272 68492272 69815648 71282048 
892.880 72904632 74701696 76691440 78891080 81310024 83944768 86767592 
896.255 89718176 92698288 95556608 98107344 100150408 101485576 101965672 
899.630 101516624 100154032 97978776 95162480 91926776 88492368 85072616 
903.005 81849408 78948616 76455016 74408776 72814744 71655360 70899592 
906.379 70513912 70464768 70725640 71277448 72107648 73209368 74580040 
909.754 76219272 78127616 80304104 82741376 85421952 88310504 91346400 
913.129 94450368 97523056 100456960 103162552 105574864 107671864 109477896 
916.504 111062624 112528928 113987264 115545768 117278632 119206592 
919.397 121282696 123387616 125346872 126937192 127944080 128204032 
922.289 127641056 126303880 124371320 122148992 120000568 118321856 
925.182 117485216 117754072 119268288 121999640 125759736 130195128 
928.075 134829392 139161744 142678496 144960544 145745552 144922784 
930.967 142542080 138767616 133849320 128069576 121713064 115073480 
933.860 108415024 101973384 95959568 90529280 85792720 81815928 78619256 
937.235 76193768 74510680 73532640 73214424 73498576 74312912 75550576 
940.610 77067688 78698568 80249216 81534568 82409016 82773848 82602256 
943.985 81934592 80871448 79546632 78102272 76676456 75372392 74258456 
947.359 73369008 72707472 72257848 71992808 71883128 71899392 72014048 
950.734 72203072 72442472 72710456 72989408 73266552 73537000 73802552 
954.109 74070896 74351992 74654560 74985016 75346696 75740240 76165528 
957.484 76622504 77110704 77628608 78173904 78742616 79330720 79936232 
960.859 80559264 81203120 81871856 82568592 83293624 84044352 84816072 
964.233 85604592 86408440 87229584 88072576 88941888 89840488 90768512 
967.608 91724144 92705344 93711792 94745752 95811272 96912008 98050536 
970.983 99227032 100441136 101693272 102987288 104329152 105726536 107185968 
974.358 108710664 110300400 111952912 113667144 115444824 117291920 
977.251 119215920 121225008 123325896 125523968 127826960 130247224 
980.143 132804800 135527904 138447600 141592672 144985712 148636752 
983.036 152542608 156683392 161023632 165501568 170021120 174455616 
985.929 178633264 182350528 185407856 187614704 188832960 189000960 
988.821 188137504 186344960 183787392 180688960 177295200 173847024 
991.714 170579360 167678816 165280784 163471584 162282192 161704944 
994.607 161704800 162236656 163253712 164712592 166578672 168818512 
997.500 171398848 174287504 177449280 180849280 184453040 188217728 
1000.392 192086336 195983824 199803760 203420800 206704448 209527344 
1003.285 211795952 213461392 214526880 215047328 215123184 214897632 
1006.178 214529360 214189904 214047808 214239616 214870912 216005200 
1009.070 217662848 219832368 222481168 225571696 229064592 232923936 
1011.963 237116944 241603792 246339216 251275952 256363072 261554592 
1014.856 266805744 272056416 277219872 282164928 286699520 290600672 
1017.748 293629856 295573280 296300448 295785952 294133888 291557056 
1020.641 288374944 284975840 281742688 279058048 277238400 276494272 
1023.534 276942112 278584704 281335040 285028416 289461120 294420320 
1026.427 299678848 305025056 310254976 315156960 319537024 323219424 
1029.320 326062816 327987072 328971328 329049920 328289408 326775040 
1032.213 324594688 321826656 318547584 314826880 310720032 306265408 
1035.106 301474272 296334688 290818784 284904256 278592992 271922880 
1037.999 264968432 257829184 250623248 243462704 236451136 229683904 
1040.892 223235248 217161184 211490880 206215744 201286624 196614176 
1043.785 192091328 187604864 183065456 178431840 173716544 168987856 
1046.678 164348656 159929696 155861632 152254352 149198912 146751824 
1049.571 144936016 143746352 143152688 143107440 143549536 144417552 
1052.464 145650736 147190208 148983360 150972528 153086800 155243712 
1055.357 157336304 159239440 160829872 161984528 162602544 162620512 
1058.250 162013008 160802560 159056704 156893616 154468928 151959280 
1061.144 149563072 147464320 145821008 144763968 144376624 144701536 
1064.037 145741552 147463808 149800608 152648224 155879616 159335360 
1066.930 162832656 166194512 169245504 171837680 173867840 175268816 
1069.823 176013056 176101904 175557952 174417696 172725680 170536816 
1072.716 167910144 164907552 161599408 158060960 154378320 150658176 
1075.609 147016928 143584496 140498704 137880288 135835216 134441920 
1078.502 133739976 133732360 134378640 135600304 137269728 139217280 
1081.395 141250752 143148208 144698112 145734192 146148160 145924576 
1084.288 145138816 143955200 142590112 141281168 140273552 139768672 
1087.181 139920336 140824064 142504352 144918624 147953920 151449136 
1090.074 155190640 158934288 162449152 165514128 167952128 169647472 
1092.967 170535552 170606320 169892128 168462064 166408576 163834688 
1095.860 160854336 157575616 154096176 150509376 146894272 143319536 
1098.753 139844784 136509872 133333744 130308312 127400624 124556888 
1101.646 121714600 118823824 115855936 112818704 109755072 106742336 
1104.540 103878840 101263792 98996912 97159296 95808168 94981176 94692392 
1107.915 94938056 95698336 96941408 98625552 100696248 103092216 105741624 
1111.290 108556328 111440704 114281256 116948872 119317480 121262192 
1114.183 122678088 123498256 123693008 123274928 122290184 120813672 
1117.076 118935576 116747712 114345144 111811144 109211480 106598400 
1119.969 104004232 101446560 98935072 96476336 94080408 91764984 89553504 
1123.344 87474632 85558664 83831376 82314048 81023040 79969688 79164368 
1126.720 78618264 78342568 78349080 78646576 79236704 80111008 81248056 
1130.095 82613840 84156992 85813504 87509568 89157872 90674472 91985048 
1133.470 93034392 93801712 94303864 94596800 94760632 94892536 95089432 
1136.845 95425328 95947128 96662656 97541672 98515872 99487904 100350616 
1140.221 100986888 101292784 101190128 100625232 99576896 98050992 96076088 
1143.596 93695920 90965304 87951008 84723760 81358456 77934136 74522008 
1146.971 71188240 67990248 64970344 62160348 59580436 57239528 55139272 
1150.346 53275056 51638440 50218408 49001732 47975764 47127016 46443980 
1153.722 45918332 45544120 45318352 45239544 45306512 45517632 45870972 
1157.097 46365116 47000616 47780132 48708804 49791944 51033980 52436496 
1160.472 53997484 55710072 57562324 59536728 61606476 63733564 65871732 
1163.847 67960840 69934816 71728168 73274944 74519576 75419184 75943008 
1167.223 76077208 75823992 75202000 74243320 72990552 71495056 69807912 
1170.598 67980480 66062644 64096972 62123568 60178496 58291848 56490864 
1173.973 54798688 53232468 51805992 50527988 49402948 48432672 47617268 
1177.348 46956204 46448996 46095224 45894648 45846816 45951552 46209748 
1180.724 46624000 47197780 47936024 48843788 49924736 51181204 52613108 
1184.099 54217748 55987256 57905464 59945904 62064696 64200872 66282520 
1187.474 68223784 69939840 71356904 72413744 73074048 73327080 73188896 
1190.849 72698624 71914208 70909504 69760200 68542432 67328800 66178360 
1194.225 65140500 64252764 63538640 63010900 62672012 62514252 62520108 
1197.600 62661900 62904224 63199988 63494108 63729072 63841164 63771544 
1200.975 63471524 62904612 62055640 60933512 59571884 58023340 56354092 
1204.350 54638324 52942404 51324936 49830776 48486868 47307132 46294004 
1207.726 45442204 44742052 44181188 43746608 43423848 43198556 43057856 
1211.101 42991124 42992112 43058988 43193580 43399932 43681568 44040716 
1214.476 44476580 44985676 45561416 46195780 46877428 47591908 48323332 
1217.851 49053660 49764744 50441524 51071808 51647580 52164784 52622536 
1221.227 53022624 53369648 53672188 53943568 54200668 54465428 54761324 
1224.602 55109744 55530204 56035508 56631156 57314836 58077232 58901224 
1227.977 59762828 60634828 61487248 62290472 63020936 63661732 64205244 
1231.352 64653532 65018332 65321504 65592060 65870224 66204564 66647260 
1234.728 67257416 68091896 69200184 70625360 72397688 74535024 77044776 
1238.103 79924480 83162072 86733160 90602832 94720536 99019096 103424696 
1241.478 107852384 112212016 116418656 120384416 124024272 127263936 
1244.371 130035432 132286776 133985344 135115200 135676704 135681712 
1247.264 135153152 134122640 132629736 130723688 128454712 125869032 
1250.157 123003696 119880288 116509120 112896040 109052328 105005296 
1253.050 100805064 96519456 92236064 88051472 84054720 80329408 76940024 
1256.426 73924464 71297400 69046600 67137552 65514416 64108000 62843716 
1259.801 61642064 60433484 59163328 57794364 56312748 54724380 53052796 
1263.176 51330940 49597312 47891032 46244576 44685052 43232300 41897788 
1266.551 40686704 39598128 38626132 37760996 36991736 36308812 35704692 
1269.927 35175416 34719532 34336664 34025508 33783552 33607236 33492946 
1273.302 33438366 33442770 33505864 33626676 33801032 34021388 34275312 
1276.677 34546568 34817024 35065592 35270384 35410708 35467440 35426924 
1280.052 35284260 35043932 34719708 34331144 33900788 33448170 32987446 
1283.427 32527246 32072846 31628762 31202926 30806960 30456100 30167246 
1286.803 29954692 29829572 29799762 29869748 30043914 30326856 30723450 
1290.178 31237390 31869092 32614496 33463060 34397236 35393240 36416464 
1293.553 37424408 38369360 39198104 39863472 40332136 40589776 40645876 
1296.928 40532444 40299816 40003432 39699448 39437728 39254676 39175548 
1300.304 39213732 39370500 39634684 39981816 40377076 40774116 41122672 
1303.679 41378048 41502276 41472560 41281836 40937928 40460208 39875384 
1307.054 39216848 38518728 37815176 37139152 36516860 35967772 35503140 
1310.429 35126480 34835908 34627408 34498564 34448848 34479696 34592316 
1313.805 34786728 35061248 35413300 35841160 36345016 36926800 37588116 
1317.180 38328244 39142296 40021016 40952708 41926288 42931900 43962028 
1320.555 45008756 46060036 47097804 48095304 49016936 49825164 50482464 
1323.930 50959272 51241972 51337280 51276796 51111428 50912624 50758676 
1327.306 50720132 50854844 51193096 51734804 52451076 53293112 54205624 
1330.681 55134196 56040332 56903336 57719840 58500428 59264036 60033820 
1334.056 60831044 61673532 62573528 63534880 64551524 65606816 66676392 
1337.431 67727104 68721952 69625560 70403240 71027248 71479072 71750256 
1340.807 71844024 71773432 71559752 71228104 70803984 70312928 69775576 
1344.182 69208072 68621592 68022256 67412496 66792728 66162264 65519236 
1347.557 64860068 64178364 63465120 62709832 61905484 61051676 60160036 
1350.932 59254312 58373440 57565276 56880672 56372988 56087872 56059408 
1354.308 56307728 56831988 57607460 58580540 59678312 60809508 61874304 
1357.683 62785440 63468532 63873680 63980356 63795992 63356228 62717028 
1361.058 61958256 61174868 60463684 59921712 59622548 59603012 59858160 
1364.433 60341684 60978232 61668872 62311696 62809028 63071428 63038096 
1367.809 62680772 62012332 61082068 59968612 58765360 57556236 56413324 
1371.184 55388460 54510584 53796456 53255016 52893820 52720800 52742164 
1374.559 52956140 53349304 53896600 54567308 55329408 56159020 57041756 
1377.934 57972292 58953900 59996692 61118568 62343100 63699140 65214956 
1381.310 66905580 68758640 70718384 72687848 74522288 76050048 77106264 
1384.685 77535984 77230696 76151152 74351480 71990464 69305384 66584572 
1388.060 64079076 61955468 60287852 59063212 58218644 57667204 57324784 
1391.435 57114348 56966004 56821980 56628964 56342884 55937204 55406756 
1394.811 54771060 54064460 53324992 52580084 51840936 51108444 50382024 
1398.186 49669448 48994420 48393260 47904388 47559668 47373752 47344672 
1401.561 47459456 47701612 48055184 48507100 49048060 49670412 50366580 
1404.936 51128420 51946980 52813368 53719988 54661732 55635836 56641576 
1408.312 57677872 58742216 59829484 60931796 62040580 63148676 64251536 
1411.687 65346272 66428980 67491368 68519152 69494160 70398408 71221696 
1415.062 71966376 72647976 73291216 73925568 74579760 75275488 76027824 
1418.437 76842960 77715656 78630416 79560992 80473992 81332888 82103768 
1421.813 82762264 83295592 83710992 84036792 84322160 84622208 84983312 
1425.188 85431272 85965136 86565328 87204352 87859928 88517720 89172064 
1428.563 89824104 90478592 91143960 91833016 92567664 93376552 94288584 
1431.938 95328216 96505960 97818208 99249144 100781240 102405000 104119352 
1435.313 105934408 107862416 109908968 112060384 114287288 116555744 
1438.207 118830848 121078288 123253232 125298232 127129288 128641280 
1441.100 129731520 130300808 130275536 129617136 128319960 126414072 
1443.993 123960440 121057448 117826856 114396920 110905016 107474912 
1446.886 104216176 101230496 98596824 96364760 94543784 93105536 91997456 
1450.261 91164480 90572464 90215368 90112368 90288384 90753560 91483440 
1453.636 92420768 93469288 94508440 95413032 96056448 96355288 96307928 
1457.011 96024168 95684336 95461944 95476312 95770952 96345400 97183992 
1460.387 98267480 99573232 101063616 102683848 104347312 105931744 107302432 
1463.762 108320752 108888504 108983464 108669560 108071568 107319360 
1466.655 106522728 105747912 105022464 104353088 103729080 103122968 
1469.548 102479872 101713584 100708280 99332312 97489544 95166776 92470128 
1472.923 89595616 86760592 84127752 81768448 79688912 77870000 76300312 
1476.299 74990608 73963360 73230120 72777752 72562792 72526296 72605088 
1479.674 72751472 72941824 73174856 73466480 73839944 74320808 74932952 
1483.049 75702848 76666016 77864920 79346592 81150592 83292336 85747064 
1486.424 88433016 91220232 93918560 96291840 98093728 99071288 99021424 
1489.800 97846768 95587616 92431512 88653792 84558280 80388976 76295216 
1493.175 72355376 68585536 64981000 61554892 58348160 55436384 52912836 
1496.550 50855028 49298972 48231720 47609948 47377264 47483480 47890996 
1499.925 48567900 49482148 50598788 51874276 53260300 54709308 56162492 
1503.301 57550712 58788500 59748532 60266420 60152196 59235324 57459476 
1506.676 54954752 52019732 48979772 46064272 43365920 40881132 38573656 
1510.051 36416644 34403080 32550528 30885292 29425176 28175244 27124038 
1513.426 26251502 25533798 24948926 24475986 24091674 23772476 23499190 
1516.802 23261416 23063920 22921348 22849294 22853344 22922710 23029924 
1520.177 23141740 23230378 23291132 23346722 23436972 23596260 23835092 
1523.552 24141620 24491272 24861974 25240368 25628758 26040258 26491978 
1526.927 26994090 27546064 28139362 28764800 29418866 30106160 30836662 
1530.302 31621062 32464828 33366908 34319952 35311648 36330568 37367132 
1533.678 38416016 39472088 40531132 41586092 42627980 43644124 44619908 
1537.053 45542504 46394572 47158596 47814604 48341296 48717960 48930704 
1540.428 48983220 48896664 48705360 48444636 48137168 47787156 47382144 
1543.803 46904892 46344984 45713244 45041944 44376744 43757936 43202948 
1547.179 42705476 42240344 41779432 41304724 40820448 40351768 39936080 
1550.554 39603284 39364440 39210396 39121012 39077252 39069496 39101400 
1553.929 39185628 39334332 39549856 39820580 40121596 40421220 40679244 
1557.304 40848952 40884992 40758828 40488212 40145036 39832528 39630764 
1560.680 39567352 39632216 39795668 40025488 40292940 40578204 40871596 
1564.055 41173304 41492868 41842948 42233772 42666688 43133560 43617600 
1567.430 44100676 44564576 44996332 45391036 45753000 46093928 46426724 
1570.805 46763428 47110728 47470248 47838168 48205916 48560340 48879936 
1574.181 49138212 49307472 49367532 49318236 49185704 49016308 48852388 
1577.556 48715288 48599100 48479496 48324964 48107372 47811128 47433360 
1580.931 46983892 46477944 45930964 45353072 44748224 44117768 43464456 
1584.306 42792932 42109556 41418396 40718400 40004996 39273972 38527268 
1587.682 37777548 37046112 36358456 35738504 35200928 34750544 34385184 
1591.057 34099480 33886960 33738680 33640820 33569004 33489150 33364654 
1594.432 33160758 32856700 32450654 31959422 31412352 30840718 30272782 
1597.807 29727942 29218548 28755418 28349014 28010488 27749286 27569190 
1601.183 27467204 27435544 27465616 27551678 27691506 27883524 28122110 
1604.558 28392130 28669752 28922370 29116104 29223296 29224926 29114294 
1607.933 28894640 28576178 28171674 27694260 27160402 26590670 26010494 
1611.308 25450418 24937100 24488222 24109186 23792532 23522626 23280506 
1614.684 23049488 22817304 22577984 22333006 22090780 21865728 21674052 
1618.059 21530890 21446082 21421820 21453010 21526782 21626374 21732256 
1621.434 21829282 21910610 21980556 22051596 22139310 22254842 22400056 
1624.809 22570866 22760492 22965256 23184380 23417984 23664276 23915854 
1628.185 24161552 24390986 24599678 24792684 24981846 25182288 25404078 
1631.560 25649284 25908978 26166718 26402812 26596058 26729412 26792420 
1634.935 26783610 26712498 26598630 26466302 26337254 26224894 26133744 
1638.310 26059678 25992834 25919918 25829606 25715232 25579446 25433236 
1641.686 25293152 25173862 25082476 25015538 24959454 24894080 24797386 
1645.061 24651928 24450958 24201664 23924360 23647586 23401582 23208112 
1648.436 23080028 23020944 23025800 23082754 23169736 23255510 23293754 
1651.811 23229398 23021398 22674290 22258432 21871930 21585594 21410124 
1655.187 21316152 21262630 21217572 21163680 21096614 21021766 20946794 
1658.562 20876804 20811102 20742456 20660962 20557874 20428210 20271676 
1661.937 20091288 19892728 19683130 19471174 19267356 19082674 18925586 
1665.312 18800352 18703690 18625242 18547398 18449962 18315498 18134296 
1668.688 17909178 17655050 17393482 17144138 16919532 16723657 16554167 
1672.063 16405320 16268598 16133053 15984248 15805390 15584292 15319988 
1675.438 15028506 14737699 14477335 14264958 14101525 13975243 13867985 
1678.813 13765061 13659735 13556929 13468878 13408286 13378590 13368784 
1682.188 13350025 13284221 13132188 12875719 12534917 12165929 11832698 
1685.564 11572402 11388379 11260572 11162922 11072330 10973975 10861543 
1688.939 10734366 10595547 10450425 10306607 10173792 10061975 9980020 
1692.314 9931641 9911878 9906115 9892318 9845272 9745974 9593514 9411309 
1696.172 9239335 9111685 9042460 9021215 9020844 9003929 8933741 8787381 
1700.029 8567393 8308032 8057400 7854178 7711150 7620027 7563549 7523698 
1703.886 7484660 7433390 7361333 7265128 7147927 7018633 6888874 6770461 
1707.744 6670821 6592497 6533395 6488459 6452103 6420997 6395541 6379099 
1711.601 6375703 6387774 6414137 6450388 6490645 6529291 6562995 6590244 
1715.459 6609015 6614735 6598890 6552131 6469490 6356504 6228992 6107197 
1719.316 6008179 5940221 5901661 5884834 5879729 5878217 5875530 5870963 
1723.174 5866631 5864951 5867202 5872709 5880602 5890778 5904986 5925844 
1727.031 5955236 5991919 6031361 6067177 6093924 6109852 6118320 6126015 
1730.888 6138684 6157437 6174039 6171619 6128939 6028068 5867000 5665404 
1734.746 5459607 5283355 5153643 5070598 5022394 4994574 4973224 4949395 
1738.603 4918496 4880463 4838579 4797302 4760787 4732112 4712919 4704043 
1742.461 4705014 4714259 4729366 4747823 4768391 4791540 4819247 4853924 
1746.318 4896580 4945541 4995814 5041065 5074688 5091483 5088600 5065301 
1750.176 5021489 4958377 4878686 4787922 4694932 4609832 4542159 4497295 
1754.033 4475199 4470244 4472487 4470311 4454377 4421773 4376888 4329430 
1757.890 4289072 4261567 4246643 4239015 4230683 4214624 4186855 4147513 
1761.748 4100282 4050380 4003058 3961928 3929963 3909568 3902146 3908231 
1765.605 3925482 3949255 3973063 3990518 3998744 4000484 4002189 4011117 
1769.463 4031183 4059310 4087003 4101218 4090381 4050213 3986439 3912944 
1773.320 3844377 3790560 3752959 3726758 3705971 3686990 3670349 3659790 
1777.177 3659589 3671385 3692136 3715796 3734544 3743067 3740694 3731670 
1781.035 3722346 3718136 3720943 3728295 3735681 3738154 3732706 3719673 
1784.892 3701660 3682044 3664234 3650868 3643985 3646625 3662196 3693540 
1788.750 3741462 3803095 3870653 3933507 3978982 3997507 3984900 3944708 
1792.607 3885764 3819975 3757605 3703933 3661260 3629451 3607700 3595372 
1796.465 3592031 3596140 3605094 3615819 3625207 3631188 3633092 3631322 
1800.322 3626277 3617757 3605261 3588189 3567242 3544626 3523915 3508516 
1804.179 3500532 3500065 3505175 3513426 3522645 3532700 3544926 3560928 
1808.037 3581407 3604225 3625508 3640477 3645255 3638472 3622200 3599782 
1811.894 3575427 3551941 3530929 3513092 3499464 3492182 3493852 3506645 
1815.752 3530963 3564736 3603190 3641379 3675796 3705771 3733341 3761683 
1819.609 3793568 3829903 3869516 3910504 3951863 3993093 4034795 4076400 
1823.467 4115568 4147681 4168254 4175313 4171466 4164173 4162768 4175179 
1827.324 4203516 4243732 4285893 4319123 4334015 4328091 4306440 4279401 
1831.181 4257116 4245874 4246342 4255309 4268393 4282748 4298174 4316713 
1835.039 4341110 4372704 4411129 4454812 4501982 4552438 4608091 4670985 
1838.896 4743066 4824976 4915145 5011366 5111733 5215107 5321054 5428605 
1842.754 5534974 5635630 5725766 5802253 5866429 5923527 5979927 6040499 
1846.611 6105718 6170980 6228992 6271884 6294307 6294676 6275649 6241597 
1850.469 6196389 6141406 6075980 5998504 5909285 5811152 5709617 5609985 
1854.326 5516383 5428907 5345307 5262225 5177751 5093126 5012138 4938637 
1858.183 4874833 4819180 4767453 4714259 4656382 4593557 4529235 4468002 
1862.041 4413371 4366311 4325581 4288704 4254975 4226233 4205925 4198196 
1865.898 4204787 4223122 4247279 4269597 4283617 4286462 4279636 4267556 
1869.756 4255309 4246041 4240085 4236338 4233494 4231151 4229512 4228843 
1873.613 4228308 4225464 4217400 4201743 4178725 4150892 4123028 4099078 
1877.470 4080916 4067069 4053858 4037738 4016803 3992057 3966475 3943705 
1881.328 3925048 3909735 3894222 3875300 3851330 3823919 3796744 3773982 
1885.185 3758507 3750152 3746308 3743869 3740593 3736282 3732105 3729297 
1889.043 3727760 3726290 3722179 3714125 3703298 3693139 3687859 3690733 
1892.900 3701426 3716765 3731570 3741630 3745339 3744938 3744771 3749350 
1896.758 3760513 3776689 3793903 3808042 3816866 3821446 3824187 3828231 
1900.615 3834816 3843040 3850093 3853570 3853102 3850628 3848890 3850762 
1904.472 3856478 3864234 3871455 3876704 3880515 3885964 3896429 3913212 
1908.330 3934410 3955040 3968549 3970856 3962129 3946012 3928926 3916489 
1912.187 3910036 3908297 3907896 3906191 3903282 3902747 3908130 3921671 
1916.045 3941298 3960892 3971391 3966509 3944541 3910303 3871455 3836120 
1919.902 3807574 3784577 3761382 3732639 3695411 3651704 3606731 3567242 
1923.760 3537777 3519372 3510019 3507079 3508916 3515731 3529026 3548634 
1927.617 3572587 3595906 3613313 3621666 3621465 3615919 3609705 3606397 
1931.474 3604960 3601519 3591095 3571384 3544726 3518436 3500165 3495756 
1935.332 3504541 3520507 3533602 3536274 3525819 3506445 3487005 3476316 
1939.189 3479957 3497326 3523180 3550037 3572721 3588857 3600183 3610105 
1943.047 3620697 3631923 3643885 3656716 3673690 3699321 3738254 3791429 
1946.904 3855576 3921738 3979383 4021117 4043892 4049845 4045095 4036032 
1950.761 4025130 4012690 3996236 3974434 3948487 3922440 3901109 3887034 
1954.619 3878944 3871121 3857013 3832777 3799217 3762017 3729431 3707208 
1958.476 3696815 3694475 3694041 3690633 3684350 3678402 3678202 3687258 
1962.334 3703899 3721878 3735012 3738755 3734310 3726357 3721912 3724318 
1966.191 3731737 3736616 3731637 3712688 3682546 3649699 3624573 3613647 
1970.049 3617022 3629050 3640844 3646257 3643684 3637937 3634195 3637904 
1973.906 3650401 3669447 3695545 3733475 3792198 3883724 4015365 4181234 
1977.763 4363165 4532349 4661372 4731141 4738176 4692387 4613482 4522003 
1981.621 4432618 4353493 4286395 4229713 4182573 4145908 4121121 4107774 
1985.478 4103259 4101653 4097305 4087906 4074393 4061885 4056300 4060614 
1989.336 4073089 4088642 4101352 4106871 4106035 4102490 4100449 4102924 
1993.193 4108778 4113093 4112524 4105065 4092656 4079879 4071015 4066768 
1997.051 4064226 4057437 4041383 4014796 3981724 3949322 3925315 3913580 
2000.908 3910270 3907963 3897030 3871355 3829936 3779530 3727560 3685019 
2004.765 3659222 3654109 3671686 3712120 3773782 3852968 3942601 4031417 
2008.623 4106369 4157683 4182038 4185617 4180933 4183677 4205423 4249186 
2012.480 4307711 4368587 4420133 4455682 4475735 4487218 4496424 4506736 
2016.338 4516378 4518588 4507707 4483133 4450393 4418158 4395966 4388970 
2020.195 4395698 4410526 4427095 4441187 4453540 4468236 4486782 4508510 
2024.052 4528599 4540585 4541757 4535697 4530273 4537137 4564057 4611138 
2027.910 4670348 4730136 4779212 4813049 4835765 4856236 4884986 4929187 
2031.767 4988105 5057055 5130240 5202934 5274701 5347654 5422231 5494470 
2035.625 5558198 5605085 5630729 5636066 5627842 5615423 5606629 5604514 
2039.482 5605554 5605186 5597634 5581959 5562762 5547022 5540143 5543666 
2043.340 5554070 5564138 5568300 5564742 5557426 5555077 5567662 5599983 
2047.197 5653152 5721502 5795370 5863776 5916910 5946737 5949324 5923896 
2051.054 5873918 5808164 5738860 5679638 5643652 5639288 5666814 5718749 
2054.912 5782811 5845405 5896690 5933469 5957520 5973947 5987216 5997765 
2058.769 6004316 6004618 5998538 5989131 5982513 5984462 5997261 6019300 
2062.627 6043893 6063212 6071982 6069529 6059046 6046648 6037274 6031797 
2066.484 6028438 6023029 6012379 5996757 5979624 5964977 5955941 5952381 
2070.342 5950298 5945058 5933335 5914390 5891887 5871164 5856152 5849099 
2074.199 5849570 5854842 5862936 5873885 5888427 5908009 5932327 5958259 
2078.056 5980867 5995783 6000788 5997966 5992389 5989837 5994741 6007709 
2081.914 6026254 6046144 6063481 6076350 6084381 6088783 6089119 6083574 
2085.771 6070033 6046681 6014562 5978381 5945058 5920739 5908848 5908143 
2089.629 5912980 5916607 5913618 5902332 5885707 5869116 5856891 5852089 
2093.486 5854574 5861861 5871702 5883356 5896992 5914055 5934746 5957285 
2097.344 5978482 5995716 6007541 6016343 6026288 6041642 6064724 6094965 
2101.201 6128502 6161032 6189566 6214472 6238539 6265733 6298173 6335524 
2105.058 6375232 6413296 6447126 6476856 6504771 6533731 6565451 6599159 
2108.916 6632061 6660659 6683068 6699657 6713689 6728663 6745961 6765311 
2112.773 6783014 6794861 6798025 6793178 6782644 6771437 6763662 6761239 
2116.631 6763763 6769989 6777528 6786346 6796813 6809603 6824446 6840199 
2120.488 6853528 6862583 6867262 6869551 6873759 6883892 6901767 6926411 
2124.345 6954287 6980987 7003278 7021596 7037558 7053992 7072515 7092116 
2128.203 7109360 7120610 7123136 7116905 7105891 7094878 7088512 7090331 
2132.060 7101748 7122260 7152137 7191684 7240702 7298115 7360120 7420077 
2135.918 7471581 7509100 7531351 7542241 7548613 7556300 7569651 7588095 
2139.775 7608630 7626906 7641103 7651321 7661134 7673342 7687473 7699379 
2143.633 7702987 7691352 7661876 7617363 7563987 7510753 7464839 7428469 
2147.490 7400595 7377375 7355772 7334239 7313851 7293903 7273215 7248047 
2151.347 7212436 7161569 7095013 7013750 6921731 6822022 6715068 6599966 
2155.205 6477427 6355865 6253396 6197935 6221665 6346283 6575913 6887662 
2159.062 7236962 7572922 7849725 8040759 8141963 8165765 8132983 8066076 
2162.920 7984261 7898783 7818281 7748049 7690677 7647240 7616048 7591602 
2166.777 7567426 7538633 7502426 7460154 7415459 7369960 7323893 7273316 
2170.635 7212807 7138428 7052780 6961762 6876923 6808727 6763494 6740408 
2174.492 6733341 6731255 6723784 6705276 6673815 6630614 6580353 6526533 
2178.349 6472517 6423384 6384849 6363329 6364540 6389052 6431354 6480791 
2182.207 6522597 6544024 6539718 6511532 6467002 6417399 6372912 6337777 
2186.064 6313200 6297164 6286137 6280355 6280187 6286239 6299047 6315554 
2189.922 6330683 6340500 6343122 6339458 6333877 6331322 6333910 6341139 
2193.779 6350116 6356471 6357445 6352738 6344064 6334045 6325741 6319588 
2197.636 6314478 6310410 6306006 6301971 6299551 6298509 6297467 6293903 
2201.494 6284860 6269060 6248757 6229295 6216925 6217497 6233530 6263111 
2205.351 6301232 6342315 6380679 6414002 6441308 6463134 6479714 6491015 
2209.209 6495320 6492562 6483044 6468549 6451397 6434616 6418340 6402603 
2213.066 6386732 6369752 6352772 6337507 6325202 6316831 6311351 6306207 
2216.924 6298710 6288726 6277128 6266942 6261598 6262001 6266909 6272658 
2220.781 6273666 6265733 6248152 6222203 6191885 6162243 6136668 6116203 
2224.638 6100913 6089186 6079274 6070504 6061969 6052763 6042415 6029648 
2228.496 6014126 5996589 5978650 5961417 5945797 5931689 5916842 5900351 
2232.353 5882449 5864951 5852223 5848697 5856219 5874859 5900351 5927121 
2236.211 5950298 5968404 5982883 5998773 6021349 6053099 6093857 6140432 
2240.068 6187684 6231748 6270506 6302946 6329876 6351797 6367936 6377754 
2243.926 6381721 6381755 6382293 6388447 6403780 6429034 6461385 6494345 
2247.783 6521219 6537364 6541097 6533899 6520007 6503527 6487753 6474737 
2251.640 6466396 6464479 6471778 6490477 6520950 6561381 6606324 6648614 
2255.498 6681958 6702315 6709079 6704873 6694038 6678862 6660558 6638285 
2259.355 6610193 6576552 6539718 6503863 6474199 6454659 6445411 6444100 
2263.213 6447126 6450287 6451464 6450623 6449480 6449682 6452137 6455937 
2267.070 6459569 6461890 6462529 6461890 6461755 6462394 6462899 6462260 
2270.927 6458728 6451935 6443830 6437643 6437004 6444907 6461755 6484995 
2274.785 6511296 6536523 6557311 6572919 6583516 6590815 6596467 6602186 
2278.642 6608746 6617393 6628932 6643904 6663082 6686332 6711838 6737918 
2282.500 6762350 6783250 6799606 6811117 6817849 6819734 6817142 6810310 
2286.357 6800448 6789240 6778100 6768946 6762484 6757975 6753869 6748384 
2290.215 6740442 6730178 6719544 6710896 6706421 6707160 6712814 6721866 
2294.072 6732735 6744615 6757234 6771302 6787355 6804991 6823032 6839593 
2297.929 6852720 6861405 6865949 6867497 6867430 6867127 6866420 6864906 
2301.787 6861438 6855481 6847065 6837371 6827240 6817983 6810276 6803915 
2305.644 6798731 6794423 6790553 6786952 6783283 6778773 6772480 6764335 
2309.502 6754105 6743235 6733240 6725938 6722371 6722505 6724794 6727284 
2313.359 6728428 6727217 6723717 6719309 6714967 6711501 6708944 6706488 
2317.217 6702887 6697604 6690572 6681924 6672570 6663519 6655646 6650296 
2321.074 6648345 6649422 6652046 6652551 6645249 6623886 6582675 6518561 
2324.931 6432800 6330783 6220724 6112305 6014361 5931756 5866227 5815618 
2328.789 5775861 5743191 5715157 5690884 5671480 5658254 5652346 5654125 
2332.646 5663491 5679101 5700418 5726001 5753902 5781703 5806921 5827002 
2336.504 5840805 5849201 5853902 5858268 5864649 5874389 5887621 5903542 
2340.361 5921411 5940792 5962929 5988896 6019199 6053637 6091068 6129947 
2344.219 6170577 6214774 6266136 6328766 6405663 6496766 6598856 6705647 
2348.076 6810141 6905504 6985971 7047762 7089085 7109865 7111078 7095282 
2351.933 7065779 7025738 6978900 6928599 6877058 6826465 6779143 6736639 
2355.791 6700801 6673041 6654266 6643837 6640808 6643164 6648480 6655949 
2359.648 6665269 6676843 6692086 6710930 6732634 6755653 6778436 6800313 
2363.506 6822965 6849253 6882881 6926478 6980281 7041869 7107710 7172920 
2367.363 7234132 7290332 7342158 7391496 7440300 7489851 7539948 7590826 
2371.220 7642452 7695196 7750343 7808768 7870204 7934213 7999954 8066008 
2375.078 8133051 8202265 8275509 8354407 8439602 8530086 8623968 8718648 
2378.935 8811861 8902592 8990736 9076902 9161563 9245698 9329071 9411716 
2382.793 9493969 9575900 9657507 9738519 9817242 9891268 9958017 10015214 
2386.650 10061601 10098057 10126273 10148522 10166839 10182612 10196078 
2390.025 10207374 10216635 10224606 10232443 10241535 10252119 10263925 
2393.401 10275290 10284417 10289710 10290796 10287946 10282585 10276411 
2396.776 10271016 10268031 10269116 10275901 10290558 10314547 10348648 
2400.151 10392220 10443162 10498794 10555757 10612048 10666853 10720781 
2403.526 10775634 10833109 10894668 10961266 11033243 11110706 11194098 
2406.902 11283525 11378549 11478934 11583121 11689817 11798105 11908090 
2410.277 12020656 12136830 12257295 12381339 12507055 12630762 12748531 
2413.652 12857527 12955832 13042994 13120098 13188506 13249171 13303114 
2417.027 13350776 13392327 13428585 13460027 13487096 13509757 13528112 
2420.403 13541512 13550092 13554810 13556690 13557647 13559630 13563766 
2423.778 13571082 13581885 13596107 13614774 13639118 13670506 13710720 
2427.153 13761265 13822079 13893232 13974423 14065006 14164645 14273039 
2430.528 14389200 14512004 14640601 14773418 14909910 15050082 15194450 
2433.904 15343569 15498062 15657624 15822057 15991433 16165448 16345177 
2437.279 16531656 16725276 16925664 17131936 17341824 17553536 17766528 
2440.654 17981316 18199180 18421648 18649800 18882984 19120208 19359986 
2444.029 19601282 19844932 20092502 20345562 20605160 20871312 21141450 
2447.405 21412630 21681576 21945878 22204516 22457520 22705466 22948908 
2450.780 23188118 23422914 23653044 23879094 24101446 24320194 24535374 
2454.155 24745644 24948752 25142404 25324166 25491772 25644188 25780308 
2457.530 25899062 25999482 26079698 26137686 26172314 26182766 26168690 
2460.906 26130824 26069916 25986854 25883236 25760900 25621798 25469602 
2464.281 25308078 25140614 24971140 24803034 24639304 24483384 24339048 
2467.656 24210210 24101306 24015888 23956466 23924396 23919844 23941306 
2471.031 23987630 24057316 24148486 24259226 24386990 24528504 24680616 
2474.406 24840326 25004834 25172634 25341762 25510360 25675614 25834248 
2477.782 25982704 26117946 26238304 26343310 26433166 26508528 26569322 
2481.157 26614552 26643300 26654644 26649570 26630230 26600250 26563404 
2484.532 26522722 26479722 26434082 26384434 26329158 26266954 26197792 
2487.907 26122414 26041734 25956780 25868290 25776230 25680674 25581380 
2491.283 25477716 25368914 25253924 25130642 24997322 24852290 24695242 
2494.658 24526784 24348720 24162848 23970578 23772686 23568624 23357176 
2498.033 23137966 22910694 22676000 22435748 22191476 21944936 21697632 
2501.408 21450782 21205672 20963970 20727164 20497224 20275426 20062278 
2504.784 19857904 19661808 19473876 19294060 19122908 18960820 18807722 
2508.159 18663532 18527134 18397552 18274232 18157098 18046210 17942050 
2511.534 17844510 17752686 17665646 17582244 17502030 17425592 17354134 
2514.909 17289238 17232282 17184054 17144240 17112566 17088612 17072036 
2518.285 17062868 17061458 17066798 17077516 17092714 17110154 17129902 
2521.660 17152170 17177848 17208254 17243900 17284170 17327272 17371550 
2525.035 17415040 17456566 17495994 17533252 17567854 17599218 17625478 
2528.410 17644870 17656396 17659812 17655670 17645630 17630654 17611432 
2531.786 17588074 17560126 17527248 17489786 17448874 17405794 17362308 
2535.161 17319652 17278412 17239246 17202530 17168750 17138830 17113566 
2538.536 17093094 17077136 17064592 17054494 17045810 17038298 17031992 
2541.911 17027512 17025100 17024204 17023860 17022930 17019862 17013938 
2545.287 17005460 16994710 16982752 16970762 16958944 16947472 16935896 
2548.662 16923460 16909164 16892696 16873992 16853978 16834516 16818396 
2552.037 16807824 16805448 16811268 16823530 16839168 16853290 16861452 
2555.412 16861488 16853220 16838202 16820396 16803106 16788366 16776862 
2558.788 16767461 16757989 16746936 16732886 16715290 16694389 16670080 
2562.163 16641743 16609004 16571585 16529625 16484469 16438218 16392795 
2565.538 16349958 16310774 16275065 16243109 16215181 16191965 16174631 
2568.913 16164485 16161665 16165724 16175078 16188009 16202558 16217897 
2572.289 16233925 16251056 16270421 16292438 16317206 16344523 16373871 
2575.664 16404528 16436256 16468054 16499579 16530177 16559675 16588073 
2579.039 16616061 16644396 16673489 16704237 16736191 16768804 16801624 
2582.414 16834516 16867894 16902996 16941340 16983890 17031234 17082994 
2585.790 17138452 17196670 17257382 17320064 17384722 17451288 17518934 
2589.165 17586660 17653704 17719516 17784098 17848550 17913632 17979900 
2592.540 18047522 18115226 18181834 18245966 18306754 18364128 18418710 
2595.915 18471018 18521602 18570806 18619120 18666886 18715280 18765684 
2599.291 18819244 18876686 18937840 19001284 19065952 19130318 19194070 
2602.666 19258038 19323920 19393314 19468158 19549012 19635462 19726678 
2606.041 19821140 19917564 20015120 20113672 20212904 20313444 20416020 
2609.416 20520948 20628822 20739326 20851564 20964040 21074944 21182432 
2612.792 21285910 21385376 21481522 21575984 21669384 21761798 21852034 
2616.167 21938662 22019838 22094892 22164382 22229800 22293170 22356342 
2619.542 22420012 22483724 22546748 22607582 22665528 22720898 22774074 
2622.917 22826278 22878422 22930814 22983388 23036036 23088518 23140694 
2626.292 23193466 23246736 23300886 23356058 23412108 23468588 23525250 
2629.668 23582162 23639190 23696328 23753542 23811292 23869678 23929612 
2633.043 23991516 24055950 24122916 24191680 24261012 24329272 24395192 
2636.418 24457830 24517354 24574292 24629660 24684894 24740628 24797244 
2639.793 24855238 24914958 24976686 25041056 25108384 25178356 25250482 
2643.169 25323674 25396912 25469390 25540896 25611640 25682292 25753622 
2646.544 25826442 25901558 25979572 26060980 26146342 26235874 26329088 
2649.919 26425420 26523392 26621492 26718664 26814236 26908208 27001530 
2653.294 27095224 27189822 27285850 27383310 27481958 27581724 27683136 
2656.670 27786410 27892286 28001334 28113378 28227928 28344344 28461536 
2660.045 28578160 28693362 28806152 28915536 29021228 29123082 29221632 
2663.420 29318180 29413796 29510068 29607712 29707042 29807284 29907442 
2666.795 30006560 30103818 30199462 30294028 30388436 30483788 30580582 
2670.171 30679034 30779146 30880668 30983280 31086950 31191604 31297032 
2673.546 31403340 31510640 31618640 31727734 31837930 31948898 32060220 
2676.921 32170996 32280374 32387890 32493714 32598566 32703980 32811992 
2680.296 32923888 33040360 33162150 33289094 33420798 33557408 33699684 
2683.672 33848344 34004080 34167472 34338672 34517260 34702880 34894900 
2687.047 35093328 35297628 35507168 35721200 35938828 36159016 36381512 
2690.422 36606468 36835072 37068448 37307592 37552888 37804300 38060984 
2693.797 38322020 38587196 38856596 39130620 39410008 39695164 39985848 
2697.173 40281672 40581844 40885752 41193416 41505116 41820764 42140916 
2700.548 42465320 42793044 43123128 43454460 43785896 44116668 44446004 
2703.923 44773092 45097228 45417484 45732676 46041728 46343364 46636248 
2707.298 46918844 47189988 47448296 47692552 47922556 48137944 48339372 
2710.674 48527512 48702872 48865812 49016640 49155356 49282048 49397124 
2714.049 49500604 49592816 49673200 49741036 49794880 49832932 49853964 
2717.424 49857160 49843004 49813052 49769572 49715628 49654364 49588136 
2720.799 49519432 49450440 49382792 49318796 49260780 49211424 49173684 
2724.175 49150492 49143700 49154760 49183668 49230164 49292516 49369352 
2727.550 49459568 49562324 49677660 49805656 49946704 50100736 50266692 
2730.925 50443316 50628312 50819456 51014712 51212332 51411196 51609928 
2734.300 51807748 52003336 52195500 52383112 52565240 52741076 52910852 
2737.676 53074548 53232432 53384900 53532772 53676236 53816180 53953660 
2741.051 54089680 54225592 54363088 54503068 54647152 54796548 54951968 
2744.426 55114560 55284924 55462812 55648076 55839600 56035996 56235500 
2747.801 56436188 56635684 56831988 57022864 57205924 57379080 57540424 
2751.177 57688356 57822068 57941284 58045760 58136168 58213072 58277108 
2754.552 58328760 58368436 58396412 58412668 58416876 58408008 58384736 
2757.927 58345660 58289008 58213072 58117004 57999976 57862080 57703796 
2761.302 57526084 57330112 57117068 56888380 56645460 56390232 56125008 
2764.677 55852636 55576412 55300016 55026844 54760048 54502168 54255324 
2768.053 54021008 53800504 53595220 53406480 53235876 53084320 52953072 
2771.428 52842028 52750772 52677892 52621524 52579488 52549456 52529340 
2774.803 52517148 52510904 52508884 52508956 52509072 52506676 52499128 
2778.178 52483568 52457284 52418068 52363712 52293296 52206820 52105048 
2781.554 51989964 51863860 51729540 51589632 51446744 51303384 51161712 
2784.929 51023808 50891200 50765268 50645996 50532452 50422584 50313376 
2788.304 50201112 50082848 49956292 49820184 49675096 49522512 49364044 
2791.679 49202332 49039340 48876860 48716480 48559896 48408780 48265196 
2795.055 48131540 48009960 47902428 47810572 47734676 47674620 47629656 
2798.430 47598372 47579556 47572716 47577192 47593420 47621960 47662896 
2801.805 47716144 47780904 47855480 47938024 48026316 48118920 48214396 
2805.180 48312224 48411964 48513396 48616000 48718664 48819980 48918504 
2808.556 49012336 49099960 49179844 49250352 49310144 49358068 49393332 
2811.931 49415388 49424260 49420660 49404844 49377928 49340324 49292480 
2815.306 49235432 49170532 49099624 49026100 48953736 48887240 48831256 
2818.681 48790768 48769744 48772080 48800704 48857468 48943540 49058928 
2822.057 49202664 49372768 49566852 49782136 50015624 50264568 50525824 
2825.432 50795624 51070356 51345296 51615640 51877488 52126756 52361356 
2828.807 52580012 52782796 52970700 53145768 53309672 53465012 53614264 
2832.182 53760640 53906876 54056392 54212264 54377884 54556148 54750388 
2835.558 54964076 55200976 55465220 55761120 56093412 56467432 56888644 
2838.933 57364256 57902892 58514300 59211020 60007604 60919368 61964292 
2842.308 63161432 64530112 66091620 67866696 69873288 72124552 74623544 
2845.683 77357464 80289744 83356368 86466096 89491856 92288960 94704920 
2849.059 96587112 97815016 98309568 98044968 97051768 95411544 93246800 
2852.434 90692440 87892384 84982592 82072904 79256264 76600960 74150048 
2855.809 71929656 69948208 68200984 66673180 65343188 64187348 63179216 
2859.184 62294604 61512592 60813204 60180588 59602064 59066744 58566512 
2862.560 58096172 57652140 57233256 56839428 56472452 56134740 55830144 
2865.935 55563720 55341000 55168392 55051780 54994988 54999764 55064416 
2869.310 55183896 55349432 55550088 55773060 56004068 56229352 56436336 
2872.685 56613756 56754384 56854084 56913796 56937556 56933252 56910400 
2876.061 56878596 56847208 56824020 56815108 56825192 56857292 56913612 
2879.436 56995092 57101840 57233292 57388304 57565996 57765140 57985132 
2882.811 58224136 58480372 58750108 59028252 59308736 59584844 59850704 
2886.186 60102156 60337532 60557648 60766556 60970224 61175748 61390792 
2889.562 61623508 61880496 62168680 62494588 62865428 63290440 63781484 
2892.937 64353160 65024064 65815048 66746244 67836296 69096904 70529424 
2896.312 72119232 73835152 75624984 77415512 79123024 80655200 81921752 
2899.687 82853768 83406272 83569552 83368448 82859936 82123776 81245024 
2903.063 80312992 79406416 78586936 77904920 77395160 77081216 76979856 
2906.438 77101680 77454912 78046272 78882336 79970808 81321136 82942592 
2909.813 84844192 87029704 89495440 92224216 95180760 98314016 101549032 
2913.188 104791328 107937424 110870504 113476360 115659008 117341232 
2916.081 118480664 119070280 119138232 118739192 117942872 116829360 
2918.974 115472536 113935616 112271400 110515904 108693088 106817624 
2921.867 104897328 102938024 100946720 98933656 96914400 94909272 92940200 
2925.243 91030272 89200304 87465592 85836640 84318336 82910624 81608968 
2928.618 80406000 79292056 78255240 77282400 76360432 75475912 74617488 
2931.993 73775608 72942808 72113552 71283968 70451136 69613192 68769544 
2935.368 67921088 67069924 66220188 65376468 64543456 63726076 62928660 
2938.744 62155568 61411744 60703144 60036104 59417988 58855388 58353236 
2942.119 57914176 57537700 57219760 56952516 56725652 56525888 56337756 
2945.494 56146504 55938524 55703824 55438868 55146496 54836696 54524216 
2948.869 54226832 53961916 53743092 53579216 53473368 53423268 53422068 
2952.245 53460368 53527712 53612088 53701920 53786288 53854176 53896788 
2955.620 53906956 53879380 53811608 53703268 53556460 53374560 53162772 
2958.995 52927504 52674900 52411748 52144012 51876740 51613884 51358648 
2962.370 51112804 50877976 50655492 50446028 50250432 50069164 49902692 
2965.746 49751108 49614880 49494252 49389772 49302164 49232128 49180176 
2969.121 49147264 49134208 49142516 49174092 49231052 49315416 49428196 
2972.496 49568788 49734464 49920572 50119404 50321340 50515444 50688628 
2975.871 50827576 50920112 50954948 50924360 50825156 50659548 50434044 
2979.247 50160236 49853148 49527712 49199584 48883016 48588652 48324928 
2982.622 48096596 47904388 47745512 47613536 47499708 47393004 47282268 
2985.997 47158188 47013464 46844912 46652588 46439628 46211444 45972768 
2989.372 45728040 45479292 45225684 44964212 44690856 44401556 44094112 
2992.748 43769700 43432340 43089940 42750992 42424184 42115652 41827844 
2996.123 41559552 41305852 41060824 40817680 40571692 40320572 40064000 
2999.498 39803984 39543396 39285508 39032736 38787320 38550628 38323180 
3002.873 38105148 37896736 37697640 37507480 37326220 37153732 36990188 
3006.249 36835576 36689780 36552292 36422408 36299088 36181236 36067916 
3009.624 35958412 35851952 35748112 35646308 35545788 35446012 35346724 
3012.999 35248108 35151128 35056504 34965856 34880068 34800224 34726600 
3016.374 34659920 34600244 34547748 34502296 34463196 34429228 34399100 
3019.750 34371304 34344588 34318804 34294352 34272048 34252616 34236484 
3023.125 34223216 34212392 34203248 34195900 34191812 34193356 34203392 
3026.500 34224868 34259680 34308084 34368544 34437444 34510440 34581764 
3029.875 34645960 34698000 34733888 34751368 34749684 34730012 34694872 
3033.250 34647432 34591272 34529848 34465636 34401108 34338316 34278788 
3036.626 34224328 34176292 34135140 34100912 34072704 34049160 34028448 
3040.001 34009420 33991108 33973232 33956320 33941092 33928480 33919632 
3043.376 33915296 33916016 33922068 33933140 33947972 33965668 33984444 
3046.751 34003724 34023144 34043464 34065612 34090768 34119660 34151808 
3050.127 34186472 34222356 34258820 34295572 34333328 34372560 34413876 
3053.502 34457028 34500720 34543408 34583704 34621088 34656440 34691536 
3056.877 34728432 34769244 34814904 34865344 34919708 34976844 35035992 
3060.252 35097024 35160256 35226508 35296444 35371204 35451008 35536152 
3063.628 35626852 35722428 35822088 35924828 36028860 36132476 36234684 
3067.003 36334532 36431812 36526664 36619228 36709108 36795432 36877232 
3070.378 36953316 37023416 37087580 37146584 37202028 37255380 37307768 
3073.753 37360524 37414584 37470532 37529156 37591076 37656116 37723876 
3077.129 37793632 37863800 37933580 38002216 38069376 38135208 38200040 
3080.504 38263576 38325712 38386116 38444724 38501856 38558120 38614540 
3083.879 38671800 38730988 38791996 38854964 38920300 38988588 39060432 
3087.254 39136748 39218120 39304224 39394372 39487112 39581072 39675484 
3090.630 39770068 39864852 39960456 40057168 40155176 40254260 40354496 
3094.005 40455952 40559324 40665092 40773968 40886012 41000808 41117716 
3097.380 41235712 41353920 41471724 41588468 41704180 41818396 41931104 
3100.755 42042532 42153256 42264448 42377568 42493456 42612520 42734320 
3104.131 42857620 42980736 43102748 43222968 43342160 43461272 43581736 
3107.506 43704176 43828996 43955612 44083292 44211452 44339572 44467620 
3110.881 44595748 44723948 44852108 44980092 45107812 45235316 45362672 
3114.256 45490364 45618056 45745452 45872076 45997372 46121788 46246088 
3117.632 46371380 46499072 46629572 46762540 46896548 47029492 47159776 
3121.007 47286184 47408860 47528944 47647920 47767480 47888220 48010476 
3124.382 48133652 48257272 48380888 48504580 48628452 48753140 48879420 
3127.757 49007996 49139472 49274144 49412084 49552332 49694112 49835420 
3131.133 49974808 50111000 50243960 50374544 50503940 50634232 50766720 
3134.508 50902156 51040132 51179864 51320836 51462672 51605228 51748800 
3137.883 51893616 52039116 52184776 52329888 52473588 52616028 52757840 
3141.258 52899552 53041752 53184608 53327576 53470184 53611676 53752276 
3144.634 53892548 54033840 54177056 54322984 54471664 54622352 54774556 
3148.009 54927528 55081232 55235820 55391700 55548584 55706160 55863868 
3151.384 56020840 56176368 56330396 56482980 56634288 56784672 56933856 
3154.759 57081320 57226904 57370040 57510692 57649268 57786112 57921744 
3158.135 58056896 58191744 58327016 58463084 58600676 58740248 58882404 
3161.510 59027532 59175400 59326172 59479312 59634140 59790088 59946248 
3164.885 60101816 60256484 60409688 60561572 60712252 60861880 61010224 
3168.260 61156524 61299968 61439148 61573604 61703552 61829756 61953520 
3171.635 62076852 62200184 62324168 62448408 62572152 62694900 62816264 
3175.011 62936200 63054496 63170744 63284196 63393608 63498252 63598512 
3178.386 63695536 63791580 63889072 63989380 64093208 64199328 64306208 
3181.761 64411728 64514964 64615844 64715216 64814024 64913048 65012248 
3185.136 65110936 65208180 65303484 65397420 65490604 65584428 65679468 
3188.512 65775916 65873192 65970264 66066116 66160336 66252916 66344044 
3191.887 66433772 66522084 66608324 66692308 66773944 66853516 66932364 
3195.262 67011496 67091696 67172824 67254592 67336072 67416520 67495632 
3198.637 67573320 67649928 67725792 67800608 67873784 67944680 68012296 
3202.013 68076360 68137056 68195600 68253096 68311336 68371752 68435560 
3205.388 68503136 68573936 68646504 68718928 68788600 68853128 68911608 
3208.763 68963992 69012112 69058448 69105768 69155608 69208616 69263640 
3212.138 69318832 69372464 69423824 69473392 69522936 69574736 69630392 
3215.514 69690448 69754248 69819816 69884728 69947352 70006288 70061840 
3218.889 70114992 70167128 70219952 70275064 70332912 70393768 70457168 
3222.264 70522136 70587512 70652376 70716128 70778480 70840024 70901152 
3225.639 70962008 71022920 71083288 71142768 71201400 71260032 71319736 
3229.015 71382608 71449824 71522208 71599288 71679512 71760960 71841952 
3232.390 71921328 71998640 72074400 72149112 72223176 72296784 72369944 
3235.765 72442520 72515104 72588640 72664032 72741864 72822144 72903928 
3239.140 72986152 73067624 73147368 73225216 73301464 73376432 73450272 
3242.516 73523104 73594776 73665672 73736888 73809664 73885736 73966696 
3245.891 74052664 74143168 74236680 74331032 74424664 74517216 74608440 
3249.266 74699416 74791040 74883432 74976552 75069488 75161152 75250584 
3252.641 75337432 75422016 75504528 75585480 75665056 75742648 75817560 
3256.017 75889176 75956656 76020168 76080248 76137776 76194040 76249992 
3259.392 76306200 76362568 76418552 76473232 76525864 76575824 76623136 
3262.767 76668040 76711288 76752528 76792144 76829240 76863208 76893392 
3266.142 76919608 76942160 76961864 76980016 76997696 77015664 77034656 
3269.518 77054624 77075408 77096456 77117392 77137568 77156448 77173104 
3272.893 77187552 77199464 77209560 77218104 77226024 77233624 77241024 
3276.268 77248232 77255160 77262008 77269888 77280216 77294392 77313272 
3279.643 77337072 77364984 77395872 77428376 77461880 77496376 77533056 
3283.019 77572784 77616960 77665848 77719264 77776528 77837096 77900160 
3286.394 77965616 78033152 78102384 78172912 78244488 78316624 78389872 
3289.769 78465408 78544568 78628984 78720128 78818088 78923064 79034536 
3293.144 79152096 79275552 79405856 79543520 79688792 79842200 80002992 
3296.520 80170456 80343688 80521848 80703720 80888656 81075784 81264160 
3299.895 81453528 81644632 81838656 82038120 82245656 82463216 82692512 
3303.270 82933320 83184896 83445656 83714080 83989192 84270344 84556872 
3306.645 84848224 85143512 85442040 85743064 86046848 86354480 86666496 
3310.021 86983344 87304808 87629592 87956528 88285080 88616000 88951688 
3313.396 89295200 89648720 90013048 90386704 90765984 91146528 91524968 
3316.771 91899592 92270440 92640216 93010832 93384568 93762288 94143624 
3320.146 94527304 94912528 95297936 95682272 96064184 96442128 96814016 
3323.521 97178776 97536280 97887408 98234288 98578944 98922344 99264552 
3326.897 99603656 99937056 100262248 100577488 100881840 101175072 101456728 
3330.272 101725648 101980264 102218840 102440056 102643600 102829512 
3333.165 102998168 103149400 103282280 103394808 103485456 103553416 
3336.058 103598832 103623696 103630296 103620072 103593744 103550552 
3338.951 103488736 103406072 103301280 103173480 103022072 102846816 
3341.844 102646744 102420808 102168192 101888080 101580632 101246304 
3344.737 100886224 100500552 100089656 99653416 99192096 98706904 98200264 
3348.113 97675048 97134632 96581944 96018712 95446224 94865496 94278168 
3351.488 93685720 93090440 92493496 91895696 91296680 90695624 90091984 
3354.863 89486888 88882032 88281264 87688144 87105496 86534928 85976448 
3358.238 85429248 84892896 84367872 83855328 83357008 82874728 82409096 
3361.614 81959640 81524888 81103184 80692784 80292936 79903368 79524624 
3364.989 79156896 78801040 78457120 78125672 77806928 77501096 77207976 
3368.364 76926528 76654952 76391216 76132832 75877456 75623968 75371128 
3371.739 75118016 74863624 74606472 74344408 74075536 73798472 73511608 
3375.115 73214856 72907648 72589504 72259880 71918120 71563688 71196592 
3378.490 70817208 70425648 70022408 69607008 69178224 68734800 68275152 
3381.865 67798408 67305040 66796280 66273644 65739408 65195592 64644068 
3385.240 64086916 63526556 62965164 62405144 61848592 61297488 60752876 
3388.615 60215412 59685308 59162152 58645236 58133140 57624560 57117748 
3391.991 56611976 56106912 55603936 55104968 54612092 54127172 53650668 
3395.366 53181308 52717436 52256668 51797444 51340188 50885836 50435944 
3398.741 49992280 49555044 49123556 48696052 48271044 47846972 47424012 
3402.116 47002760 46583828 46167808 45754252 45342444 44931436 44521072 
3405.492 44111752 43705092 43303132 42907068 42517608 42134748 41757108 
3408.867 41383512 41013520 40646460 40282796 39923076 39567968 39217432 
3412.242 38871816 38530672 38194432 37863476 37538584 37221268 36912696 
3415.617 36613892 36325132 36046212 35775564 35510728 35248968 34987472 
3418.993 34723944 34457920 34190916 33925292 33664916 33412494 33169520 
3422.368 32935866 32709446 32487396 32267242 32047522 31827662 31608410 
3425.743 31390876 31175372 30962002 30749946 30538812 30328740 30120970 
3429.118 29916530 29717402 29524218 29336826 29154158 28975002 28798468 
3432.494 28623954 28452374 28283446 28116914 27951824 27786444 27618514 
3435.869 27447296 27273220 27098222 26925198 26757040 26595284 26440560 
3439.244 26291140 26144970 25999766 25853906 25706898 25559556 25413108 
3442.619 25268988 25128220 24990934 24856186 24722424 24587476 24448820 
3445.995 24304636 24154126 23997644 23837334 23676662 23519022 23367350 
3449.370 23223246 23086596 22955754 22828688 22703126 22577670 22451692 
3452.745 22325332 22198590 22071396 21943612 21814542 21684398 21553244 
3456.120 21422308 21292800 21165732 21041660 20920228 20800360 20680768 
3459.496 20560412 20438560 20314866 20189542 20063146 19936054 19809280 
3462.871 19684482 19563258 19447368 19338158 19235630 19138488 19044488 
3466.246 18950298 18853710 18752918 18647828 18539478 18430464 18322374 
3469.621 18217044 18115330 18016438 17919916 17824660 17729490 17633932 
3472.997 17537528 17440114 17342064 17243968 17146586 17050566 16957224 
3476.372 16866654 16779410 16695904 16615959 16539505 16466368 16396202 
3479.747 16327733 16260274 16192481 16123528 16053831 15984144 15916808 
3483.122 15853878 15796732 15745124 15698332 15653433 15607853 15560217 
3486.498 15510148 15458678 15408312 15361006 15318237 15280072 15245512 
3489.873 15212636 15180313 15147855 15115261 15084008 15055570 15030975 
3493.248 15011390 14997156 14988651 14985529 14987587 14994515 15005833 
3496.623 15022023 15043084 15070355 15105175 15148678 15201587 15263082 
3499.999 15331280 15403196 15475502 15545588 15612009 15675521 15738321 
3503.374 15804257 15876938 15959669 16054690 16163042 16284525 16417811 
3506.749 16560880 16711261 16866138 17023000 17180226 17337444 17495512 
3510.124 17656018 17820966 17991364 18167842 18349610 18535916 18725312 
3513.500 18916934 19110306 19304766 19499418 19692734 19882496 20066648 
3516.875 20243590 20412894 20574482 20728588 20875168 21012620 21138460 
3520.250 21249408 21341626 21411796 21458022 21478668 21474002 21444864 
3523.625 21392684 21319528 21227314 21117136 20989146 20842526 20675938 
3527.000 20487324 20276258 20043644 19792668 19527696 19253536 18973906 
3530.376 18691064 18406162 18119304 17831426 17543912 17258932 16978378 
3533.751 16702928 16431369 16161080 15888486 15610773 15327059 15039173 
3537.126 14750416 14465345 14188163 13921183 13665889 13422707 13191239 
3540.501 12971365 12762487 12563839 12373839 12190226 12010267 11831336 
3543.877 11651628 11470362 11287368 11102752 10917229 10731004 10545640 
3547.252 10362662 10185494 10017485 9861575 9718934 9588704 9466944 9348673 
3551.109 9229283 9105391 8976157 8844086 8712293 8584526 8463353 8348867 
3554.967 8240017 8135515 8033604 7933674 7835993 7741067 7649163 7560177 
3558.824 7473503 7388564 7305225 7224227 7146209 7072515 7004389 6942032 
3562.682 6886147 6836664 6792841 6753398 6715540 6674690 6624626 6558656 
3566.539 6471407 6361077 6231110 6088682 5943849 5806182 5682055 5574072 
3570.396 5481552 5400860 5328166 5259207 5191231 5122629 5053501 4984050 
3574.254 4915581 4849133 4785443 4724777 4667099 4611674 4557260 4502919 
3578.111 4447247 4390075 4331639 4272977 4215962 4162132 4112959 4069410 
3581.969 4032454 4002356 3979885 3965105 3957982 3956712 3958819 3959320 
3585.826 3952331 3931267 3891146 3829334 3747946 3653107 3553645 3459015 
3589.684 3377329 3313120 3268082 3240474 3225786 3218109 3211366 3199449 
3593.541 3178221 3146447 3104863 3056744 3006328 2957552 2914119 2878328 
3597.398 2851178 2833202 2823464 2821063 2823664 2829667 2836671 2843007 
3601.256 2848377 2853113 2858650 2867055 2879929 2897607 2919389 2942540 
3605.113 2962990 2976735 2978470 2964057 2930331 2876494 2803854 2717557 
3608.971 2624842 2533514 2450303 2379000 2319735 2269504 2223542 2176686 
3612.828 2125806 2070670 2013677 1959987 1915189 1882808 1864373 1858516 
3616.686 1860745 1864972 1864073 1851661 1822879 1776731 1715884 1645967 
3620.543 1574397 1508126 1452138 1409653 1381099 1366042 1363682 1373720 
3624.400 1396057 1431327 1478502 1534660 1593619 1644703 1674006 1668218 
3628.258 1617929 1523920 1399747 1268100 1150312 1060688 1003297 974238 
3632.115 965571 967464 971748 972677 967663 956771 941961 925723 910084 
3636.455 896073 884186 874624 867021 861444 857526 854737 852712 850521 
3640.794 847799 844745 842122 841856 846570 859551 883788 921706 974338 
3645.134 1040727 1117756 1199849 1278468 1344737 1388977 1403537 1384290 
3648.991 1331708 1249956 1147488 1034914 923565 823266 742571 685885 654658 
3653.331 646926 657645 679713 704105 721794 726341 715289 691660 662357 
3657.671 635511 616797 608900 610758 618423 627647 634682 637834 637137 
3662.010 634748 633255 635179 642281 656052 677722 708917 752230 809788 
3666.350 883190 971648 1072314 1180910 1293023 1407160 1527278 1663961 
3670.207 1834192 2054856 2340622 2700352 3136368 3645957 4218772 4834893 
3674.065 5452192 6003509 6406537 6579310 6478403 6116135 5550042 4854796 
3677.922 4099479 3343270 2629409 1993139 1461480 1047834 751400 557506 
3681.780 443394 383762 357033 349771 354778 370165 395004 427175 462366 
3686.119 494508 515706 519587 501574 460973 400775 325962 243901 160100 
3690.459 79760 6593 -56489 -107009 -143844 -166996 -178058 -179251 -173620 
3694.798 -163717 -151826 -139140 -127017 -115688 -105088 -94521 -83854 
3698.656 -72690 -61492 -51917 -46120 -46318 -54601 -70470 -91738 -114496 
3702.995 -133642 -145003 -145699 -135066 -113171 -81999 -42707 2882 53083 
3707.335 105809 158409 207203 248178 277155 290948 287035 265086 226497 
3711.675 175215 116680 57723 4837 -36512 -63513 -75572 -74478 -64043 -48505 
3716.496 -31674 -16367 -3114 8979 22266 38735 59247 82776 107334 130004 
3721.318 148896 163149 173657 181877 189203 195932 200474 200440 193148 
3725.658 177104 153537 125728 99910 81815 76480 86322 111079 147570 192021 
3730.479 239426 286571 331201 373946 415666 457324 496996 529639 547719 
3734.819 543572 512620 456827 385155 311472 249338 207468 188772 191225 
3739.159 209988 240221 279210 326128 380445 440939 502436 555416 586935 
3743.498 583617 539093 459978 366683 284051 230011 210883 222220 254544 
3747.838 295656 335147 364660 379252 376764 357033 321287 270789 209026 
3752.177 142334 78567 27038 -5036 -15009 -4903 19648 51493 82942 108593 
3756.999 125430 132490 130501 120326 102429 77341 46323 12723 -18488 -41945 
3761.821 -53276 -51155 -37837 -17858 3048 19450 28065 29225 25944 23128 
3766.643 24917 33334 47947 65510 81517 91194 91128 80456 60440 34560 6891 
3771.947 -19217 -41614 -59471 -73153 -83390 -90280 -92831 -89651 -78388 
3776.286 -58080 -29521 4075 37641 64450 79396 79860 67631 47815 26773 10337 
3781.590 1491 -397 1656 4009 3512 -1126 -9111 -18123 -25379 -29190 -29156 
3786.894 -26241 -21470 -16301 -11298 -6527 -1954 2253 5964 8780 10603 12756 
3792.198 16832 25050 39298 60009 85891 114426 141969 165237 182209 193811 
3797.020 202529 212441 226828 246819 270623 293268 307758 306797 285842 
3801.360 246288 195800 146808 110814 95237 101600 125795 159735 193943 
3805.699 219137 227789 217745 191457 156520 120790 90597 69023 56397 51592 
3810.521 53779 63356 81484 109621 148001 194971 245426 293036 329344 347516 
3815.343 344797 325000 297877 276226 271021 287466 323442 370629 417192 
3819.682 449430 454770 427904 372188 301160 231867 179689 152575 150156 
3824.022 166232 191722 217910 238166 249438 252554 251361 250897 254709 
3828.362 264423 278978 295424 310212 320458 324602 323740 320192 318700 
3832.701 323641 338463 365025 402334 447142 494409 537634 571109 589921 
3837.041 592243 579204 554752 524298 492452 462764 436229 412383 390262 
3841.380 368739 347118 325166 302586 279641 256798 235282 216750 203722 
3845.720 198518 202993 217977 243404 278282 322049 374476 435865 506682 
3850.060 586138 670255 751301 816726 850189 836777 768627 653331 512620 
3854.399 374443 261572 183203 137726 116514 110549 112504 118437 127883 
3858.739 142300 163149 191523 226231 264854 304343 341215 372851 397624 
3863.078 414074 421536 419878 410923 398520 388106 385619 395402 417888 
3867.418 449596 483130 508673 516999 503100 468934 423924 379948 347284 
3871.758 330173 325962 327520 326327 315915 293799 262500 228287 199015 
3876.097 180916 177303 188208 211115 242642 277884 311770 339491 357232 
3880.437 363698 361012 354281 349638 353186 367413 390627 416462 435367 
3884.776 437556 416893 375106 321618 271717 239161 232630 253284 295656 
3889.116 350235 404257 446976 470061 470426 449961 415003 373216 331765 
3893.456 296319 270888 258456 260942 279509 313627 361145 417789 479349 
3897.795 539890 594566 640090 674237 696804 708552 711008 705532 692655 
3902.135 672412 644471 608236 563279 510630 453145 394540 339458 292373 
3906.474 256466 232928 221192 219170 223911 232298 241680 250532 258025 
3910.814 264390 270424 276989 285477 297015 312898 333290 357597 383762 
3915.154 409000 429828 443593 448933 446943 440408 432581 426246 422598 
3919.493 421371 421304 421603 422200 423924 427772 434073 441868 448435 
3923.833 451022 447440 437523 423593 409995 401140 400145 407673 422598 
3928.172 441868 462565 482865 501673 519089 534548 547221 554620 554454 
3932.512 544733 525558 499252 469630 441072 417059 399647 389201 384889 
3936.852 385785 391224 400874 414671 432382 452813 473743 492916 507147 
3941.191 514279 513151 503830 487874 467408 445715 425815 410094 400675 
3945.531 397724 400841 408668 418983 429828 439646 447739 454472 460276 
3949.870 465981 472018 478188 484424 490793 497394 505057 514047 524364 
3954.210 535112 544800 552032 555880 556444 554752 552563 551501 552496 
3958.550 555283 558734 561421 562151 560658 557572 554155 551634 550705 
3962.889 551800 554454 558236 562649 567592 573099 579237 585873 592807 
3967.229 599841 606477 612881 619020 625324 632226 640124 648751 658308 
3971.568 668264 678551 688972 699293 709382 719040 728366 737327 746222 
3975.908 754952 763582 771747 778950 784460 787946 789539 789406 788410 
3980.248 787348 786352 785290 783564 780477 775365 768328 759499 749807 
3984.587 740414 731884 724582 718675 714559 711904 711041 711805 714393 
3988.927 718044 722425 726773 730689 733743 736033 737195 737626 737095 
3993.266 735568 733245 730457 727769 726142 726076 727901 731187 735236 
3997.606 738920 741244 741343 739286 734838 728432 720201 
##END=
