##TITLE=Z327c_3_b
##JCAMP-DX=5.01  $$ Nicolet v. 1
##DATATYPE=INFRARED SPECTRUM
##ORIGIN=UniL
##OWNER=Nicolet
##LONGDATE=2011/09/28
##TIME=14:25:32
##SPECTROMETER/DATA SYSTEM=Nicolet iS5
##DATA PROCESSING=
Ratio against background
%Transmittance->Absorbance
Truncated
ElementMultiply or ElementDivide
##COMMENTS=
Number of sample scans: 32
Collection length: 51.16 sec
Sample gain: 2.0
Background collected on: Mer Sep 28 14:15:14 2011 (GMT+02:00);
Number of background scans: 32
Background gain: 2.0
Sample spacing:  1.000
Number of scan points: 12415
Resolution points: 8192
Number of FFT points: 65536
Apodization: N-B fort;
Phase correction: Mertz;
Laser frequency: 15798.0 cm-1
Number of rejected sample scans: 0
Number of rejected background scans: 0
Bench serial number: ASB1000141;
##RESOLUTION=4.000
##XUNITS=1/CM
##YUNITS=ABSORBANCE
##FIRSTX=649.893372
##LASTX=4000.122314
##FIRSTY=0.112894
##MAXX=4000.122314
##MINX=649.893372
##MAXY=0.284522
##MINY=-0.000729
##XFACTOR=1.000000
##YFACTOR=1.000000E-009
##NPOINTS=6950
##DELTAX=0.482117
##ZPD=6100
##XYDATA=(X++(Y..Y))
649.893 112894192 112106360 111408456 110849248 110447792 110199656 
652.786 110087944 110096016 110215712 110448000 110793304 111241784 
655.679 111770120 112348640 112952808 113578776 114245344 114988024 
658.571 115843224 116827712 117934744 119139328 120415672 121755032 
661.464 123174336 124705752 126379144 128197984 130130512 132113320 
664.357 134075896 135959904 137717536 139314752 140709840 141839488 
667.250 142628944 143026784 143050288 142781056 142321264 141732208 
670.142 141017520 140140288 139056224 137745280 136229520 134576176 
673.035 132872464 131206360 129633624 128167496 126793560 125489160 
675.928 124243256 123062464 121965024 120965592 120063072 119238208 
678.820 118460120 117698056 116934480 116166256 115399832 114641608 
681.713 113889064 113129816 112349800 111539864 110704112 109859776 
684.606 109030440 108234440 107478904 106757544 106057016 105366360 
687.498 104682400 104011600 103365464 102752984 102174448 101620992 
690.391 101078216 100533256 99980648 99422608 98866088 98319208 97787544 
693.766 97274392 96786440 96337088 95947216 95645264 95457408 95399288 
697.141 95472808 95664472 95952504 96313176 96729640 97194608 97709112 
700.516 98276448 98896088 99560232 100254480 100961048 101663952 102354032 
703.890 103026896 103682040 104317824 104930064 105512672 106060992 
706.783 106575232 107061808 107531320 107994656 108459472 108929808 
709.676 109409992 109909656 110448560 111057576 111771240 112616648 
712.569 113602968 114711816 115897088 117088648 118212576 119201360 
715.461 120007248 120611936 121023472 121274328 121412080 121500040 
718.354 121611560 121819288 122196496 122800768 123658728 124756496 
721.247 126028928 127364952 128606216 129582944 130140616 130160688 
724.139 129599016 128492696 126962944 125182096 123347728 121645192 
727.032 120200224 119077552 118277392 117756376 117448432 117288496 
729.925 117230768 117244872 117314360 117428072 117572472 117731560 
732.817 117892408 118048176 118201216 118361632 118540080 118740632 
735.710 118958760 119180952 119392848 119585688 119760968 119929720 
738.603 120108032 120310096 120541696 120800064 121075352 121356432 
741.496 121634048 121902064 122157288 122396944 122618056 122818440 
744.388 123000048 123169936 123338840 123518640 123715248 123925840 
747.281 124138648 124338232 124512000 124655776 124775128 124881664 
750.174 124986408 125093160 125196816 125286120 125352056 125392200 
753.066 125415248 125435952 125470264 125527592 125606744 125699280 
755.959 125794216 125885904 125975968 126072552 126184640 126316608 
758.852 126465680 126621976 126774520 126915496 127044264 127164096 
761.744 127278952 127389256 127489848 127574432 127641096 127699744 
764.637 127773376 127899272 128121752 128479880 129003136 129700168 
767.530 130552960 131509184 132484464 133370864 134040344 134380816 
770.423 134321488 133856800 133060424 132075456 131088360 130264400 
773.315 129713696 129454536 129413560 129444944 129374816 129063664 
776.208 128425000 127447184 126173960 124676968 123019704 121235784 
779.101 119326680 117270000 115040096 112620040 110014688 107250128 
781.993 104372000 101435176 98499704 95628336 92875200 90286752 87897376 
785.368 85724256 83771056 82029512 80484680 79119728 77920136 76876464 
788.743 75984056 75242704 74653808 74220560 73946384 73834360 73888680 
792.118 74113736 74513904 75093912 75855720 76797720 77911424 79180952 
795.493 80580160 82071944 83613328 85156656 86657072 88085080 89433880 
798.867 90730048 92030784 93424088 95009584 96869136 99045936 101509848 
802.242 104145672 106733944 108983416 110581936 111228512 110727800 
805.135 109031632 106262432 102684440 98648056 94522936 90586824 86998168 
808.510 83775888 80827864 78001496 75145944 72172432 69067928 65896720 
811.885 62763272 59787808 57066884 54654664 52568120 50790928 49290176 
815.259 48025724 46960632 46064128 45308500 44671024 44132808 43677576 
818.634 43294860 42977988 42723172 42527916 42389260 42303744 42268064 
822.009 42279860 42338592 42445556 42603092 42813668 43079476 43402680 
825.384 43785016 44227080 44726776 45276612 45863128 46465700 47061244 
828.759 47630172 48162228 48663104 49158064 49691924 50321004 51110568 
832.133 52126268 53417760 55012216 56895176 59002784 61205464 63310756 
835.508 65095848 66313900 66754864 66295452 64919508 62734864 59940996 
838.883 56807140 53600016 50543060 47804948 45472372 43566608 42060528 
842.258 40901300 40026828 39376488 38902036 38562936 38326940 38170844 
845.633 38077260 38034796 38037220 38079828 38157784 38264156 38390176 
849.008 38527344 38670132 38817720 38974052 39145632 39339444 39559948 
852.382 39808268 40083440 40384128 40710320 41064392 41450836 41874656 
855.757 42341076 42854732 43421100 44047868 44744772 45525136 46404456 
859.132 47399252 48528584 49814576 51281268 52956252 54863276 57013420 
862.507 59392536 61951188 64599700 67201680 69600752 71636368 73164824 
865.882 74097928 74411960 74159088 73454272 72466984 71396232 70427672 
869.256 69730984 69434976 69615768 70308448 71506032 73170312 75231192 
872.631 77591248 80130648 82692152 85098048 87162880 88697608 89553624 
876.006 89640536 88941112 87515520 85489760 83038896 80343208 77578608 
879.381 74892280 72379760 70092872 68039040 66193872 64516156 62963820 
882.756 61508964 60142228 58874320 57728772 56735016 55916892 55286164 
886.131 54842292 54573432 54462612 54492436 54650268 54928428 55323424 
889.505 55833420 56456488 57190088 58032844 58986728 60059348 61263532 
892.880 62617160 64140448 65851368 67765056 69888192 72214688 74717008 
896.255 77339008 79992320 82543672 84831224 86682680 87926056 88436392 
899.630 88150704 87081768 85314952 82995368 80310672 77448736 74592080 
903.005 71897512 69474760 67397984 65703788 64397664 63465776 62882432 
906.379 62619992 62650652 62952296 63509448 64312124 65355516 66639000 
909.754 68164576 69935056 71951200 74207160 76685904 79352880 82150080 
913.129 85003504 87823016 90514384 93002216 95235584 97202888 98932368 
916.504 100490448 101969152 103463720 105062520 106819752 108738792 
919.397 110758624 112752840 114547048 115925864 116689760 116694216 
922.289 115884328 114327336 112214032 109854736 107609800 105864512 
925.182 104973816 105181376 106603904 109189328 112729904 116858576 
928.075 121098216 124962816 127974856 129769776 130148616 129068840 
930.967 126634840 123041128 118540336 113386872 107814672 102049368 96286256 
934.342 90699952 85452728 80671992 76456440 72873672 69954320 67703792 
937.717 66108020 65142312 64772600 64952716 65621852 66688016 68025744 
941.092 69488672 70904080 72104320 72955192 73361408 73290520 72770384 
944.467 71883480 70745296 69482224 68220176 67056352 66057520 65259740 
947.841 64669408 64273744 64047896 63964352 63995296 64114564 64299524 
951.216 64528272 64780636 65040768 65297052 65545052 65787212 66031284 
954.591 66287300 66563828 66866928 67198624 67558568 67945424 68358176 
957.966 68796488 69260216 69748296 70258352 70787456 71332968 71894112 
961.341 72472144 73069496 73688832 74331192 74995760 75680528 76383192 
964.716 77103496 77843160 78604608 79389992 80199344 81030584 81880744 
968.090 82747952 83633048 84540128 85475800 86445760 87453472 88499232 
971.465 89580504 90694808 91841536 93022864 94243840 95510000 96825200 
974.840 98191712 99610112 101080808 102606296 104191280 105841216 107562216 
978.215 109359136 111236296 113200288 115262504 117440232 119757216 
981.108 122238904 124908168 127781328 130864160 134151008 137622752 
984.000 141247824 144974000 148721120 152384976 155824208 158872224 
986.893 161365952 163150080 164112512 164203792 163441216 161911120 
989.786 159751456 157151712 154319152 151458032 148766800 146402208 
992.678 144476016 143056496 142164752 141788864 141894560 142441280 
995.571 143388544 144700416 146348976 148307152 150547392 153041936 
998.464 155760032 158670688 161743504 164941072 168214736 171500640 
1001.356 174709792 177738208 180479664 182832432 184724768 186122848 
1004.249 187035872 187514288 187643808 187543104 187341744 187178976 
1007.142 187190736 187486720 188151088 189232192 190743376 192670768 
1010.035 194983040 197645920 200624032 203885456 207400816 211134352 
1012.927 215044832 219088640 223219488 227396368 231581616 235727936 
1015.820 239769296 243606464 247093440 250060768 252328016 253734912 
1018.713 254187136 253671968 252277696 250175776 247621216 244922000 
1021.605 242382576 240307648 238949920 238478048 238984224 240469104 
1024.498 242859904 246021552 249788000 253987664 258438640 262973216 
1027.391 267430400 271641792 275451104 278712832 281305248 283152096 
1030.284 284221216 284522016 284090464 282977312 281238304 278925984 
1033.177 276096416 272806400 269107488 265043312 260640384 255908576 
1036.070 250848208 245464688 239782240 233854784 227763088 221605472 
1038.963 215492752 209525920 203794128 198373920 193318080 188657744 
1041.856 184393264 180488800 176868000 173416384 170007296 166510256 
1044.750 162824656 158903472 154758944 150464944 146134608 141913072 
1047.643 137946480 134359328 131256744 128705712 126737136 125351560 
1050.536 124522776 124206568 124344720 124878440 125749248 126900808 
1053.429 128283680 129845632 131524264 133248944 134929136 136458688 
1056.322 137732800 138646080 139111184 139072480 138506480 137431296 
1059.215 135903440 134023784 131924984 129757792 127691688 125884176 
1062.108 124471048 123564880 123238272 123528592 124438128 125937704 
1065.001 127966808 130432632 133222192 136194112 139187632 142047888 
1067.894 144622384 146783696 148444064 149548256 150076960 150036320 
1070.787 149452704 148364192 146815440 144858624 142547504 139935696 
1073.680 137082560 134049400 130906032 127739352 124644296 121728016 
1076.573 119105064 116876448 115131176 113935616 113323936 113299160 
1079.466 113827656 114843400 116239000 117871192 119578216 121173064 
1082.359 122477376 123350632 123700184 123511024 122844376 121836128 
1085.252 120666840 119536240 118651232 118182736 118261904 118971392 
1088.146 120334624 122319128 124835328 127754344 130905272 134093296 
1091.039 137133952 139850192 142098432 143781872 144840272 145253056 
1093.932 145030432 144208480 142841856 140996176 138750912 136187680 
1096.825 133388560 130440832 127426088 124421400 121497584 118704264 
1099.718 116067600 113582264 111213608 108902384 106577056 104177760 
1102.611 101665632 99039032 96334736 93626328 91011632 88591624 86468440 
1105.986 84725496 83421008 82591792 82250016 82389344 82987392 84011384 
1109.361 85420096 87161752 89179720 91408840 93770840 96182128 98545768 
1112.737 100753456 102701272 104288288 105431784 106080960 106216256 
1115.630 105852128 105028880 103808976 102265632 100471784 98501288 96418208 
1119.005 94272616 92103936 89936984 87785904 85659792 83566376 81517048 
1122.380 79529872 77627896 75838080 74189352 72705392 71406472 70307200 
1125.755 69416672 68741744 68288648 68063608 68072992 68321376 68808552 
1129.131 69526592 70457056 71571072 72825248 74164632 75525856 76835048 
1132.506 78021216 79022976 79796288 80327184 80633816 80767480 80798928 
1135.881 80812144 80889648 81093240 81460408 81995336 82669632 83423856 
1139.256 84174808 84832552 85299592 85490728 85342248 84811320 83882016 
1142.632 82560376 80870968 78850744 76545040 74008888 71300136 68480008 
1146.007 65613144 62757796 59968728 57293700 54768204 52419076 50263192 
1149.382 48308520 46556424 45003388 43643024 42466712 41463848 40623608 
1152.757 39934444 39385772 38969704 38680748 38516156 38474988 38556924 
1156.133 38761052 39085956 39530768 40095756 40783504 41598492 42545784 
1159.508 43629396 44850860 46207536 47692476 49293960 50995972 52775016 
1162.883 54599244 56430224 58218568 59909504 61448540 62780000 63856176 
1166.258 64639568 65103240 65234436 65034844 64520732 63720360 62671088 
1169.634 61418040 60005056 58476468 56873948 55233108 53587384 51966696 
1173.009 50396612 48901000 47500632 46211076 45044588 44009108 43107944 
1176.384 42342244 41711880 41216764 40857436 40634816 40550012 40603488 
1179.759 40795592 41127004 41599808 42217304 42984280 43906452 44988064 
1183.135 46231900 47638048 49202852 50916908 52761432 54707432 56708056 
1186.510 58700152 60609988 62350940 63838676 65001740 65783700 66155092 
1189.885 66114308 65688336 64926708 63895940 62675720 61343504 59973752 
1193.260 58634580 57379004 56250436 55280936 54489920 53887672 53474644 
1196.635 53243332 53176776 53249284 53428028 53670048 53924960 54140836 
1200.011 54260692 54231976 54011364 53566468 52883532 51969052 50850824 
1203.386 49572796 48190920 46768076 45361168 44020292 42784268 41676280 
1206.761 40708500 39882576 39194184 38634860 38194252 37861740 37625040 
1210.136 37472120 37391760 37374316 37413860 37508240 37658824 37869152 
1213.512 38142772 38482124 38887252 39355296 39880684 40455444 41068656 
1216.887 41706224 42352656 42990760 43603864 44178652 44705068 45177332 
1220.262 45593140 45952952 46259208 46516152 46731548 46916740 47086836 
1223.637 47261432 47461044 47704680 48008332 48381332 48826024 49337392 
1227.013 49904588 50511828 51139232 51766796 52374328 52944872 53467524 
1230.388 53938092 54360344 54744524 55107712 55471772 55861644 56307768 
1233.763 56844792 57508612 58339940 59377836 60656584 62205348 64043940 
1237.138 66182332 68621824 71355272 74367560 77632888 81117008 84773704 
1240.514 88544536 92368472 96179696 99912496 103508792 106911240 110065280 
1243.889 112921824 115432680 117555176 119255472 120504568 121280808 
1246.782 121569432 121361992 120660184 119477520 117841768 115789928 
1249.675 113363984 110605792 107549392 104223336 100655104 96875592 92927312 
1253.050 88869464 84770520 80712176 76780440 73051312 69594136 66460332 
1256.426 63678080 61254792 59175364 57406836 55899440 54593720 53426680 
1259.801 52331492 51248872 50131416 48944948 47674544 46322316 44905752 
1263.176 43451088 41990152 40555400 39173516 37866512 36650120 35533204 
1266.551 34519840 33609240 32796662 32074240 31432800 30863984 30361464 
1269.927 29921962 29545250 29232228 28983360 28798292 28674992 28611320 
1273.302 28605374 28656832 28765508 28930624 29148168 29410460 29704984 
1276.677 30014406 30319394 30597468 30824818 30980150 31043778 31002852 
1280.052 30853346 30601202 30262480 29858568 29414788 28953360 28490902 
1283.427 28038338 27601354 27183752 26791010 26431688 26116818 25859356 
1286.803 25670586 25558854 25529896 25587146 25734146 25974930 26314162 
1290.178 26755736 27300386 27944862 28679628 29488400 30349630 31232548 
1293.553 32100212 32911736 33622168 34192780 34596440 34822552 34880896 
1296.928 34800116 34624356 34401648 34180268 34003112 33900932 33895200 
1300.304 33996772 34205648 34510372 34886676 35300536 35706560 36055752 
1303.679 36304672 36416860 36371100 36162548 35801432 35309884 34716840 
1307.054 34057692 33367730 32680150 32026510 31430412 30908170 30468112 
1310.429 30110956 29833262 29630378 29499890 29441876 29458756 29552590 
1313.805 29723790 29970062 30287598 30673026 31124750 31643692 32231126 
1317.180 32887076 33608096 34386512 35211740 36072672 36958476 37860148 
1320.555 38768012 39669496 40547760 41379396 42134564 42782764 43294272 
1323.930 43646908 43832000 43858284 43755072 43567192 43356256 43189188 
1327.306 43125692 43214880 43482436 43928556 44529512 45245908 46032700 
1330.681 46846828 47657648 48448488 49215024 49962428 50700768 51441896 
1334.056 52196436 52973248 53777592 54610104 55464692 56327724 57179956 
1337.431 57996340 58749768 59415748 59972268 60402716 60697012 60851320 
1340.807 60867900 60754896 60526300 60200304 59798456 59345580 58865252 
1344.182 58378860 57903876 57450440 57023544 56623152 56245796 55885196 
1347.557 55531524 55171404 54786624 54356440 53862428 53292364 52646288 
1350.932 51939324 51203384 50483284 49829960 49300048 48944204 48802888 
1354.308 48903264 49251356 49829588 50593020 51477072 52400908 53275996 
1357.683 54024836 54582488 54905456 54976488 54801996 54413296 53859576 
1361.058 53211904 52555852 51979208 51569032 51389532 51468008 51791056 
1364.433 52306192 52935292 53580488 54145188 54539992 54687776 54540448 
1367.809 54083300 53340764 52369548 51251440 50078128 48928184 47866172 
1371.184 46935124 46156312 45540184 45091052 44814340 44717372 44805376 
1374.559 45075980 45512440 46085680 46760804 47502516 48285564 49096548 
1377.934 49933100 50802548 51718528 52700900 53772788 54961596 56294036 
1381.310 57785580 59428248 61175176 62941148 64596088 65982296 66946900 
1384.685 67344776 67073712 66095784 64460768 62316020 59881812 57424380 
1388.060 55172948 53276932 51798412 50720208 49980012 49495104 49186412 
1391.435 48982888 48821204 48651132 48429524 48124844 47722508 47227740 
1394.811 46663880 46061696 45450004 44845092 44249824 43661164 43079148 
1398.186 42515088 41995736 41556924 41232288 41044580 40998260 41083188 
1401.561 41281112 41574424 41950116 42400364 42923048 43518184 44184780 
1404.936 44919272 45713720 46557380 47438908 48348148 49278076 50225512 
1408.312 51188960 52167924 53161236 54165796 55177988 56194392 57212236 
1411.687 58228608 59237868 60228088 61181088 62074256 62884576 63598356 
1415.062 64214544 64747752 65224080 65677584 66145672 66661900 67255680 
1418.437 67946272 68734800 69602384 70509312 71405808 72239536 72967344 
1421.813 73563064 74018128 74348848 74594512 74815360 75073192 75414256 
1425.188 75856664 76387376 76973328 77575760 78166056 78729264 79265376 
1428.563 79785504 80307600 80853808 81447576 82117456 82893784 83801960 
1431.938 84858288 86062040 87397072 88835072 90348792 91923248 93557112 
1435.313 95266368 97074144 98998704 101034344 103152760 105313232 107473208 
1438.689 109594184 111634672 113547488 115265832 116704752 117779056 
1441.582 118402880 118507296 118050872 117018152 115426192 113322736 
1444.475 110792664 107947280 104908040 101809200 98774648 95914568 93328616 
1447.850 91088704 89231184 87748640 86597240 85713192 85035376 84529416 
1451.225 84192544 84049456 84131208 84455072 85003056 85722520 86522832 
1454.601 87290432 87909992 88272864 88321992 88085400 87697144 87344632 
1457.976 87188192 87322760 87768392 88508008 89515024 90762512 92220368 
1461.351 93842800 95568792 97306144 98929792 100304280 101292408 101800104 
1464.726 101811256 101398056 100693792 99835936 98939944 98076280 97276136 
1468.102 96548752 95885600 95260264 94620328 93883512 92940648 91668944 
1471.477 89978968 87859120 85406984 82801512 80237936 77858096 75721624 
1474.852 73831920 72174544 70746120 69564072 68653376 68022840 67652216 
1478.227 67489512 67468304 67520160 67594608 67668096 67740856 67832144 
1481.603 67968824 68179544 68489784 68925704 69520984 70315648 71354448 
1484.978 72677192 74303040 76216312 78350792 80596760 82790568 84726904 
1488.353 86189704 86955984 86844800 85768088 83757880 80975288 77657688 
1491.728 74064528 70401528 66791332 63295960 59926620 56680836 53577900 
1495.104 50667108 48031276 45769972 43962760 42645784 41803836 41391204 
1498.479 41350604 41630404 42192036 43000672 44019996 45210532 46524188 
1501.854 47908864 49315116 50682112 51940332 53003904 53748524 54018344 
1505.229 53641708 52483984 50538852 47987016 45155240 42357732 39782380 
1508.604 37472372 35386300 33465098 31670210 29990974 28443318 27052164 
1511.980 25833614 24790054 23907626 23164596 22538268 22010358 21568044 
1515.355 21199966 20896516 20650086 20456864 20318338 20238800 20219360 
1518.730 20253694 20326324 20414526 20499344 20574516 20656062 20775926 
1522.105 20967550 21245476 21599628 22003212 22427094 22853136 23278896 
1525.481 23718128 24193816 24727686 25328978 25991884 26700872 27439708 
1528.856 28198720 28976276 29777334 30608954 31476508 32383818 33333882 
1532.231 34330996 35380908 36487524 37647592 38844384 40052084 41240520 
1535.606 42384216 43459292 44445308 45326964 46087632 46714832 47200812 
1538.982 47546468 47759232 47849968 47835060 47731528 47557264 47327492 
1542.357 47049648 46720732 46328252 45859332 45310300 44696252 44049444 
1545.732 43409748 42808140 42252508 41729824 41212904 40677312 40114404 
1549.107 39541004 38993840 38518076 38143928 37876960 37699592 37585156 
1552.483 37511780 37471540 37472732 37531684 37660236 37854652 38092524 
1555.858 38336064 38542984 38669156 38677236 38549684 38308848 38030676 
1559.233 37817964 37755464 37864596 38114048 38453124 38836488 39233536 
1562.608 39624628 40003976 40376168 40754352 41155200 41592548 42070456 
1565.984 42581088 43107140 43626684 44122460 44583924 45012208 45418328 
1569.359 45820192 46234364 46667604 47116380 47569352 48013064 48433524 
1572.734 48817644 49152828 49421884 49606004 49689248 49666660 49554448 
1576.109 49391144 49226228 49094100 49000768 48922920 48823244 48661548 
1579.485 48405888 48040600 47566284 46997664 46354644 45657068 44916884 
1582.860 44138856 43325792 42483484 41622416 40757228 39900300 39056808 
1586.235 38225148 37400500 36581088 35773800 34993900 34260968 33592596 
1589.610 32998170 32478504 32028544 31643014 31318400 31052460 30839438 
1592.986 30665416 30506358 30334034 30120368 29847850 29514360 29132436 
1596.361 28723202 28307314 27900764 27512176 27145482 26805990 26502542 
1599.736 26246928 26050986 25921044 25856402 25850282 25894454 25982950 
1603.111 26113018 26283394 26487926 26711370 26930064 27112224 27225978 
1606.487 27247428 27163612 26975016 26692166 26331412 25908978 25439068 
1609.862 24936644 24419130 23907906 23427424 22997084 22626640 22312286 
1613.237 22039256 21785974 21531378 21261308 20972142 20672880 20383514 
1616.612 20128908 19930608 19800228 19738398 19737324 19784344 19862482 
1619.988 19952672 20036356 20097256 20128456 20136022 20141054 20171562 
1623.363 20251782 20392266 20585460 20812214 21051884 21291582 21527654 
1626.738 21764376 22007394 22259060 22515060 22767718 23009274 23237194 
1630.113 23454808 23668054 23880530 24089502 24283998 24446962 24560406 
1633.489 24608972 24586740 24500526 24372832 24234490 24115560 24033922 
1636.864 23991516 23978000 23978072 23977614 23963156 23923312 23850670 
1640.239 23742834 23605112 23448828 23288440 23135066 22991842 22851354 
1643.614 22697296 22509336 22268652 21966964 21612860 21235004 20874406 
1646.990 20572398 20356602 20232864 20189160 20202872 20249944 20303896 
1650.365 20334448 20306916 20179408 19916316 19513106 19028978 18579626 
1653.740 18270570 18139616 18150880 18240436 18348194 18435752 18486332 
1657.115 18497880 18478970 18440766 18391332 18331916 18256228 18155232 
1660.490 18021344 17852898 17656396 17444702 17234454 17040780 16873544 
1663.866 16735779 16625082 16535580 16458245 16381819 16292987 16176522 
1667.241 16018625 15811507 15558019 15273619 14983951 14717578 14494395 
1670.616 14320740 14189293 14084822 13989513 13886082 13760376 13601474 
1673.991 13404492 13173410 12925315 12686708 12482979 12328977 12222532 
1677.367 12148381 12084463 12010505 11914867 11796267 11663949 11531672 
1680.742 11409604 11296515 11178085 11028553 10822272 10546557 10218738 
1684.117 9887539 9614516 9438703 9358220 9341360 9348300 9348808 9324332 
1687.975 9269662 9188670 9090166 8983362 8875671 8772708 8678894 8597674 
1691.832 8530356 8473996 8419636 8351299 8250553 8102229 7904215 7675029 
1695.689 7452738 7277393 7168474 7116737 7090196 7050019 6961021 6804251 
1699.547 6588124 6353108 6155857 6035863 5996790 6011438 6044464 6065161 
1703.404 6056526 6013151 5939213 5846346 5748529 5659160 5585987 5531350 
1707.262 5493363 5468331 5451789 5439677 5428303 5415386 5399887 5382039 
1711.119 5362817 5342589 5320250 5293048 5257429 5210747 5152536 5084544 
1714.977 5010227 4932974 4854260 4775024 4697511 4627849 4576111 4553376 
1718.834 4565563 4610301 4677516 4752747 4821626 4873158 4903182 4914174 
1722.691 4914308 4913972 4922082 4942424 4973459 5010361 5047668 5081895 
1726.549 5111397 5135739 5154045 5164305 5164305 5153039 5131849 5103687 
1730.406 5071436 5034327 4985759 4914140 4805912 4653100 4463214 4264110 
1734.264 4094997 3989348 3956210 3979784 4031049 4081585 4111855 4111888 
1738.121 4082120 4031116 3972996 3920334 3881016 3856111 3842572 3836421 
1741.979 3835920 3841302 3853670 3872458 3895058 3917157 3934477 3944173 
1745.836 3945945 3940963 3930865 3916221 3896161 3869115 3833613 3790059 
1749.693 3740928 3690766 3644787 3607500 3581574 3567643 3563901 3566641 
1753.551 3571485 3572487 3563333 3539448 3499297 3446391 3389651 3340833 
1757.408 3309614 3299331 3305641 3317494 3322869 3310850 3276795 3223683 
1761.266 3161165 3102160 3057445 3032219 3024812 3029416 3038626 3046500 
1765.123 3049103 3043397 3028082 3002925 2969662 2931999 2895473 2865087 
1768.980 2842874 2826232 2808557 2781778 2739696 2682849 2619842 2566477 
1772.838 2537347 2539513 2569510 2616042 2665946 2708921 2740930 2763304 
1776.695 2780577 2796618 2812425 2825398 2831234 2826832 2813225 2795617 
1780.553 2781645 2777210 2783012 2794217 2802954 2801820 2787981 2764405 
1784.410 2738563 2719557 2713589 2721691 2739763 2761604 2782245 2798218 
1788.268 2809090 2814359 2812525 2800386 2773942 2731427 2675314 2614475 
1792.125 2561277 2527115 2517250 2528715 2553345 2580809 2604142 2620209 
1795.982 2629743 2634843 2637043 2635776 2628642 2613142 2588742 2558011 
1799.840 2526382 2500154 2484392 2480459 2486858 2500621 2519050 2540747 
1803.697 2565910 2594375 2624876 2654478 2679382 2696185 2703786 2703353 
1807.555 2697718 2689950 2681649 2673447 2664413 2654145 2643977 2637010 
1811.412 2636410 2643810 2658479 2676248 2692484 2703186 2707254 2706820 
1815.270 2705787 2708321 2716456 2729360 2744264 2758802 2772041 2785713 
1819.127 2803454 2828600 2862418 2902978 2945342 2983874 3013368 3030718 
1822.984 3035289 3028482 3013801 2995551 2979237 2969729 2970830 2983741 
1826.842 3006094 3032786 3056410 3069891 3069758 3057745 3041395 3030818 
1830.699 3035189 3058112 3096154 3141240 3184896 3221046 3248586 3270519 
1834.557 3292453 3319564 3354255 3395629 3440914 3487773 3536174 3588823 
1838.414 3649298 3720207 3800955 3887669 3973866 4053323 4121522 4177019 
1842.271 4221515 4259191 4296702 4340675 4397505 4471349 4563420 4670817 
1846.129 4786649 4902445 5007612 5092456 5150961 5180937 5184826 5167792 
1849.986 5135437 5091349 5036573 4969906 4890918 4801323 4705650 4609999 
1853.844 4519559 4436133 4357978 4280941 4201107 4117374 4032421 3951429 
1857.701 3879211 3817735 3764456 3714426 3662463 3605795 3545728 3486671 
1861.559 3433733 3389718 3353955 3323069 3292754 3261038 3228323 3197179 
1865.416 3170210 3147615 3126489 3101827 3070425 3032619 2994250 2964958 
1869.273 2953449 2964124 2993916 3035289 3078534 3117144 3148182 3172914 
1873.131 3194009 3213402 3231127 3244513 3250823 3248553 3238872 3224952 
1876.988 3210431 3196746 3182894 3166272 3144110 3115910 3083573 3051272 
1880.846 3022543 2998587 2977502 2955150 2928529 2897341 2865520 2838838 
1884.703 2822597 2818528 2823230 2829434 2828900 2816293 2790882 2757202 
1888.561 2722124 2693684 2676614 2672147 2678581 2693117 2712855 2735261 
1892.418 2758436 2779644 2795817 2804788 2806956 2805422 2805722 2813225 
1896.275 2830401 2855881 2883531 2905846 2917888 2918656 2912084 2904846 
1900.133 2903245 2909883 2923426 2938570 2950113 2955684 2956184 2955550 
1903.990 2957752 2964925 2975233 2984842 2989546 2987511 2980004 2970963 
1907.848 2963690 2960221 2959887 2959687 2957252 2951747 2945075 2940572 
1911.705 2940805 2946110 2954349 2962156 2966826 2967260 2964291 2959053 
1915.563 2951414 2938737 2917588 2884966 2842240 2795517 2754401 2727126 
1919.420 2717590 2722891 2734861 2744198 2744131 2733794 2718390 2705754 
1923.277 2702353 2710021 2724692 2739830 2749233 2751100 2748299 2746298 
1927.135 2749766 2759536 2772374 2782512 2785313 2779877 2769873 2760670 
1930.992 2757502 2761103 2768539 2774408 2774509 2767873 2757602 2747532 
1934.850 2740230 2735095 2728093 2714756 2694018 2669947 2650244 2643944 
1938.707 2654378 2678915 2708054 2729993 2735628 2723558 2700119 2677115 
1942.564 2665446 2671147 2691751 2721258 2751500 2777943 2800853 2822063 
1946.422 2842774 2861351 2872558 2870790 2855414 2830634 2805855 2791882 
1950.279 2794984 2813992 2839906 2860184 2865887 2854380 2831101 2805855 
1954.137 2787814 2780544 2780511 2780077 2771541 2752267 2725992 2700386 
1957.994 2681915 2672947 2670413 2667013 2657112 2640543 2621342 2607075 
1961.852 2602242 2605375 2610175 2607942 2594275 2571410 2547979 2535347 
1965.709 2541280 2564644 2596109 2621709 2630609 2619909 2596175 2570810 
1969.566 2555478 2555611 2569110 2588475 2606175 2618675 2627476 2636910 
1973.424 2650244 2667913 2686183 2703320 2721391 2748933 2798252 2880296 
1977.281 2995117 3130761 3264210 3371786 3434435 3446858 3414964 3353321 
1981.139 3277764 3199583 3124487 3054775 2990980 2935868 2894906 2872391 
1984.996 2869956 2883632 2906047 2928896 2947144 2961422 2975767 2994083 
1988.854 3017338 3039927 3054475 3052440 3031819 2998254 2963290 2940305 
1992.711 2936969 2953048 2980004 3007662 3026781 3034922 3036490 3038425 
1996.568 3046000 3059647 3073695 3080736 3075364 3057011 3030351 3003125 
2000.426 2982039 2968094 2958319 2946877 2929230 2906080 2881864 2863386 
2004.283 2856148 2861485 2876027 2894539 2913552 2932733 2956118 2987944 
2008.141 3029483 3076799 3122851 3158996 3180958 3189536 3190370 3191071 
2011.998 3196712 3207928 3222648 3236134 3245949 3252859 3259169 3266880 
2015.855 3274893 3278965 3272990 3252725 3219344 3180023 3145112 3123085 
2019.713 3118913 3129559 3149417 3171879 3193908 3217174 3245581 3281436 
2023.570 3322702 3361334 3388482 3396163 3383908 3357428 3327610 3305274 
2027.428 3294657 3294623 3299097 3301668 3300099 3299665 3306743 3329547 
2031.285 3371586 3429191 3495121 3562331 3626510 3688460 3751288 3817435 
2035.143 3884828 3948720 4002022 4040246 4064560 4080682 4097138 4119649 
2039.000 4148651 4179027 4202612 4212482 4206895 4190736 4171633 4156880 
2042.857 4150190 4150089 4152264 4152866 4152029 4153869 4165511 4194081 
2046.715 4241189 4304800 4376988 4449121 4513566 4563856 4596671 4609229 
2050.572 4600857 4572260 4528264 4476974 4429873 4399614 4394493 4415982 
2054.430 4457122 4505932 4548755 4576948 4589706 4592854 4597140 4610401 
2058.287 4635920 4670683 4707292 4738410 4760083 4772478 4780016 4787353 
2062.145 4796565 4807152 4815763 4820219 4819884 4817672 4817103 4821458 
2066.002 4829968 4839417 4844443 4840757 4827254 4806348 4782227 4758877 
2069.859 4737874 4718647 4698148 4675138 4649684 4624935 4605211 4593557 
2073.717 4591280 4597408 4609329 4625136 4644392 4667870 4695770 4726753 
2077.574 4757102 4781758 4796968 4802093 4799949 4796432 4797035 4804673 
2081.432 4818476 4834290 4846687 4853020 4853389 4851613 4852216 4857744 
2085.289 4867462 4877749 4883445 4881535 4872454 4859856 4848396 4841762 
2089.146 4839819 4839048 4834626 4821827 4799614 4769899 4737371 4706321 
2093.004 4680095 4659765 4645364 4637628 4638532 4650488 4675439 4712584 
2096.861 4757571 4803969 4844811 4876374 4898558 4914341 4927913 4941587 
2100.719 4955495 4966990 4973459 4974598 4973928 4977715 4992261 5021322 
2104.576 5064295 5116158 5169905 5219500 5262259 5299085 5333164 5367212 
2108.434 5401732 5435080 5465043 5490410 5513195 5536921 5565883 5602198 
2112.291 5643686 5684875 5718950 5740136 5746918 5741646 5729862 5717607 
2116.148 5708744 5704312 5702936 5702634 5701896 5701761 5703910 5710289 
2120.006 5721737 5737450 5755547 5774988 5795235 5817532 5842954 5871635 
2123.863 5902299 5932227 5958595 5979960 5996992 6012244 6027732 6045371 
2127.721 6063481 6079240 6089623 6092916 6090463 6086162 6084549 6088951 
2131.578 6101047 6119429 6141843 6167385 6195986 6229026 6267514 6310208 
2135.436 6353545 6392481 6423014 6443595 6456374 6466363 6476957 6490309 
2139.293 6503829 6512271 6510859 6497674 6474838 6447900 6424292 6408017 
2143.150 6399980 6397492 6396449 6393860 6389892 6385555 6381991 6377115 
2147.008 6365481 6340029 6294475 6228253 6147153 6060356 5978549 5908211 
2150.865 5849838 5796981 5740673 5673125 5590585 5493598 5386400 5273158 
2154.723 5157935 5044350 4939508 4855299 4807889 4815830 4890281 5030204 
2158.580 5217018 5420855 5609549 5757695 5855212 5905691 5921545 5916272 
2162.438 5899209 5874523 5841812 5800877 5754271 5706998 5664834 5631803 
2166.295 5607233 5586994 5565648 5539203 5506920 5470512 5432665 5394452 
2170.152 5353559 5306833 5250823 5186436 5118841 5057055 5011769 4989211 
2174.010 4990787 5012406 5045288 5079314 5107810 5124775 5127054 5113309 
2177.867 5082398 5034696 4974464 4908577 4847558 4802194 4780452 4784237 
2181.725 4809498 4845984 4882071 4908845 4921579 4919334 4905796 4884316 
2185.582 4858247 4830672 4804372 4782528 4769396 4768559 4780150 4801959 
2189.439 4828796 4854126 4873594 4886058 4892794 4897452 4902277 4907170 
2193.297 4910822 4910755 4906466 4901205 4899764 4907505 4927746 4958846 
2197.154 4995714 5031713 5061547 5083739 5100703 5117332 5136644 5159443 
2201.012 5182613 5201291 5211720 5212525 5206623 5198071 5190594 5185598 
2204.869 5181540 5175572 5165579 5152469 5139795 5132788 5135067 5147373 
2208.727 5166619 5187609 5206220 5220372 5231371 5242271 5255719 5272153 
2212.584 5289157 5303713 5312938 5316459 5317029 5317600 5320753 5325952 
2216.441 5330279 5329709 5321692 5306766 5288620 5273326 5265311 5265713 
2220.299 5272588 5280571 5284528 5281174 5270542 5254947 5237810 5221344 
2224.156 5206220 5192774 5179797 5167524 5157364 5150089 5146501 5145193 
2228.014 5144053 5141539 5137515 5134632 5136811 5147943 5169201 5198407 
2231.871 5230700 5259643 5280370 5291739 5295899 5296704 5298313 5302909 
2235.729 5310053 5318640 5327059 5335512 5346011 5361005 5382039 5408744 
2239.586 5438972 5469069 5496383 5519739 5539740 5558131 5576220 5594445 
2243.443 5612637 5629856 5646975 5665841 5689105 5718782 5754371 5793657 
2247.301 5831267 5862533 5884128 5895783 5899075 5897362 5893499 5888730 
2251.158 5883222 5876672 5869687 5864246 5862903 5867671 5877848 5890241 
2255.016 5899646 5900888 5891349 5871131 5843760 5814107 5786169 5761658 
2258.873 5740807 5722207 5705017 5689843 5677892 5670842 5668862 5670272 
2262.730 5672017 5671480 5667721 5662517 5659697 5663323 5675106 5694476 
2266.588 5717037 5737819 5753095 5761355 5764310 5765385 5767299 5771328 
2270.445 5776499 5779957 5779151 5773174 5762665 5750040 5737920 5728485 
2274.303 5722408 5719622 5720058 5723751 5731742 5744836 5762732 5784456 
2278.160 5807055 5827943 5845003 5858033 5868142 5877277 5887319 5899041 
2282.018 5912409 5926684 5941128 5955606 5970487 5985469 6000486 6014025 
2285.875 6024407 6030622 6032234 6030353 6027329 6024877 6024003 6024003 
2289.732 6022995 6019233 6011875 6001863 5991650 5984529 5983218 5989165 
2293.590 6002200 6020845 6043188 6067413 6092143 6116808 6140533 6162377 
2297.447 6181802 6198137 6211716 6222875 6233060 6242673 6252051 6260421 
2301.305 6266573 6269565 6269531 6267077 6264153 6261867 6261396 6262606 
2305.162 6265060 6268086 6271716 6276590 6283885 6294408 6307855 6322883 
2309.020 6337507 6349846 6358588 6364405 6368608 6373013 6379065 6386866 
2312.877 6395474 6403847 6411077 6417129 6423418 6431421 6442654 6458157 
2316.734 6477663 6499760 6523035 6545739 6566561 6584626 6599663 6611841 
2320.592 6621833 6630581 6638521 6645620 6650330 6649758 6640472 6619209 
2324.449 6584424 6537061 6481060 6421770 6365448 6317066 6278943 6251312 
2328.307 6231816 6217598 6206405 6197061 6189633 6185332 6184525 6187146 
2332.164 6192356 6199683 6208724 6220085 6234740 6253261 6275615 6300492 
2336.021 6326345 6351696 6376107 6399879 6423821 6448438 6472921 6495556 
2339.879 6514626 6529156 6539550 6547959 6557512 6570363 6587081 6606055 
2343.736 6624222 6639059 6649590 6657766 6667860 6685188 6714294 6757504 
2347.594 6814954 6884093 6961425 7042374 7122496 7197343 7262837 7316075 
2351.451 7355402 7381216 7395540 7402315 7405651 7408516 7412425 7417414 
2355.309 7422301 7426481 7430391 7435581 7444109 7457659 7475862 7496830 
2359.166 7517596 7535565 7548849 7557885 7563650 7567932 7572248 7576867 
2363.023 7581587 7586780 7593085 7601919 7614935 7633077 7655503 7680290 
2366.881 7704573 7725585 7742247 7754390 7763498 7771459 7779993 7789877 
2370.738 7801650 7815650 7832080 7851748 7875029 7901685 7930704 7960265 
2374.596 7988749 8014939 8039207 8062666 8087713 8116441 8149864 8188489 
2378.453 8231304 8277029 8324109 8371262 8417576 8462170 8504135 8543062 
2382.311 8578680 8611632 8642693 8673553 8705701 8739980 8776866 8815648 
2386.168 8855550 8895455 8934586 8972706 9009510 9044795 9077850 9107929 
2390.025 9134288 9156520 9174795 9189786 9202444 9213714 9224105 9234258 
2393.883 9244547 9255412 9267564 9281205 9296032 9311502 9326261 9339532 
2397.740 9351212 9362147 9374708 9391197 9413815 9443308 9479170 9519640 
2401.598 9562689 9606928 9651713 9697418 9744890 9794535 9846322 9900149 
2405.455 9955169 10012027 10071401 10134854 10203574 10278751 10360016 
2408.830 10446386 10536576 10629365 10723974 10820132 10917025 11013736 
2412.206 11108667 11199708 11285191 11364128 11436546 11502818 11563656 
2415.581 11619193 11669055 11712793 11750375 11782683 11811418 11838690 
2418.956 11865897 11893446 11920282 11944564 11964454 11979339 11989693 
2422.331 11997459 12005158 12014559 12027231 12043786 12064294 12089710 
2425.707 12121293 12160886 12210093 12269088 12337396 12412841 12493347 
2429.082 12577346 12664226 12754571 12849098 12948527 13052861 13161593 
2432.457 13274041 13390072 13510305 13635800 13767524 13905548 14048612 
2435.832 14194565 14340944 14486104 14629772 14773280 14918895 15069085 
2439.208 15225642 15389534 15560423 15737634 15919764 16105613 16293401 
2442.583 16481785 16668977 16853566 17034578 17211838 17386448 17559850 
2445.958 17733598 17909074 18086900 18267012 18449028 18632332 18816094 
2449.333 18999486 19180910 19358806 19531162 19696340 19854054 20004852 
2452.708 20150216 20292298 20433140 20573266 20712358 20849236 20982434 
2456.084 21110388 21232532 21348586 21458474 21561566 21656742 21741976 
2459.459 21815622 21875624 21920750 21950722 21965812 21966824 21955706 
2462.834 21934028 21904302 21869002 21830606 21791130 21752496 21716058 
2466.209 21683108 21655454 21635496 21626546 21631910 21654512 21696136 
2469.585 21757094 21836250 21932112 22043404 22169576 22310506 22466590 
2472.960 22637532 22821704 23016332 23217408 23420956 23623340 23821828 
2476.335 24014452 24200016 24377108 24544316 24699942 24842326 24970404 
2479.710 25083530 25181306 25263582 25329468 25378716 25410542 25424772 
2483.086 25421786 25403410 25371586 25328906 25277876 25220176 25157080 
2486.461 25089286 25016836 24940222 24859764 24775810 24688998 24599540 
2489.836 24507048 24411140 24310594 24203764 24088942 23964554 23829318 
2493.211 23682750 23525704 23358924 23184520 23003790 22817096 22624024 
2496.587 22422942 22211736 21988956 21754376 21508920 21255360 20997458 
2499.962 20738492 20481524 20228664 19980252 19736700 19497892 19263546 
2503.337 19034240 18810040 18591868 18380166 18175926 17979900 17792762 
2506.712 17615366 17448048 17290376 17141484 17000498 16866240 16738430 
2510.088 16617164 16502779 16396031 16296668 16204312 16118370 16037982 
2513.463 15963417 15895359 15835321 15784258 15743233 15712107 15689880 
2516.838 15675211 15667174 15664494 15666967 15674319 15686238 15702007 
2520.213 15721349 15743716 15769895 15800854 15838036 15882127 15932858 
2523.589 15988510 16046129 16102588 16155614 16203590 16246481 16284732 
2526.964 16318824 16348410 16372530 16389631 16398370 16398266 16389595 
2530.339 16373493 16351404 16324293 16292954 16257454 16217623 16173771 
2533.714 16126417 16076557 16025605 15975036 15925916 15879653 15836902 
2537.090 15798347 15763951 15733477 15705718 15679231 15653022 15626539 
2540.465 15599885 15574470 15551185 15531165 15514887 15501530 15489580 
2543.840 15477872 15465098 15450609 15434953 15417718 15399043 15378754 
2547.215 15355892 15330628 15303513 15276090 15250523 15228182 15210235 
2550.591 15196166 15185048 15175440 15166279 15157496 15149638 15143360 
2553.966 15139414 15137733 15137150 15136635 15135331 15132277 15127749 
2557.341 15121882 15114609 15105654 15094162 15079274 15060612 15038351 
2560.716 15012728 14984911 14955211 14924038 14891530 14857893 14823847 
2564.092 14790627 14759603 14731803 14707776 14686971 14668223 14650745 
2567.467 14634090 14618669 14605716 14596635 14592009 14591837 14594921 
2570.842 14600232 14606675 14614317 14623569 14635597 14650950 14669389 
2574.217 14689987 14711272 14731666 14750451 14767967 14785382 14804065 
2577.593 14825322 14849938 14877678 14907749 14938922 14969924 14999866 
2580.968 15028437 15055776 15082601 15110526 15140855 15175098 15213975 
2584.343 15257145 15303444 15351601 15399832 15447519 15494799 15542360 
2587.718 15591367 15642785 15696304 15751824 15807968 15864016 15919521 
2591.094 15975276 16031483 16088763 16147153 16205585 16262751 16317654 
2594.469 16369330 16417984 16464269 16509043 16552791 16596027 16638784 
2597.844 16681133 16723555 16766736 16811440 16858388 16907474 16958152 
2601.219 17009734 17061526 17113394 17165784 17219836 17276034 17335236 
2604.594 17397104 17461258 17527352 17595354 17665714 17739500 17817754 
2607.970 17900788 17988638 18080268 18174406 18269948 18366030 18461924 
2611.345 18557668 18652876 18747280 18840664 18932648 19023128 19112174 
2614.720 19199714 19285990 19370516 19453084 19533138 19610398 19684690 
2618.095 19756048 19824504 19890128 19952636 20012034 20068490 20122730 
2621.471 20175762 20228594 20282230 20336742 20391954 20446964 20501080 
2624.846 20554158 20606932 20660128 20714792 20771338 20828830 20886086 
2628.221 20941472 20993598 21042286 21088196 21132650 21177006 21222164 
2631.596 21268130 21314306 21359862 21404312 21447544 21490330 21533258 
2634.972 21576714 21620836 21664682 21707838 21749708 21789806 21828618 
2638.347 21867016 21905940 21946576 21989584 22035490 22084434 22136488 
2641.722 22190882 22246958 22303774 22360458 22416348 22471476 22526682 
2645.097 22582802 22641266 22702706 22767370 22834940 22904268 22974584 
2648.473 23045402 23116300 23187524 23259494 23332246 23406058 23480410 
2651.848 23555156 23630092 23705460 23781296 23857846 23935356 24013648 
2655.223 24092690 24172130 24252324 24333442 24416082 24500596 24586880 
2658.598 24674970 24764270 24853764 24942926 25031088 25117828 25203462 
2661.974 25287780 25370952 25453438 25535204 25616738 25697900 25779114 
2665.349 25860024 25940460 26019888 26098276 26175024 26250306 26324336 
2668.724 26397602 26470600 26543926 26617970 26692802 26768668 26845394 
2672.099 26922802 27000578 27078262 27155676 27232718 27309842 27387650 
2675.475 27467062 27548466 27632284 27718134 27805024 27891896 27977938 
2678.850 28062620 28146324 28230544 28316298 28405360 28498968 28597588 
2682.225 28701326 28809976 28923008 29039824 29160396 29284614 29412588 
2685.600 29544540 29681000 29822118 29968538 30120188 30277010 30438792 
2688.976 30604828 30774414 30947022 31122222 31299810 31479716 31662010 
2692.351 31847126 32035212 32226592 32421804 32621212 32825428 33034210 
2695.726 33247668 33465278 33686256 33910352 34137220 34366752 34599344 
2699.101 34835120 35074140 35316064 35560172 35805820 36052188 36298764 
2702.477 36545332 36791360 37036984 37281628 37524784 37765948 38004528 
2705.852 38239876 38471372 38698280 38919432 39134028 39340788 39539152 
2709.227 39728892 39910728 40085728 40255208 40420312 40581624 40739652 
2712.602 40893580 41042796 41186092 41322468 41451092 41571256 41682080 
2715.978 41783264 41874364 41955376 42026144 42086848 42137740 42179292 
2719.353 42212444 42238592 42259664 42277812 42295968 42316456 42341844 
2722.728 42373916 42414244 42463712 42523460 42594172 42676560 42771288 
2726.103 42878500 42997820 43128768 43270112 43420988 43580564 43747856 
2729.479 43922508 44103648 44290292 44481204 44675064 44870664 45066900 
2732.854 45262932 45458356 45652656 45845048 46034208 46218592 46396748 
2736.229 46567008 46728668 46881264 47024764 47160256 47288328 47410412 
2739.604 47527840 47642152 47755088 47868316 47983608 48102780 48226800 
2742.979 48357000 48494428 48639720 48793360 48955664 49126376 49304912 
2746.355 49489908 49679960 49872920 50066488 50258284 50445584 50625628 
2749.730 50796108 50954464 51098864 51228288 51341940 51439880 51522656 
2753.105 51590752 51644856 51685276 51711848 51724128 51721444 51702556 
2756.480 51666464 51611908 51538108 51444360 51330568 51197012 51043896 
2759.856 50871532 50679988 50469440 50239944 49991904 49726548 49445460 
2763.231 49151532 48847568 48537408 48224464 47912564 47605400 47306392 
2766.606 47019004 46746564 46491772 46256776 46043128 45851528 45682280 
2769.981 45535476 45410936 45308316 45227596 45167556 45126968 45103440 
2773.357 45094140 45095644 45104908 45119100 45136304 45154980 45173692 
2776.732 45191416 45206232 45215976 45217888 45209248 45187812 45151892 
2780.107 45100940 45035476 44957196 44868276 44771804 44670436 44567328 
2783.482 44464836 44364968 44269380 44178652 44093304 44013176 43937280 
2786.858 43864516 43792712 43719568 43642180 43557816 43464204 43359292 
2790.233 43242916 43115480 42978464 42834176 42685880 42536320 42388672 
2793.608 42245748 42109556 41982452 41866152 41762108 41671756 41596016 
2796.983 41535596 41491048 41462428 41450036 41453464 41472888 41508252 
2800.359 41559840 41627592 41711184 41810040 41922968 42047824 42182356 
2803.734 42324420 42471680 42622936 42777320 42934752 43095320 43258840 
2807.109 43424248 43589352 43751228 43906304 44050840 44182104 44298072 
2810.484 44397372 44479628 44544640 44592368 44622736 44635404 44630076 
2813.860 44607312 44568244 44514500 44448900 44374692 44294916 44213432 
2817.235 44133796 44059420 43994260 43942340 43907844 43895052 43907988 
2820.610 43949456 44021540 44124700 44257676 44418184 44602760 44807108 
2823.985 45026508 45256424 45492796 45731976 45970780 46206948 46438044 
2827.361 46662512 46878388 47083844 47277724 47458828 47627176 47783756 
2830.736 47930952 48071984 48210876 48351632 48498576 48654652 48823020 
2834.111 49005812 49205484 49424744 49666588 49934584 50232020 50562864 
2837.486 50930804 51340636 51797740 52309292 52885104 53536184 54276688 
2840.862 55122572 56090696 57200068 58471500 59925708 61586048 63475668 
2844.237 65614068 68015600 70682048 73597912 76720304 79976544 83265368 
2847.612 86447664 89367368 91862864 93775072 94981472 95405936 95030048 
2850.987 93894248 92092056 89757616 87034960 84075192 81018568 77977040 
2854.363 75044008 72287672 69750480 67457736 65417260 63623220 62059420 
2857.738 60702500 59526164 58501980 57604056 56809708 56098884 55455544 
2861.113 54866620 54321108 53810480 53328064 52869496 52432464 52016668 
2864.488 51623996 51257484 50921792 50622616 50365428 50156260 50000384 
2867.864 49901208 49860692 49878088 49949788 50069200 50226812 50411420 
2871.239 50609028 50805492 50987028 51140872 51258004 51333400 51366816 
2874.614 51362192 51327100 51271948 51206480 51140684 51082504 51037968 
2877.989 51011288 51005512 51022168 51062192 51125776 51212780 51322288 
2881.365 51453312 51604596 51774668 51961356 52162208 52373620 52591640 
2884.740 52812128 53031196 53245916 53455232 53659776 53861040 54062508 
2888.115 54268092 54481728 54707544 54949940 55213200 55502344 55823436 
2891.490 56183568 56591824 57058832 57596676 58219364 58941488 59776820 
2894.865 60737480 61830484 63055224 64399160 65837256 67328336 68814528 
2898.241 70230304 71502984 72562632 73356144 73850664 74041664 73951808 
2901.616 73629752 73141528 72556760 71947992 71379136 70899784 70551024 
2904.991 70361864 70352120 70537032 70927792 71533024 72361832 73423040 
2908.366 74727392 76287048 78114528 80220432 82609784 85277896 88204656 
2911.742 91349464 94653656 98032640 101380688 104584376 107517648 110061688 
2915.117 112120600 113623408 114539368 114877496 114684624 114033496 
2918.010 113008640 111701304 110190256 108538512 106793728 104983856 
2920.903 103123688 101218736 99270008 97278536 95249448 93193040 91126216 
2924.278 89071424 87052496 85094304 83218608 81441504 79773680 78219056 
2927.654 76776568 75440152 74200400 73046408 71965200 70944336 69972184 
2931.029 69037824 68132480 67249456 66383192 65529676 64685680 63848688 
2934.404 63016876 62189556 61366900 60550296 59741956 58944488 58160148 
2937.779 57391404 56640592 55910256 55204060 54526660 53883360 53280376 
2941.155 52723868 52218440 51767724 51372780 51031932 50740132 50490020 
2944.530 50270780 50069612 49873812 49671900 49455748 49222780 48976432 
2947.905 48726004 48484316 48266712 48087752 47958780 47887108 47875308 
2951.280 47921112 48018024 48156308 48323888 48506580 48689864 48859876 
2954.656 49003696 49111016 49174424 49189640 49155168 49071912 48943428 
2958.031 48774568 48571604 48342112 48093116 47831916 47564692 47295976 
2961.406 47029524 46768332 46514856 46271816 46041908 45827556 45630460 
2964.781 45451516 45290148 45144904 45014120 44896344 44790540 44696292 
2968.156 44614328 44545336 44490528 44451544 44430440 44429596 44451472 
2971.532 44498420 44571660 44670620 44793072 44934484 45088364 45246680 
2974.907 45400196 45537980 45648748 45721816 45747220 45718284 45632592 
2978.282 45492976 45306736 45085540 44843584 44594496 44350948 44122900 
2981.657 43917084 43737448 43585328 43459768 43357240 43271908 43196104 
2985.033 43120020 43033672 42928208 42797064 42636828 42448296 42235088 
2988.408 42003112 41758820 41507996 41254584 41000228 40744164 40484504 
2991.783 40218780 39945380 39664812 39379420 39094040 38813840 38543816 
2995.158 38286956 38043336 37810080 37581972 37353592 37119840 36877920 
2998.534 36627552 36370848 36111232 35852312 35597680 35349348 35108664 
3001.909 34876048 34651520 34435004 34226336 34024936 33830472 33642144 
3005.284 33459588 33282832 33112086 32948234 32792088 32644394 32505318 
3008.659 32374642 32251752 32135640 32025262 31920012 31819138 31722248 
3012.035 31629082 31539104 31451962 31367228 31283784 31201004 31118060 
3015.410 31034346 30949974 30865726 30782952 30703644 30629576 30561776 
3018.785 30500528 30445260 30394724 30347784 30303832 30263048 30226494 
3022.160 30195128 30169804 30150696 30137556 30129564 30126262 30127788 
3025.536 30135390 30150482 30174636 30208910 30252960 30305396 30363136 
3028.911 30422656 30480020 30530600 30571054 30597860 30608916 30603158 
3032.286 30580476 30542116 30490042 30426780 30355244 30278288 30199106 
3035.661 30120756 30045936 29977270 29916388 29863536 29817932 29777512 
3039.037 29739826 29702608 29664682 29626050 29588132 29552590 29521488 
3042.412 29496096 29476770 29462762 29452690 29444996 29438366 29431522 
3045.787 29424112 29416312 29408724 29402662 29399754 29401634 29409538 
3049.162 29424112 29444642 29469888 29497870 29526736 29555216 29582916 
3052.538 29610050 29637260 29665178 29693738 29722654 29751466 29779606 
3055.913 29807108 29834506 29862720 29892784 29925724 29962466 30003612 
3059.288 30049700 30100798 30156876 30217188 30280668 30345688 30411108 
3062.663 30476040 30540836 30606572 30674840 30747100 30823892 30904718 
3066.039 30988084 31072178 31154900 31234968 31311668 31384428 31452678 
3069.414 31515874 31573168 31623878 31668392 31707634 31743634 31778534 
3072.789 31814576 31853012 31894050 31937096 31981282 32025512 32069494 
3076.164 32113268 32157152 32201864 32247610 32294758 32343444 32393280 
3079.540 32444152 32495286 32545886 32594922 32641072 32683474 32721878 
3082.915 32756608 32788728 32819710 32851086 32884538 32921710 32963890 
3086.290 33012510 33068426 33132040 33202778 33278790 33357822 33437330 
3089.665 33515240 33590804 33664344 33737104 33810772 33886244 33963592 
3093.041 34042140 34120520 34197692 34273196 34347924 34422844 34499788 
3096.416 34580188 34664372 34752840 34845240 34941328 35040124 35140960 
3099.791 35242392 35343060 35441516 35536980 35629260 35719512 35809204 
3103.166 35899924 35992680 36087328 36182892 36278120 36371824 36463560 
3106.542 36554344 36645364 36738028 36833268 36930732 37029768 37129260 
3109.917 37228196 37326256 37424116 37522800 37623308 37726224 37831736 
3113.292 37939076 38047348 38155144 38260900 38363860 38463260 38559136 
3116.667 38652388 38744464 38837468 38933240 39032880 39136420 39242744 
3120.042 39349384 39454308 39555704 39653304 39748280 39842732 39939204 
3123.418 40039292 40143872 40251936 40362092 40472428 40581336 40688012 
3126.793 40792456 40895256 40997060 41098488 41199864 41301260 41402392 
3130.168 41503328 41603820 41703852 41803656 41903736 42004424 42106708 
3133.543 42211092 42318500 42429004 42543008 42660040 42779400 42900120 
3136.919 43021012 43141208 43259864 43376208 43490312 43602432 43713080 
3140.294 43823244 43934056 44045888 44158956 44272536 44385300 44496472 
3143.669 44604892 44710796 44815116 44919496 45025588 45134944 45248408 
3147.044 45366096 45487496 45612056 45738936 45867880 45998624 46130812 
3150.420 46263852 46397008 46528872 46658124 46783612 46904524 47020888 
3153.795 47133404 47243220 47352396 47462708 47576008 47693512 47815344 
3157.170 47940908 48067988 48194328 48317260 48435120 48547112 48654208 
3160.545 48758216 48861732 48967124 49076216 49189712 49307288 49427824 
3163.921 49550252 49673424 49796848 49920272 50043620 50166780 50289084 
3167.296 50409708 50527280 50640748 50749216 50852608 50951408 51046836 
3170.671 51140312 51233584 51327848 51423732 51521428 51620564 51720320 
3174.046 51819804 51918408 52015772 52111808 52206672 52300920 52395152 
3177.422 52489588 52584648 52680212 52775912 52870808 52964040 53055080 
3180.797 53143376 53229360 53313452 53396516 53479104 53561372 53642864 
3184.172 53722956 53801328 53878372 53955160 54033504 54115276 54201868 
3187.547 54293284 54388320 54484396 54579180 54670188 54756360 54837448 
3190.923 54914444 54988372 55060580 55131864 55202556 55272584 55342092 
3194.298 55411048 55479752 55548204 55616516 55684612 55752456 55820008 
3197.673 55887796 55956164 56025252 56095032 56164980 56233764 56300752 
3201.048 56365256 56427396 56487996 56548076 56608732 56670644 56733920 
3204.424 56797924 56862164 56925924 56988480 57049428 57108452 57165104 
3207.799 57219076 57270564 57320356 57369476 57419504 57471508 57525256 
3211.174 57580144 57634060 57684988 57731764 57774228 57814384 57854964 
3214.549 57899108 57949084 58005696 58067500 58132040 58195948 58256496 
3217.925 58312312 58363396 58411192 58457548 58504788 58554340 58606896 
3221.300 58662532 58720940 58781596 58844192 58908700 58975228 59043664 
3224.675 59114084 59185728 59257424 59327956 59395916 59460392 59521076 
3228.050 59578572 59633836 59687852 59741916 59796288 59851276 59906652 
3231.426 59962488 60019056 60077308 60137964 60201824 60269084 60338560 
3234.801 60409156 60479188 60547480 60613532 60677728 60740984 60804552 
3238.176 60869580 60936636 61005992 61077800 61152024 61228316 61306344 
3241.551 61385180 61463428 61539432 61611900 61679988 61744076 61805612 
3244.927 61866512 61929404 61995708 62066496 62141228 62219188 62298772 
3248.302 62378976 62459044 62538632 62618004 62696928 62775060 62851912 
3251.677 62926784 62998832 63068368 63135380 63201024 63266256 63331804 
3255.052 63397980 63464508 63530272 63593836 63654288 63711040 63764988 
3258.427 63817060 63869452 63923696 63980588 64039832 64099892 64158768 
3261.803 64214312 64264716 64309708 64349668 64385980 64419872 64452240 
3265.178 64483716 64514196 64543144 64570480 64596088 64620116 64642912 
3268.553 64664832 64686216 64706788 64726904 64746404 64765252 64783328 
3271.928 64800596 64816796 64831912 64846568 64861492 64877996 64897740 
3275.304 64921900 64950832 64984084 65020180 65057276 65093652 65128224 
3278.679 65160752 65191664 65222196 65253228 65285616 65320008 65356672 
3282.054 65396152 65438984 65485716 65536916 65592752 65653300 65717740 
3285.429 65785788 65856496 65929532 66004476 66081240 66159524 66239372 
3288.805 66320924 66404620 66491380 66581980 66677704 66779280 66887176 
3292.180 67001408 67121976 67248408 67380688 67519000 67663640 67814872 
3295.555 67972888 68137288 68307880 68483696 68664120 68848192 69035808 
3298.930 69226296 69419584 69616152 69816704 70022328 70234480 70454176 
3302.306 70681696 70916912 71158344 71404832 71655048 71908112 72164336 
3305.681 72424192 72688712 72958520 73234192 73515808 73803216 74096360 
3309.056 74395400 74700400 75011480 75327824 75648616 75972568 76298696 
3312.431 76626648 76956872 77290240 77627816 77970216 78318160 78671480 
3315.807 79030008 79393728 79762648 80136344 80514112 80894200 81274192 
3319.182 81652032 82026320 82397040 82765272 83133096 83501992 83872736 
3322.557 84244560 84615648 84984000 85348464 85708952 86066272 86421504 
3325.932 86775000 87125864 87472240 87811664 88141856 88461744 88770880 
3329.308 89069552 89357920 89635160 89899864 90150248 90385024 90603072 
3332.683 90804160 90987608 91152784 91298152 91421928 91522920 91600976 
3336.058 91657520 91695328 91717392 91724880 91718088 91695208 91652736 
3339.433 91587392 91496656 91379152 91234784 91064304 90868240 90647208 
3342.809 90401592 90131936 89838608 89522392 89183832 88823128 88439928 
3346.184 88033616 87604176 87152192 86678912 86187080 85679008 85156656 
3349.559 84622048 84075920 83519664 82954624 82382896 81806728 81228000 
3352.934 80647664 80065696 79481248 78894096 78304480 77714592 77127840 
3356.310 76548352 75979512 75423600 74881456 74352224 73835064 73329272 
3359.685 72834808 72352800 71884184 71430336 70991000 70565488 70152376 
3363.060 69750088 69357384 68973696 68599048 68234056 67879680 67537000 
3366.435 67207064 66890932 66589280 66302628 66030168 65770672 65521508 
3369.811 65279564 65040656 64801252 64557908 64308128 64050660 63785708 
3373.186 63514248 63237780 62958272 62676832 62393820 62108200 61817956 
3376.561 61521104 61215496 60900040 60574408 60239316 59895128 59542088 
3379.936 59179732 58806596 58420972 58021788 57608328 57181204 56742040 
3383.312 56292260 55834064 55368852 54898316 54423628 53946380 53467748 
3386.687 52989304 52512064 52036764 51563960 51093872 50626860 50163396 
3390.062 49704256 49250016 48801480 48359336 47924072 47496232 47076272 
3393.437 46664320 46259652 45861248 45466892 45074180 44680608 44285120 
3396.813 43887644 43490168 43094956 42704892 42321608 41945560 41575264 
3400.188 41209004 40844220 40479776 40115236 39751404 39389288 39030268 
3403.563 38674952 38323108 37974224 37627968 37283940 36942420 36604376 
3406.938 36270484 35941784 35618364 35300536 34987940 34680232 34376828 
3410.313 34077436 33781724 33489474 33200740 32915704 32634820 32358472 
3413.689 32086548 31819138 31555674 31295646 31038332 30783166 30530280 
3417.064 30279780 30031982 29787482 29546774 29310560 29079396 28854554 
3420.439 28636552 28426622 28224850 28030702 27842930 27659476 27478322 
3423.814 27298200 27118394 26939194 26761690 26586900 26415102 26245978 
3427.190 26078570 25911230 25742688 25572630 25401058 25229306 25059062 
3430.565 24891342 24727054 24566334 24408722 24253444 24100080 23948308 
3433.940 23798340 23650736 23506116 23364798 23227022 23092152 22959842 
3437.315 22829352 22700194 22572192 22445482 22320028 22195556 22071918 
3440.691 21948144 21823706 21697632 21569784 21440478 21309992 21179198 
3444.066 21048094 20916578 20783920 20649356 20512610 20374418 20236614 
3447.441 20101802 19972828 19851278 19737740 19631198 19529568 19430700 
3450.816 19332720 19234486 19135892 19037148 18938358 18839280 18738872 
3454.192 18636276 18530832 18422928 18313320 18203948 18096228 17991226 
3457.567 17888772 17788378 17688698 17588246 17486336 17382654 17277618 
3460.942 17171886 17066074 16960736 16856252 16753066 16650764 16549418 
3464.317 16448678 16348273 16247753 16147153 16046612 15947020 15849169 
3467.693 15753850 15661437 15571963 15484979 15399969 15316693 15234496 
3471.068 15153687 15074196 14995510 14917455 14839276 14760563 14681830 
3474.443 14604070 14528587 14456986 14389611 14325910 14263828 14200899 
3477.818 14134726 14063911 13988281 13909174 13828338 13748029 13669753 
3481.194 13594569 13522985 13455139 13392020 13334308 13282787 13237830 
3484.569 13198856 13164086 13130958 13097389 13061159 13021586 12978876 
3487.944 12934599 12890225 12847391 12807224 12769925 12735600 12704142 
3491.319 12675177 12649285 12626429 12607396 12592558 12582496 12576970 
3494.695 12576186 12579631 12587168 12598288 12612989 12631170 12653344 
3498.070 12679407 12709226 12742116 12777092 12812855 12848176 12882853 
3501.445 12917805 12954979 12997345 13047808 13109102 13182666 13268507 
3504.820 13365230 13470587 13582090 13696802 13813014 13929292 14045429 
3508.196 14162351 14281702 14406119 14537632 14678403 14828442 14986798 
3511.571 15150771 15317826 15485391 15652025 15817486 15982185 16147085 
3514.946 16311530 16474180 16632380 16783234 16924598 17055632 17176712 
3518.321 17289032 17393450 17489854 17576066 17649114 17705332 17741814 
3521.697 17757416 17752894 17730114 17692148 17641006 17577654 17501616 
3525.072 17410624 17302238 17174712 17027202 16860764 16678171 16483506 
3528.447 16281085 16074667 15866147 15656250 15444361 15228868 15008783 
3531.822 14783771 14553975 14320602 14084240 13845852 13605679 13364410 
3535.198 13123103 12884013 12649558 12422695 12205186 11997731 11798991 
3538.573 11607283 11420285 11236599 11055607 10877918 10704243 10534844 
3541.948 10370162 10208731 10049597 9891674 9734690 9579151 9426174 9277211 
3545.805 9133273 8995235 8863395 8737715 8617952 8503391 8392881 8284459 
3549.663 8175894 8065231 7951053 7833631 7714792 7597738 7486244 7383407 
3553.520 7290736 7208056 7133510 7064432 6998194 6932672 6866151 6797587 
3557.378 6726375 6651979 6574668 6494782 6413901 6333406 6255312 6181130 
3561.235 6111364 6045472 5981774 5917716 5850040 5775760 5692361 5598003 
3565.093 5491920 5375967 5254478 5133626 5022394 4928684 4858147 4811876 
3568.950 4786649 4775895 4771205 4764472 4749565 4722432 4682171 4629825 
3572.807 4568510 4502250 4434760 4369558 4308916 4254038 4204821 4160493 
3576.665 4119147 4078407 4036601 3991956 3944039 3893253 3840767 3788287 
3580.522 3737118 3688694 3643551 3601653 3562832 3525117 3487773 3447693 
3584.380 3402241 3348379 3283573 3207126 3120949 3030184 2942740 2867255 
3588.237 2810958 2777043 2764705 2768806 2782178 2797151 2806689 2805922 
3592.094 2792449 2766005 2728460 2683549 2635676 2589375 2548445 2515251 
3595.952 2490957 2475128 2466797 2463965 2465364 2469863 2477060 2487291 
3599.809 2501254 2519650 2542346 2569243 2598542 2628476 2656478 2679915 
3603.667 2695918 2702119 2695151 2672414 2631143 2569977 2489091 2391561 
3607.524 2283594 2173356 2070004 1980823 1909032 1853125 1807706 1765619 
3611.382 1720941 1670314 1613706 1555044 1499947 1453368 1418063 1393199 
3615.239 1375615 1359893 1340981 1315024 1280395 1237827 1191011 1144830 
3619.096 1106461 1080850 1071749 1079489 1101246 1131741 1165628 1197124 
3622.954 1222476 1239887 1248726 1249158 1240818 1221512 1187057 1132339 
3626.811 1052750 948137 825158 700388 595528 530302 514014 541150 596424 
3631.151 660764 718409 760495 783896 791630 789738 785755 784626 788410 
3635.490 795447 802319 805240 801854 792228 778120 762685 748380 737128 
3639.830 729329 724350 721562 720699 721496 724416 728665 732946 734075 
3644.170 728466 712269 682235 637635 579470 510663 436064 360449 288726 
3648.509 224441 171535 134777 119530 131064 171635 238597 324138 416661 
3652.849 503398 571772 612384 620878 598415 552331 495404 443294 408536 
3657.188 397823 411089 442763 484723 529705 572005 607904 636109 656715 
3661.528 670952 680542 687412 692987 698397 704271 710776 717712 724815 
3665.868 730988 734971 734705 728399 716318 703242 701118 729030 811282 
3670.207 969888 1214933 1542408 1935091 2372137 2831668 3294757 3744571 
3674.065 4156914 4498400 4729064 4809263 4718982 4465759 4080581 3604359 
3677.922 3077566 2538913 2021799 1556374 1167754 867951 655654 516668 430624 
3682.262 376466 338861 309980 287532 271717 261406 251958 236077 205347 
3686.601 153702 79760 -11762 -110156 -201673 -274726 -322274 -343000 -340054 
3690.941 -318533 -283005 -238135 -188889 -139339 -93692 -55396 -25976 -5732 
3695.281 6858 14314 19416 24420 29788 35057 38138 36150 26242 6295 -23756 
3700.584 -61393 -101212 -135927 -158020 -162690 -148613 -118868 -79448 
3704.442 -37738 -298 28529 46555 53547 50366 37542 15672 -15638 -56622 
3709.264 -105850 -160405 -215317 -264097 -300786 -320983 -322373 -306183 
3713.121 -275687 -235817 -191671 -148514 -110620 -81435 -62420 -53905 -53210 
3717.461 -57053 -61658 -64606 -65600 -66329 -69509 -77791 -91208 -107837 
3721.800 -123506 -134337 -137749 -134569 -128077 -122678 -122479 -128176 
3725.658 -137583 -145765 -147156 -137848 -116980 -88061 -57715 -32933 -20873 
3729.997 -26241 -51056 -93659 -149276 -211476 -273932 -332604 -386767 
3733.855 -438175 -487823 -535513 -576083 -601992 -605665 -583429 -537002 
3737.712 -473823 -403418 -334524 -273369 -222404 -182497 -153648 -138213 
3741.570 -140697 -169050 -230319 -327505 -452044 -580848 -682323 -728536 
3745.427 -711434 -644343 -553813 -467302 -405901 -382529 -400174 -452309 
3749.284 -524228 -599146 -661348 -701113 -715734 -705810 -673688 -621348 
3753.142 -551960 -470712 -384648 -302905 -233465 -182265 -152323 -143082 
3756.999 -150733 -169613 -193724 -218165 -238334 -250189 -250089 -235187 
3760.857 -204819 -161796 -112376 -65136 -28063 -7653 -5533 -18687 -40388 
3765.196 -62221 -77659 -84417 -84947 -84881 -89850 -103100 -123771 -147686 
3769.536 -168188 -178787 -175839 -159014 -131389 -97204 -61028 -26572 4373 
3773.875 30517 51990 68924 81881 90365 93448 90001 78435 58651 32472 4473 
3779.179 -19217 -31774 -29289 -11663 16633 47947 74425 89736 91095 80191 
3784.001 61434 41121 24784 16037 15009 20179 28893 38901 49074 58949 68195 
3789.305 76612 83936 89968 95038 100076 105975 112968 119829 124204 122049 
3794.127 110151 86985 54508 17693 -16102 -38864 -46385 -38864 -22431 -5533 
3798.949 894 -11795 -48571 -107407 -177760 -243367 -286680 -296150 -271680 
3803.288 -223398 -166532 -117311 -88790 -87862 -113204 -154708 -196009 
3807.146 -220020 -214688 -179516 -121916 -55330 8780 62859 104683 136003 
3811.485 161094 182673 201070 212739 211579 191855 150951 91956 24553 -36280 
3816.307 -77029 -90479 -79713 -55131 -31012 -21470 -36147 -78388 -142453 
3820.647 -214688 -275389 -305719 -296514 -250652 -180278 -101245 -28560 
3824.504 27104 61633 76281 77573 73895 73563 81053 95999 114393 130634 
3829.326 140245 140809 132755 119166 104219 90829 80887 73994 69089 64185 
3834.148 57358 46920 31113 8449 -22066 -59902 -101974 -142982 -175475 
3838.487 -193525 -193691 -176965 -147686 -112343 -77791 -48936 -28163 -15108 
3842.827 -7388 -1126 7521 21073 40491 64914 91890 118337 141306 159205 
3847.649 171502 179060 183369 185192 183269 173425 148499 99214 17693 -98827 
3852.470 -242837 -394116 -521812 -598650 -611455 -566123 -480111 -373789 
3856.328 -264163 -161299 -71166 3644 63191 107102 136235 151415 154664 
3860.667 148233 134975 117244 96430 73033 46655 18290 -9211 -30813 -41117 
3865.489 -36909 -19316 5367 27634 36581 24553 -10602 -63612 -122181 -169613 
3870.311 -192797 -187233 -158384 -118073 -78487 -48604 -31078 -22895 -16367 
3874.651 -3147 22465 61169 108461 156884 197457 222684 227922 212043 178662 
3879.472 135207 92387 60175 45760 50698 70680 96894 118536 126921 116713 
3884.294 88112 47914 8349 -16931 -18322 6891 52586 107433 158774 196131 
3889.116 212938 207766 183999 149692 115388 90100 80092 87084 109057 141870 
3893.938 180816 222485 263462 301226 332726 354977 364660 359354 337800 
3898.277 301823 255306 204816 156918 116978 87051 66306 50930 36780 21173 
3903.099 4075 -11762 -20807 -18389 -1358 30616 74524 125364 178297 228618 
3907.921 273276 310643 340221 362869 379716 392219 402234 411321 420873 
3912.260 431188 441802 450890 455832 454140 443758 424853 398984 369900 
3916.600 341680 318269 302022 293235 291014 293700 300563 311041 325232 
3920.940 342840 362538 381374 396298 404125 403229 394573 381507 369236 
3925.279 362372 364428 375537 392981 412449 429397 440010 442631 436893 
3929.619 424422 407673 388736 370497 355110 344797 341746 346886 360349 
3933.958 380313 403859 426611 444753 455467 457921 453444 444886 435865 
3938.298 429297 426976 428302 431619 434239 433941 429961 422531 414107 
3942.638 407806 406081 410625 421271 436130 451918 465086 473213 474440 
3946.977 468934 458485 445715 433642 424720 420110 420276 424256 431420 
3951.317 440574 451321 462897 474904 486381 496233 503763 508043 509602 
3955.656 509204 508839 509834 513748 520648 529672 539127 547188 552231 
3959.996 553591 551733 547686 543340 540454 541018 545961 555681 569748 
3964.336 586736 604852 622106 636407 646296 651406 651970 649083 644139 
3968.675 638531 633653 630103 627979 627581 628808 631728 636042 641849 
3973.015 648453 655488 662357 668828 674967 681206 688042 695974 705200 
3977.354 715655 726640 737460 747185 755217 761159 764710 766137 765772 
3981.694 763781 760661 756877 752363 747085 740879 733411 724350 714261 
3986.034 703773 694049 686383 681837 681007 683894 689702 697069 705034 
3990.373 712336 718276 722160 724184 724483 723089 720500 716949 712634 
3994.713 708121 703375 698762 694381 690697 687910 686350 685985 686582 
3999.052 687412 687711 686450 683131 
##END=
