##TITLE=Z327c_3_a
##JCAMP-DX=5.01  $$ Nicolet v. 1
##DATATYPE=INFRARED SPECTRUM
##ORIGIN=UniL
##OWNER=Nicolet
##LONGDATE=2011/09/28
##TIME=14:20:21
##SPECTROMETER/DATA SYSTEM=Nicolet iS5
##DATA PROCESSING=
Ratio against background
%Transmittance->Absorbance
Truncated
ElementMultiply or ElementDivide
##COMMENTS=
Number of sample scans: 32
Collection length: 51.16 sec
Sample gain: 2.0
Background collected on: Mer Sep 28 14:15:14 2011 (GMT+02:00);
Number of background scans: 32
Background gain: 2.0
Sample spacing:  1.000
Number of scan points: 12415
Resolution points: 8192
Number of FFT points: 65536
Apodization: N-B fort;
Phase correction: Mertz;
Laser frequency: 15798.0 cm-1
Number of rejected sample scans: 0
Number of rejected background scans: 0
Bench serial number: ASB1000141;
##RESOLUTION=4.000
##XUNITS=1/CM
##YUNITS=ABSORBANCE
##FIRSTX=649.893372
##LASTX=4000.122314
##FIRSTY=0.108259
##MAXX=4000.122314
##MINX=649.893372
##MAXY=0.271664
##MINY=-0.000817
##XFACTOR=1.000000
##YFACTOR=1.000000E-009
##NPOINTS=6950
##DELTAX=0.482117
##ZPD=6100
##XYDATA=(X++(Y..Y))
649.893 108259440 107577368 106988384 106536400 106230352 106051176 
652.786 105965536 105944768 105976360 106067800 106236616 106496768 
655.679 106852120 107293488 107806944 108385808 109036656 109777168 
658.571 110625920 111588912 112653664 113793808 114984352 116215096 
661.464 117499728 118867832 120350712 121959280 123674728 125447752 
664.357 127218320 128930200 130530312 131974504 133212640 134182200 
667.250 134824992 135121408 135121456 134920464 134611680 134233344 
670.142 133766528 133158344 132354704 131330448 130101856 128729016 
673.035 127291736 125870768 124516768 123242240 122034792 120874944 
675.928 119754112 118680144 117669944 116736528 115878136 115077840 
678.820 114310776 113555664 112804744 112062736 111339096 110638232 
681.713 109951184 109258480 108539736 107784640 107000000 106208264 
684.606 105439336 104715840 104045328 103418688 102817888 102226760 
687.498 101638208 101056128 100490952 99950072 99431696 98924128 98410256 
690.873 97877024 97321528 96752824 96187128 95642712 95133776 94668496 
694.248 94253472 93898032 93615848 93425776 93344928 93381616 93532080 
697.623 93780456 94104936 94484344 94906304 95368664 95877624 96440344 
700.998 97057984 97722936 98420520 99132648 99844688 100550048 101247888 
704.373 101940408 102626648 103299760 103947144 104556136 105116840 
707.265 105627344 106093008 106522848 106926584 107313552 107695216 
710.158 108089496 108523656 109035248 109663192 110436376 111363624 
713.051 112424088 113568064 114720616 115803944 116746848 117499680 
715.943 118043872 118389568 118572944 118646216 118677880 118744640 
718.836 118920280 119276664 119866488 120711280 121792576 123043544 
721.729 124356504 125581000 126557720 127143144 127227112 126767560 
724.621 125797272 124426216 122812544 121138464 119576296 118244032 
727.514 117203160 116456560 115965592 115672104 115518696 115465440 
730.407 115486712 115567984 115697496 115859664 116036040 116211240 
733.300 116377856 116539320 116708216 116899088 117119456 117366328 
736.192 117626464 117882840 118122280 118340488 118542688 118739544 
739.085 118941592 119153496 119374176 119599600 119826368 120055128 
741.978 120289384 120532344 120783400 121036432 121282520 121514064 
744.870 121729288 121933256 122135736 122344680 122560312 122774344 
747.763 122972512 123141248 123274232 123375592 123457568 123534712 
750.656 123616056 123701728 123783984 123853520 123903760 123937208 
753.548 123962472 123991248 124032072 124086704 124150992 124219000 
756.441 124287760 124359192 124439184 124533496 124643672 124765288 
759.334 124890144 125010448 125122832 125230688 125340240 125455976 
762.227 125576792 125694720 125799744 125886080 125959528 126039208 
765.119 126158368 126356272 126667888 127119440 127718512 128450168 
768.012 129270432 130107448 130868272 131440920 131725032 131655024 
770.905 131222768 130491752 129589904 128687176 127935752 127438576 
773.797 127213208 127191184 127235072 127179592 126890776 126284600 
776.690 125347672 124119816 122668288 121053680 119308632 117436232 
779.583 115417248 113228416 110855568 108303864 105598648 102783168 99909200 
782.958 97033864 94217088 91511136 88961448 86602336 84451776 82515144 
786.332 80786880 79255112 77906384 76729272 75716176 74862560 74166080 
789.707 73624144 73233920 72992512 72897624 72949672 73151880 73509720 
793.082 74030312 74719216 75577272 76598312 77767376 79058312 80433640 
796.457 81850536 83261512 84622328 85903752 87098088 88228808 89348432 
799.832 90537976 91890008 93481368 95354552 97486512 99777056 102032224 
803.206 103991944 105375480 105909584 105413568 103838008 101286128 97991200 
806.581 94266888 90447904 86787992 83434456 80407680 77626864 74954856 
809.956 72255656 69449400 66525364 63543200 60599512 57804960 55248988 
813.331 52982228 51021052 49351644 47944460 46762760 45771336 44939776 
816.706 44239444 43646652 43141868 42709644 42341512 42033736 41785488 
820.081 41596268 41463632 41383000 41348888 41356652 41404364 41492976 
823.455 41626244 41809164 42046472 42342536 42700616 43121848 43603608 
826.830 44137976 44710540 45299596 45880656 46432256 46941768 47412076 
830.205 47865356 48343964 48901596 49601508 50507104 51666692 53107204 
833.580 54817144 56739208 58756064 60692248 62343824 63483068 63913404 
836.955 63515896 62267716 60260100 57670952 54745388 51731148 48839336 
840.329 46233264 44001112 42169504 40718508 39601616 38761996 38142080 
843.704 37695216 37381580 37169180 37035144 36962480 36940000 36961720 
847.079 37022912 37118288 37240688 37380420 37527964 37677184 37826420 
850.454 37979288 38143276 38326548 38535452 38773300 39040748 39337088 
853.829 39662348 40017600 40405656 40829804 41293608 41800516 42355320 
857.204 42965372 43639876 44391608 45235024 46185464 47260696 48481424 
860.578 49870728 51455584 53260072 55296628 57554420 59988852 62517128 
863.953 65011552 67324856 69305224 70816512 71773904 72153576 72002976 
867.328 71428224 70587192 69665984 68838296 68264144 68065664 68316336 
870.703 69051848 70268520 71932904 73980488 76319312 78834136 81371568 
874.078 83757120 85807448 87334992 88191336 88285608 87598128 86185944 
877.452 84171112 81725176 79025832 76248224 73540888 71002272 68688800 
880.827 66612536 64752900 63070468 61523128 60080732 58730008 57477856 
884.202 56344208 55356772 54538832 53903428 53451784 53174156 53055192 
887.577 53078220 53231084 53506460 53901288 54414500 55044712 55789904 
890.952 56648180 57620244 58711268 59930996 61293940 62817336 64517080 
894.327 66407092 68493936 70773104 73220544 75784504 78382536 80887896 
897.701 83144816 84985248 86239120 86780016 86540376 85525792 83814016 
901.076 81542800 78893576 76050912 73195560 70484256 68027992 65903312 
904.451 64149552 62775292 61769936 61111172 60773760 60731956 60963936 
907.826 61453272 62187644 63159288 64364000 65800512 67469272 69369752 
911.201 71496576 73834480 76352296 78996144 81696336 84366584 86915064 
914.575 89266264 91367088 93200888 94789152 96190648 97489792 98775480 
917.950 100133176 101617392 103237352 104944120 106628896 108138248 
920.843 109281016 109878848 109801224 108996920 107524144 105552176 
923.736 103359536 101271824 99639080 98786464 98938360 100204360 102539408 
927.110 105755944 109520112 113397232 116944928 119727440 121411736 
930.003 121813936 120891400 118734664 115515328 111458608 106791776 
932.896 101724512 96459504 91173552 86026160 81167248 76716944 72770352 
936.271 69395328 66625320 64471224 62924752 61967276 61570168 61693776 
939.646 62283704 63256404 64496592 65868564 67210736 68364616 69201776 
943.020 69628640 69609616 69166376 68372256 67333328 66167704 64995088 
946.395 63909032 62975272 62230584 61683196 61322292 61124560 61063916 
949.770 61113116 61246704 61442852 61680368 61940292 62207448 62470676 
953.145 62725408 62973476 63221984 63480532 63757928 64061032 64392896 
956.520 64753980 65143192 65559192 66000580 66465936 66953352 67460288 
959.894 67984168 68523616 69079080 69652560 70246896 70864560 71505680 
963.269 72168520 72850000 73547640 74260624 74990880 75741584 76515352 
966.644 77313080 78133296 78973448 79831488 80707552 81604928 82529048 
970.019 83484848 84475480 85501664 86562056 87655296 88782104 89945672 
973.394 91151064 92403392 93705704 95059368 96464296 97920616 99431032 
976.768 101000608 102635208 104340912 106121744 107980896 109922800 
979.661 111956864 114098040 116368840 118793984 121396224 124192232 
982.554 127188336 130379040 133744896 137254016 140854032 144466208 
985.447 147988944 151286320 154199088 156571856 158256928 159147568 
988.339 159196272 158418608 156895232 154756576 152182432 149371280 
991.232 146520272 143822944 141433824 139465328 137988176 137026912 
994.125 136572944 136594768 137052944 137907104 139120304 140663424 
997.017 142508720 144628208 146994944 149579456 152352128 155284640 
999.910 158342176 161479392 164637312 167732784 170668352 173343312 
1002.803 175659936 177546880 178967488 179924384 180458880 180646880 
1005.695 180596304 180427648 180272864 180263536 180507120 181088624 
1008.588 182059696 183437392 185212768 187359136 189844896 192636944 
1011.481 195704352 199018864 202546080 206246720 210080000 214002368 
1014.374 217975456 221963696 225922592 229790144 233473120 236834704 
1017.266 239715488 241945024 243370672 243899632 243514624 242292032 
1020.159 240386656 238033328 235518992 233130000 231155440 229837648 
1023.052 229340320 229755520 231088224 233272592 236182656 239662064 
1025.945 243547632 247666576 251859808 255975664 259857392 263361280 
1028.838 266355392 268730176 270418432 271392864 271663744 271265024 
1031.731 270243616 268650752 266535408 263949280 260945408 257571104 
1034.624 253865776 249851888 245535232 240911968 235981856 230762112 
1037.517 225297168 219656944 213928688 208212032 202599600 197174304 
1040.410 192009824 187159488 182658272 178514352 174702416 171159952 
1043.303 167788608 164476912 161108896 157593344 153886832 149998880 
1046.196 145994256 141973904 138068864 134412384 131119456 128288432 
1049.089 125982952 124233472 123041256 122381656 122211992 122475744 
1051.982 123115472 124074760 125299648 126742720 128354072 130073432 
1054.875 131831344 133538496 135089984 136382384 137312272 137794976 
1057.768 137776800 137236416 136191936 134699024 132855488 130790264 
1060.661 128649696 126599312 124793856 123367056 122431296 122059544 
1063.554 122290536 123128136 124544848 126482160 128849672 131537232 
1066.448 134406864 137302496 140073680 142572624 144676112 146299136 
1069.341 147388528 147924704 147913248 147378112 146354912 144885040 
1072.234 143017856 140804496 138296960 135553120 132633256 129605976 
1075.127 126555904 123575312 120767208 118241072 116093568 114409216 
1078.020 113251504 112652760 112616176 113109224 114068400 115389888 
1080.913 116934736 118546264 120043728 121255096 122045456 122326984 
1083.806 122086664 121384832 120353376 119166568 118017344 117105176 
1086.699 116595704 116616720 117250336 118521232 120400720 122804544 
1089.592 125609712 128652112 131743208 134703808 137360464 139570832 
1092.485 141237504 142298080 142728800 142537008 141756528 140440320 
1095.378 138653184 136473616 133981464 131256160 128380656 125431744 
1098.271 122481760 119597328 116826536 114196424 111705672 109325936 
1101.164 107005632 104681688 102300608 99827592 97261912 94638040 92024360 
1104.540 89512016 87195240 85169880 83515000 82285656 81517536 81222368 
1107.915 81394144 82010624 83038936 84437568 86154352 88132808 90308696 
1111.290 92606384 94945680 97234312 99369504 101252160 102785856 103890456 
1114.665 104516344 104642808 104283064 103475232 102279976 100769336 
1117.558 99015472 97091992 95062416 92975824 90869920 88767104 86679072 
1120.934 84612344 82572600 80569592 78620840 76748928 74981272 73346928 
1124.309 71870224 70571640 69466120 68563040 67869640 67392408 67137832 
1127.684 67112416 67321024 67763664 68433112 69312296 70374248 71578072 
1131.059 72872384 74196816 75480520 76654200 77656616 78441792 78992088 
1134.435 79320816 79473736 79517224 79532064 79599760 79782792 80121640 
1137.810 80624600 81268472 81999104 82738776 83401568 83893312 84130120 
1141.185 84048048 83601840 82772008 81560424 79987016 78084464 75894664 
1144.560 73469656 70864640 68138960 65355324 62570928 59839752 57209552 
1147.936 54716524 52388800 50245376 48295820 46543812 44987660 43622692 
1151.311 42441756 41435744 40594904 39908656 39366652 38960928 38685164 
1154.686 38535600 38510072 38607296 38825616 39163728 39620852 40197628 
1158.061 40897112 41723984 42683140 43777980 45009012 46372452 47860324 
1161.437 49459608 51153580 52918412 54722652 56528600 58288248 59948304 
1164.812 61455788 62756836 63805172 64564980 65010480 65130144 64926208 
1168.187 64414956 63623720 62588496 61352244 59957048 58444852 56856084 
1171.562 55225244 53584912 51964756 50390396 48885684 47471468 46163944 
1174.938 44976080 43916272 42988416 42193676 41531692 41001284 40601892 
1178.313 40333480 40196356 40190684 40316612 40575332 40968800 41500340 
1181.688 42174400 42995696 43967456 45091640 46366996 47789412 49349048 
1185.063 51028056 52799220 54619796 56432040 58169128 59752752 61106480 
1188.438 62166044 62880440 63223288 63193016 62813884 62130296 61201916 
1191.814 60100672 58896784 57658084 56447620 55315144 54302184 53439980 
1195.189 52747960 52237052 51908664 51756080 51763472 51905868 52151264 
1198.564 52456876 52772544 53046132 53220336 53242432 53069124 52668168 
1201.939 52026192 51149708 50066488 48819908 47465076 46064348 44674180 
1205.315 43344760 42115544 41010640 40042964 39215292 38523540 37959612 
1208.690 37513156 37174016 36930548 36771308 36686032 36665664 36704240 
1212.065 36799476 36951728 37163800 37438204 37776284 38177428 38638260 
1215.440 39152956 39713752 40310212 40929152 41556232 42175420 42770700 
1218.816 43329088 43840212 44297264 44697100 45038856 45324164 45556192 
1222.191 45741808 45891484 46018996 46142828 46282580 46456996 46682548 
1225.566 46969900 47323280 47740040 48211656 48724820 49261744 49804280 
1228.941 50333876 50834768 51296596 51715472 52094736 52444128 52779316 
1232.317 53121020 53492408 53921320 54439064 55077772 55873440 56860392 
1235.692 58068596 59523884 61243196 63235404 65501048 68033224 70817720 
1239.067 73830240 77038920 80400776 83861960 87366480 90853952 94264712 
1242.442 97546200 100646448 103516448 106112008 108390064 110312744 
1245.335 111849976 112976792 113674808 113932224 113742736 113109184 
1248.229 112044344 110573264 108728584 106546736 104063728 101308936 
1251.122 98306824 95081472 91660384 88081784 84399016 80673992 76980568 
1254.497 73397064 69993520 66834540 63969112 61425104 59211172 57314724 
1257.872 55705856 54338152 53155508 52098100 51101924 50110440 49077516 
1261.247 47969844 46772576 45487092 44130204 42727776 41311720 39915736 
1264.623 38567536 37290508 36101224 35009272 34018880 33129356 32336236 
1267.998 31631752 31007158 30454038 29965804 29538404 29171060 28863938 
1271.373 28617796 28432528 28307208 28240302 28230614 28277644 28380564 
1274.748 28537890 28744902 28993986 29272916 29565394 29853208 30115146 
1278.124 30328774 30473836 30531668 30490078 30345438 30103712 29780210 
1281.499 29395288 28972842 28533536 28092770 27660606 27242276 26841622 
1284.874 26464262 26119002 25817404 25572910 25397228 25299404 25285566 
1288.249 25359360 25524098 25783472 26141556 26601906 27165446 27829116 
1291.625 28583962 29414290 30298682 31205988 32098460 32934078 33666672 
1295.000 34256348 34675064 34911560 34975080 34893856 34711740 34476864 
1298.375 34237808 34038340 33910140 33875532 33946464 34123708 34396768 
1301.750 34742644 35128600 35511304 35843640 36083584 36195352 36157504 
1305.125 35963772 35622176 35152420 34581084 33941592 33267808 32592494 
1308.501 31946902 31354974 30833604 30392308 30032586 29752318 29547520 
1311.876 29416382 29358984 29377346 29473152 29646164 29893778 30212320 
1315.251 30598394 31050432 31569358 32156546 32811922 33532352 34310380 
1318.626 35136396 36000236 36892024 37803464 38725624 39646264 40548232 
1322.002 41407900 42194844 42877404 43424356 43811148 44026964 44077716 
1325.377 43990444 43808836 43594228 43414324 43330956 43395724 43637164 
1328.752 44058024 44636796 45335384 46109516 46915964 47723616 48515024 
1332.127 49284944 50037748 50783104 51532508 52296624 53084320 53901104 
1335.503 54747608 55617344 56496108 57363536 58192996 58955912 59626464 
1338.878 60181576 60604732 60886468 61024372 61021852 60888220 60637532 
1342.253 60287392 59858580 59374948 58859904 58335048 57818816 57322588 
1345.628 56852080 56407740 55986204 55581040 55182840 54779632 54355352 
1349.004 53892588 53375908 52795740 52153952 51465284 50760092 50080136 
1352.379 49472828 48990568 48680708 48580908 48716920 49094768 49697868 
1355.754 50483284 51388632 52334708 53233668 54008064 54591464 54938208 
1359.129 55028612 54866508 54480868 53919220 53251536 52563184 51942944 
1362.505 51480392 51243428 51263744 51532096 51999264 52588872 53203632 
1365.880 53746428 54127400 54268804 54122520 53673760 52946708 51997284 
1369.255 50905620 49760880 48639420 47603588 46694536 45932804 45328396 
1372.630 44886240 44612052 44514204 44599052 44865336 45297796 45867988 
1376.006 46541116 47281200 48061732 48867404 49694336 50548120 51441224 
1379.381 52391860 53421732 54555924 55818724 57224180 58765052 60398684 
1382.756 62047228 63590920 64883768 65782620 66150032 65887420 64956336 
1386.131 63401276 61360488 59043056 56703224 54560884 52759824 51360140 
1389.507 50345708 49656704 49213428 48939384 48765000 48627636 48477160 
1392.882 48269748 47973876 47575452 47081000 46516152 45913396 45302064 
1396.257 44697208 44099356 43502108 42903224 42312912 41759260 41281656 
1399.632 40917684 40693544 40615280 40672000 40843420 41109084 41453572 
1403.008 41867468 42348344 42897152 43514524 44198684 44943708 45740520 
1406.383 46578852 47448772 48343036 49257772 50190624 51140312 52105832 
1409.758 53084696 54074444 55072732 56077428 57085360 58090148 59079232 
1413.133 60033936 60932064 61751680 62479476 63113808 63666188 64158036 
1416.509 64616808 65072716 65554260 66089884 66703976 67408512 68198624 
1419.884 69046760 69908544 70730592 71463376 72072640 72541296 72878928 
1423.259 73120584 73325072 73555408 73861264 74265064 74756520 75303776 
1426.634 75867160 76416064 76932864 77415464 77873840 78326264 78796040 
1430.010 79308248 79893016 80582560 81403616 82373608 83491232 84738184 
1433.385 86080456 87481720 88915496 90368136 91846944 93374872 94983568 
1436.760 96690472 98492264 100365024 102269200 104159608 105984608 107690080 
1440.135 109208664 110462448 111377672 111882648 111920632 111457280 
1443.028 110478808 108998456 107055616 104723136 102097776 99286040 96406832 
1446.404 93571736 90882584 88435536 86304432 84531552 83117328 82025240 
1449.779 81196328 80572584 80120680 79838416 79750616 79888632 80268424 
1453.154 80869256 81633952 82464896 83240408 83837408 84143072 84102896 
1456.529 83756632 83257744 82810656 82583536 82667864 83074560 83776680 
1459.905 84739552 85931736 87320568 88858048 90481488 92097712 93582224 
1463.280 94804360 95637504 96003168 95901672 95418192 94691072 93854528 
1466.655 93015808 92235448 91536256 90920288 90373888 89867912 89348648 
1470.030 88735272 87922568 86793656 85264664 83326176 81071672 78669136 
1473.406 76299768 74092072 72097208 70314640 68729680 67341880 66173532 
1476.781 65255388 64602084 64198488 63996100 63930452 63933752 63955904 
1480.156 63973600 63987880 64018792 64093516 64240320 64482720 64843528 
1483.531 65351436 66041156 66951968 68119344 69560424 71261400 73163056 
1486.906 75166976 77125936 78854600 80157144 80830496 80709304 79711888 
1490.282 77866744 75319976 72287744 69006440 65662472 62365856 59170012 
1493.657 56082068 53096788 50230792 47529980 45073924 42959444 41265480 
1497.032 40029448 39239044 38852248 38814092 39075440 39599076 40352240 
1500.407 41301408 42410808 43636576 44931620 46250360 47536632 48724668 
1503.783 49732640 50441116 50700508 50346976 49253136 47415884 45011108 
1507.158 42352328 39737932 37342580 35202004 33271924 31492610 29825384 
1510.533 28260104 26813002 25510254 24369362 23394590 22573518 21885206 
1513.908 21307208 20820974 20413034 20071610 19787016 19552096 19363866 
1517.284 19224996 19140810 19113664 19137972 19198848 19273936 19344430 
1520.659 19403710 19467534 19567832 19738608 19994998 20327436 20709056 
1524.034 21109726 21510246 21906324 22310472 22745128 23232928 23784866 
1527.409 24397470 25057412 25749860 26466022 27204318 27969174 28766250 
1530.785 29598772 30467900 31373564 32317710 33305586 34343764 35434832 
1534.160 36568728 37724852 38875368 39993184 41051032 42024100 42892584 
1537.535 43635512 44236908 44687332 44988800 45152920 45197040 45144024 
1540.910 45014304 44825728 44590680 44313044 43986192 43595544 43128000 
1544.286 42580248 41969276 41328812 40700092 40113820 39577188 39074968 
1547.661 38577964 38059720 37509828 36944152 36399636 35922024 35542588 
1551.036 35267548 35079456 34950808 34859496 34797708 34775060 34810452 
1554.411 34918988 35099072 35329112 35569416 35774268 35893988 35884628 
1557.787 35723364 35431056 35089948 34815372 34704816 34785792 35024540 
1561.162 35364516 35754048 36157796 36553372 36933400 37302752 37675700 
1564.537 38070712 38503444 38978616 39488528 40014404 40532336 41022732 
1567.912 41473544 41885272 42270328 42650608 43048048 43474308 43929108 
1571.288 44401224 44874668 45331008 45751600 46118580 46409284 46601316 
1574.663 46677236 46634476 46495904 46308712 46130740 46000652 45923708 
1578.038 45872924 45806456 45680628 45461116 45131780 44692948 44160276 
1581.413 43554556 42896096 42197472 41463304 40695764 39899356 39083488 
1584.789 38261192 37443984 36636892 35839068 35046948 34260040 33486392 
1588.164 32741744 32045238 31413742 30855374 30370026 29951922 29595366 
1591.539 29296842 29053924 28861318 28705362 28562766 28406420 28209612 
1594.914 27956136 27644892 27288778 26908384 26523532 26148734 25790926 
1598.290 25452982 25139208 24857798 24620298 24438304 24317812 24257684 
1601.665 24250538 24287748 24363194 24474970 24622822 24802962 25002902 
1605.040 25201776 25370320 25478666 25504104 25434290 25269094 25017856 
1608.415 24694960 24314588 23888616 23430154 22955160 22484074 22040858 
1611.791 21644936 21306094 21020792 20774118 20544292 20309382 20054468 
1615.166 19775362 19481500 19193688 18939292 18742192 18615732 18561298 
1618.541 18570532 18630014 18722060 18826890 18925448 19000732 19044316 
1621.916 19061002 19070142 19099018 19172254 19301924 19482922 19697934 
1625.292 19927624 20159172 20388308 20618258 20853998 21098040 21347404 
1628.667 21595520 21836110 22067596 22292962 22517712 22744150 22967912 
1632.042 23176550 23351302 23472296 23522276 23494190 23394694 23248484 
1635.417 23091210 22958410 22872798 22837770 22841330 22864940 22891134 
1638.792 22903290 22888272 22838152 22750644 22631528 22492866 22349716 
1642.168 22213514 22087432 21964104 21827538 21657368 21434838 21151262 
1645.543 20814786 20453008 20106384 19816528 19612028 19499938 19469580 
1648.918 19498898 19563396 19635808 19684066 19671482 19553450 19291292 
1652.293 18879004 18377296 17907314 17581208 17440908 17450944 17545326 
1655.669 17661332 17758452 17818134 17837502 17824660 17791002 17745646 
1659.044 17690458 17620300 17526318 17400864 17241382 17053152 16847536 
1662.419 16640574 16447578 16279502 16141135 16031621 15946092 15876148 
1665.794 15809858 15733579 15631003 15487142 15293422 15051557 14776331 
1669.170 14493231 14230993 14010181 13838395 13709249 13608312 13518166 
1672.545 13421511 13303626 13152508 12962148 12735259 12488231 12248161 
1675.920 12041265 11884320 11776793 11704045 11644209 11576553 11488426 
1679.295 11377868 11253091 11127057 11009862 10900343 10783887 10634832 
1682.671 10426871 10146894 9812463 9473480 9193645 9013942 8933877 8921869 
1686.528 8937225 8948860 8937123 8895794 8828024 8741670 8645363 8546036 
1690.385 8448927 8358460 8278075 8209862 8151349 8094599 8024693 7923956 
1694.243 7777801 7584487 7362411 7149274 6984287 6886787 6846964 6832591 
1698.100 6804184 6725130 6574399 6358118 6116068 5906363 5772335 5721905 
1701.958 5730365 5762900 5788049 5787143 5753062 5688400 5603373 5511249 
1705.815 5425586 5354531 5301332 5264539 5240426 5224798 5213229 5202230 
1709.673 5189555 5174566 5157935 5141069 5124540 5107240 5086388 5058027 
1713.530 5019076 4968532 4907639 4839450 4766884 4691114 4612879 4534391 
1717.387 4461507 4404802 4376118 4382176 4421505 4484707 4557460 4625136 
1721.245 4676343 4706086 4715900 4713556 4709000 4711646 4726385 4752881 
1725.102 4787553 4825881 4864413 4900937 4933811 4960891 4978486 4983413 
1728.960 4974162 4952411 4922250 4887935 4850038 4803400 4736400 4635149 
1732.817 4490599 4308280 4114632 3948185 3843608 3811852 3838895 3896462 
1736.675 3955943 3997039 4008008 3987475 3942669 3886900 3833045 3790427 
1740.532 3761649 3745005 3736917 3735246 3739524 3750185 3766562 3786349 
1744.389 3806036 3822114 3832376 3836254 3834683 3827997 3815930 3796744 
1748.247 3768434 3729531 3681009 3626043 3570282 3519572 3479022 3451434 
1752.104 3437340 3434501 3438977 3445689 3448528 3440880 3417636 3376728 
1755.962 3321367 3259903 3204056 3163802 3143209 3138837 3140773 3137803 
1759.819 3120148 3083606 3031485 2973399 2921424 2885132 2868455 2868655 
1763.677 2878995 2892237 2902511 2906447 2902077 2888668 2866488 2837204 
1767.534 2804288 2772641 2746632 2727793 2713556 2697718 2672514 2632343 
1771.391 2577843 2517551 2466797 2440006 2443705 2474628 2521416 2571143 
1775.249 2613308 2643844 2664012 2678048 2689984 2700752 2707521 2706054 
1779.106 2692717 2668680 2639377 2613508 2598709 2597608 2607308 2620575 
1782.964 2630643 2633276 2629376 2624009 2623475 2631776 2648944 2671047 
1786.821 2692851 2710821 2723058 2730360 2733161 2730794 2720024 2697018 
1790.678 2659145 2607675 2550112 2497522 2460399 2444238 2446737 2461132 
1794.536 2478393 2492490 2501154 2505686 2508386 2510919 2512718 2511052 
1798.393 2502987 2487358 2465864 2443105 2424712 2415250 2415816 2424812 
1802.251 2439173 2456067 2473595 2492023 2511052 2529915 2546779 2559078 
1806.108 2565110 2565077 2561177 2556344 2553411 2553012 2554078 2554211 
1809.966 2551778 2547112 2542946 2542846 2548812 2560777 2575409 2588275 
1813.823 2595442 2596175 2592375 2588542 2589509 2597942 2613575 2634076 
1817.680 2656278 2678081 2699752 2723325 2750933 2783479 2819161 2854180 
1821.538 2884365 2906013 2917188 2918155 2910516 2897341 2882664 2870757 
1825.395 2865787 2870657 2885933 2908915 2934234 2954283 2961922 2953882 
1829.253 2932432 2906480 2887934 2887701 2910917 2954883 3011232 3070091 
1833.110 3123852 3168875 3206225 3239740 3273858 3310883 3350816 3391989 
1836.968 3433366 3475749 3522311 3576496 3640711 3713992 3791964 3868246 
1840.825 3936550 3992792 4036032 4068608 4095265 4122860 4158218 4207096 
1844.682 4273211 4357275 4456754 4565463 4675774 4778508 4864714 4928382 
1848.540 4967091 4982039 4977380 4957706 4925802 4882071 4825010 4753182 
1852.397 4667736 4572227 4472186 4372972 4277661 4185851 4095164 4003058 
1856.255 3909100 3816198 3729431 3653508 3590761 3539682 3496023 3454740 
1860.112 3412760 3369783 3327944 3290116 3257399 3228523 3200517 3170344 
1863.969 3136935 3102160 3068490 3038392 3011800 2985609 2954983 2917588 
1867.827 2874893 2834069 2805555 2798085 2815026 2852513 2901210 2949979 
1871.684 2991181 3021075 3040594 3053040 3060915 3065653 3066020 3060214 
1875.542 3047501 3029383 3008730 2988612 2970663 2954049 2936402 2916087 
1879.399 2893038 2869623 2849911 2836704 2830034 2826665 2821029 2808723 
1883.257 2788814 2764405 2741297 2725459 2719524 2721291 2724625 2722024 
1887.114 2708288 2682516 2648211 2611875 2580443 2558744 2548079 2547146 
1890.971 2553878 2565810 2581176 2598442 2615442 2629376 2638343 2642343 
1894.829 2643977 2647711 2658079 2677115 2703520 2732060 2756435 2772441 
1898.686 2779410 2780511 2781344 2786413 2797018 2811124 2824197 2831968 
1902.544 2833802 2832235 2831268 2834536 2842707 2851846 2856949 2853013 
1906.401 2838772 2817361 2795384 2779044 2772675 2776809 2787880 2801453 
1910.259 2814126 2824564 2833669 2842574 2851345 2858383 2861818 2859917 
1914.116 2852713 2841740 2828433 2812925 2793583 2767272 2731894 2689750 
1917.973 2646544 2611075 2590742 2587709 2597709 2612409 2621576 2618642 
1921.831 2603108 2580342 2558311 2544379 2540946 2545113 2551878 2556044 
1925.688 2556778 2557344 2562944 2577309 2600342 2627476 2651778 2668313 
1929.546 2675948 2677481 2678782 2684116 2693718 2703920 2708721 2703786 
1933.403 2689317 2669613 2650578 2636910 2629009 2623009 2612875 2594842 
1937.260 2570210 2544513 2525816 2518784 2523516 2534014 2541646 2538813 
1941.118 2524083 2501487 2479793 2467230 2467863 2479660 2497955 2517351 
1944.975 2536181 2556044 2579976 2608609 2638410 2661879 2670714 2661379 
1948.833 2636976 2606009 2581142 2572110 2581842 2605842 2635009 2660045 
1952.690 2675448 2680915 2679081 2672580 2661179 2640377 2606175 2557144 
1956.548 2497122 2436274 2387529 2358545 2351915 2362143 2379467 2393959 
1960.405 2402855 2406987 2411485 2420581 2431643 2438840 2434775 2415883 
1964.262 2384897 2351016 2326131 2318369 2329362 2352182 2375635 2391694 
1968.120 2396925 2394959 2392960 2396125 2404421 2413017 2414250 2403621 
1971.977 2382265 2356479 2333626 2319735 2315005 2315604 2320201 2332127 
1975.835 2361476 2423879 2531115 2683416 2867221 3056944 3225219 3351083 
1979.692 3425885 3452970 3444187 3411759 3364206 3305507 3237737 3163802 
1983.550 3090047 3025980 2979471 2954416 2947144 2948912 2949646 2943608 
1987.407 2930931 2917421 2909749 2911150 2917822 2922258 2914819 2891737 
1991.264 2856949 2821329 2798752 2798685 2822863 2864119 2912151 2957352 
1995.122 2994083 3024211 3051806 3079535 3106565 3127790 3136167 3127690 
1998.979 3103228 3068223 3030918 2998120 2970229 2943808 2913485 2875059 
2002.837 2829634 2784212 2746999 2725759 2724392 2740496 2769340 2806822 
2006.694 2850612 2900543 2958319 3020641 3081137 3132496 3166539 3181292 
2010.552 3180357 3171779 3164303 3164336 3171445 3182059 3192273 3199316 
2014.409 3205458 3216006 3235033 3262140 3293922 3321267 3337026 3337827 
2018.266 3326509 3309514 3294156 3283973 3277497 3272188 3265211 3257199 
2022.124 3254728 3265512 3294056 3339530 3392824 3442383 3478120 3496491 
2025.981 3501869 3504875 3516399 3540984 3576796 3615017 3646157 3663299 
2029.839 3667809 3664468 3662797 3669848 3688494 3718770 3759610 3810081 
2033.696 3872057 3946614 4032320 4121589 4204921 4271270 4313869 4334517 
2037.553 4340842 4344791 4356405 4380737 4415011 4452603 4485477 4508008 
2041.411 4521065 4527895 4531947 4535964 4538777 4537973 4531913 4522237 
2045.268 4514402 4515407 4532549 4568075 4621318 4687932 4761390 4835932 
2049.126 4905796 4964611 5005032 5020618 5006607 4963974 4901339 4831242 
2052.983 4771540 4736936 4733821 4758877 4801758 4846587 4881066 4900668 
2056.841 4908343 4913336 4925098 4948859 4984217 5025947 5066709 5100669 
2060.698 5126082 5143685 5155688 5163668 5166719 5163769 5154816 5141874 
2064.555 5129569 5123366 5126484 5138186 5154716 5168932 5174834 5170408 
2068.413 5156258 5135705 5113141 5090276 5067313 5043244 5017902 4992664 
2072.270 4971749 4959718 4959315 4970040 4988943 5010897 5031813 5050183 
2076.128 5066709 5083706 5102446 5122528 5141069 5155319 5163299 5166015 
2079.985 5167155 5170509 5178757 5192103 5208232 5223457 5236133 5246295 
2083.843 5256457 5269771 5287748 5308845 5329608 5344770 5350707 5346380 
2087.700 5333667 5315252 5293718 5269604 5241063 5206421 5165010 5118505 
2091.557 5071738 5031177 5001076 4984352 4980732 4987334 5001814 5022327 
2095.415 5047870 5078074 5112001 5146937 5179629 5207763 5230399 5249213 
2099.272 5267826 5288721 5312770 5339235 5364998 5388044 5409247 5431491 
2103.130 5459540 5497591 5545613 5599815 5653588 5699948 5734260 5756990 
2106.987 5772436 5786505 5804571 5828211 5856219 5885875 5914525 5942202 
2110.844 5971327 6004820 6044162 6088380 6132871 6171250 6198372 6210976 
2114.702 6209329 6196356 6176190 6152328 6128099 6105483 6086027 6071881 
2118.559 6064456 6064523 6071109 6081424 6092580 6102358 6110625 6119563 
2122.417 6132837 6153068 6180156 6211413 6241967 6266875 6283885 6293567 
2126.274 6299282 6304526 6312158 6320832 6327556 6328665 6321538 6306073 
2130.132 6285398 6262976 6242303 6225698 6214203 6208455 6211077 6225597 
2133.989 6254975 6300324 6358588 6422207 6482573 6532218 6568008 6592430 
2137.846 6612413 6633239 6658943 6688317 6716516 6738153 6750672 6754508 
2141.704 6753431 6752086 6752186 6751614 6746331 6731490 6705377 6671863 
2145.561 6634921 6600067 6568580 6536422 6496228 6441443 6369449 6284087 
2149.419 6195179 6112305 6042717 5988593 5943983 5899914 5848697 5783785 
2153.276 5702097 5603205 5486048 5351043 5201358 5046965 4906399 4807152 
2157.134 4779379 4844242 5007646 5249816 5533028 5813704 6051956 6225396 
2160.991 6330447 6376644 6379300 6354957 6315318 6267884 6219615 6176056 
2164.848 6142179 6120571 6109952 6103803 6093319 6070907 6032772 5981472 
2168.706 5922855 5863642 5808600 5756688 5703540 5643652 5575247 5500779 
2172.563 5427532 5366104 5324275 5306196 5311327 5333734 5365836 5400658 
2176.421 5430149 5446790 5444374 5417265 5362817 5285837 5196026 5109051 
2180.278 5040528 5003792 5002317 5031746 5079549 5131011 5174901 5205717 
2184.135 5222115 5227917 5226877 5221043 5211485 5199380 5185732 5174465 
2187.993 5169570 5172889 5183385 5197569 5209607 5215945 5217287 5215911 
2191.850 5217186 5225201 5239085 5255048 5266518 5268698 5260045 5245289 
2195.708 5230633 5224060 5230499 5250252 5280235 5316292 5354330 5392607 
2199.565 5431491 5470009 5506584 5537592 5558332 5565883 5560647 5545982 
2203.423 5526954 5509135 5494705 5483129 5472525 5460782 5448199 5438000 
2207.280 5433604 5437966 5451085 5469304 5487390 5500947 5507927 5509806 
2211.137 5510645 5514470 5523632 5537693 5554741 5571757 5587329 5601594 
2214.995 5614584 5626399 5635361 5637811 5630997 5614315 5590014 5563433 
2218.852 5541015 5527155 5522558 5525007 5529336 5531115 5528464 5522222 
2222.710 5515276 5510812 5509604 5509672 5509068 5504302 5494235 5479941 
2226.567 5463332 5446455 5429914 5412971 5395257 5377443 5362817 5355471 
2230.425 5360100 5378785 5409649 5447730 5486451 5519739 5545076 5563232 
2234.282 5576992 5589981 5604481 5619988 5635327 5649593 5662048 5674367 
2238.139 5689205 5707468 5729291 5752894 5775256 5794262 5809977 5823208 
2241.997 5836439 5852156 5870862 5891920 5914189 5936425 5958393 5981102 
2245.854 6005122 6029983 6054611 6075880 6091538 6101317 6106189 6108340 
2249.712 6111128 6115329 6120134 6124133 6124872 6121949 6117446 6114455 
2253.569 6116135 6124201 6137508 6152530 6165469 6173299 6174745 6170645 
2257.427 6162780 6151690 6137239 6118824 6095201 6068152 6040903 6017620 
2261.284 6002367 5996892 5999344 6005525 6011035 6012614 6010330 6006634 
2265.141 6005324 6008986 6018224 6030218 6041104 6048026 6049470 6046514 
2268.999 6042348 6039727 6039962 6043456 6048362 6053032 6056492 6059013 
2272.856 6061062 6063246 6065363 6066203 6065161 6062574 6059718 6059281 
2276.714 6064456 6076350 6094596 6116875 6139861 6160562 6177904 6191852 
2280.571 6204019 6216253 6229463 6243984 6259715 6276120 6292794 6310376 
2284.428 6328027 6345341 6360875 6372811 6380040 6382932 6382192 6379973 
2288.286 6377989 6376678 6374997 6371735 6365044 6354722 6342147 6329977 
2292.143 6321302 6318747 6323253 6333977 6349914 6368743 6388783 6409362 
2296.001 6429505 6448169 6464580 6478134 6488156 6495623 6501610 6507630 
2299.858 6514693 6522699 6529964 6534774 6535211 6531444 6524582 6517417 
2303.716 6512103 6510657 6512877 6517216 6521757 6524649 6525053 6523909 
2307.573 6522732 6522597 6524885 6529762 6536994 6546210 6557512 6570732 
2311.430 6585904 6602825 6620151 6636233 6649893 6660121 6666850 6671157 
2315.288 6674084 6676608 6679636 6683136 6687106 6691413 6696090 6701205 
2319.145 6706656 6712309 6718063 6724322 6731995 6741283 6752321 6762989 
2323.003 6769350 6766153 6748013 6711232 6655680 6585231 6506352 6427353 
2326.860 6355664 6295718 6248992 6214001 6187617 6167015 6150883 6139188 
2330.718 6132736 6132467 6137878 6147489 6160327 6174980 6191280 6210102 
2334.575 6231648 6255681 6280860 6304896 6325741 6342820 6356471 6368507 
2338.432 6380881 6394499 6409059 6423653 6437037 6448438 6459300 6471071 
2342.290 6485062 6501946 6520680 6539416 6557412 6575139 6595828 6624323 
2346.147 6665134 6721058 6792000 6874735 6963748 7053083 7136272 7208494 
2350.005 7265870 7306270 7328914 7335182 7327971 7310954 7289119 7266645 
2353.862 7246362 7229415 7216344 7206372 7199196 7195693 7196838 7203913 
2357.719 7217624 7236760 7259266 7282380 7303608 7321332 7335856 7347482 
2361.577 7356548 7363557 7367668 7368511 7366894 7364535 7364501 7369825 
2365.434 7382834 7403595 7430761 7461907 7494200 7526159 7557480 7588364 
2369.292 7619285 7650478 7680762 7709699 7736716 7762520 7788764 7817809 
2373.149 7850838 7888762 7930839 7975654 8021690 8068235 8114753 8161816 
2377.007 8210031 8259197 8309417 8360351 8411765 8464029 8517853 8573543 
2380.864 8630862 8689001 8746201 8800635 8851255 8897755 8940945 8982313 
2384.721 9022873 9063504 9104071 9144101 9182646 9219874 9255683 9290412 
2388.579 9324332 9356832 9386761 9413375 9435689 9453704 9468502 9481438 
2392.436 9493935 9506872 9520453 9534339 9548226 9561978 9575493 9589246 
2396.294 9603337 9617294 9631081 9644497 9657405 9671431 9687897 9708464 
2400.151 9734148 9765222 9800703 9839408 9879980 9921844 9964763 10009280 
2404.009 10055667 10104161 10155069 10208256 10264502 10324997 10391100 
2407.384 10463764 10544010 10630723 10722649 10817550 10913627 11009454 
2410.759 11104044 11196784 11286790 11373310 11455256 11531773 11602927 
2414.134 11669395 11731890 11791364 11848156 11901415 11950286 11993610 
2417.510 12030705 12062319 12089607 12113422 12134786 12154072 12170563 
2420.885 12184297 12195814 12206242 12217318 12231222 12248673 12270076 
2424.260 12295026 12322499 12352361 12385635 12423854 12468999 12522368 
2427.635 12584031 12652832 12727035 12804766 12884866 12967542 13053237 
2431.010 13143082 13238172 13339262 13446356 13559869 13679396 13804360 
2434.386 13934424 14067983 14203501 14339848 14475827 14611644 14748634 
2437.761 14888307 15032484 15182269 15337699 15497787 15661230 15826970 
2441.136 15993530 16160874 16328560 16496239 16663985 16831692 16999430 
2444.511 17167680 17337272 17508654 17681898 17856696 18031772 18206158 
2447.887 18379130 18549886 18718428 18884922 19048296 19207576 19361752 
2451.262 19509538 19651234 19788194 19922248 20055546 20189646 20324068 
2454.637 20457488 20588066 20713818 20833904 20948288 21057902 21163158 
2458.012 21263710 21357914 21442914 21516058 21574834 21617702 21644726 
2461.388 21656778 21655210 21641906 21618954 21588520 21553072 21515224 
2464.763 21476858 21439608 21404416 21371662 21342010 21317508 21300734 
2468.138 21295862 21307312 21338354 21391084 21465578 21560208 21672730 
2471.513 21800920 21942916 22097054 22262270 22436410 22617076 22801172 
2474.889 22985832 23168652 23348330 23523780 23694508 23859596 24017290 
2478.264 24164916 24300118 24420358 24523594 24609392 24677530 24728282 
2481.639 24762972 24782336 24787528 24780090 24761430 24732842 24695978 
2485.014 24651788 24600800 24543964 24482018 24415732 24346582 24275554 
2488.390 24203028 24128940 24052484 23971628 23885256 23791586 23689538 
2491.765 23578628 23458586 23329100 23190494 23043096 22886978 22723270 
2495.140 22552856 22376192 22193672 22004886 21809002 21604956 21392094 
2498.515 21170430 20940986 20705720 20466588 20225922 19985978 19748142 
2501.891 19514180 19285678 19063632 18849140 18642640 18443808 18251908 
2505.266 18066244 17886252 17711476 17542670 17380412 17225354 17077758 
2508.641 16937722 16804758 16678791 16559916 16448265 16344454 16248578 
2512.016 16160669 16080374 16007658 15942791 15886011 15837830 15797865 
2515.392 15765360 15739214 15717192 15698090 15682014 15669612 15662845 
2518.767 15663875 15673289 15690774 15714925 15743164 15774088 15807142 
2522.142 15842881 15882505 15927462 15977820 16032171 16088763 16144745 
2525.517 16197881 16246790 16290579 16328800 16361382 16387463 16406147 
2528.893 16417088 16420152 16415369 16403979 16386326 16362827 16333891 
2532.268 16299764 16260721 16218275 16174115 16129822 16087320 16047264 
2535.643 16009275 15973145 15937911 15903402 15870100 15838860 15810098 
2539.018 15784396 15761202 15739832 15719356 15699500 15680021 15661575 
2542.394 15644742 15629424 15614963 15600847 15585667 15568459 15549297 
2545.769 15527627 15504105 15479588 15454283 15429392 15406217 15385861 
2549.144 15369966 15359153 15353729 15352356 15353248 15354313 15353489 
2552.519 15349953 15343672 15335228 15326029 15316899 15308077 15299806 
2555.895 15291775 15283229 15274443 15265348 15256047 15246335 15236349 
2559.270 15225231 15212294 15196955 15178117 15155265 15128367 15097216 
2562.645 15062739 15026414 14989713 14954628 14922461 14893896 14868557 
2566.020 14845790 14825013 14805917 14789461 14776606 14768687 14766596 
2569.396 14769613 14776331 14785005 14793850 14801872 14809585 14817882 
2572.771 14827962 14840681 14855699 14872088 14889267 14906344 14923524 
2576.146 14941494 14961384 14983677 15008475 15035194 15062670 15090594 
2579.521 15118417 15146242 15174652 15204092 15234668 15266824 15300664 
2582.896 15336257 15374223 15414903 15457854 15502731 15548438 15593737 
2586.272 15638148 15681945 15725780 15771305 15819857 15871610 15926603 
2589.647 15984282 16043447 16103825 16165655 16228525 16292471 16356634 
2593.022 16419154 16478103 16532380 16581086 16625253 16666636 16707163 
2596.397 16748279 16791018 16835136 16880018 16925252 16971004 17017486 
2599.773 17065592 17115322 17166542 17218630 17270792 17322410 17373654 
2603.148 17425180 17477642 17531734 17587728 17645250 17704330 17765078 
2606.523 17828042 17894332 17965464 18041582 18122826 18208232 18296594 
2609.898 18386700 18478070 18570152 18663080 18756550 18849938 18942062 
2613.274 19031990 19118580 19201930 19282458 19361162 19438982 19516848 
2616.649 19594592 19671758 19747586 19821174 19891654 19958846 20022512 
2620.024 20082856 20140498 20196138 20250500 20304450 20358652 20413276 
2623.399 20468534 20524076 20579486 20634832 20690290 20746070 20802514 
2626.775 20859628 20916508 20972524 21026774 21078422 21127850 21175858 
2630.150 21223276 21271260 21320188 21369678 21419036 21467248 21513830 
2633.525 21558746 21603110 21647512 21692512 21738388 21784442 21829734 
2636.900 21873636 21915452 21955358 21994184 22032772 22072162 22112952 
2640.276 22155838 22200576 22247622 22297044 22348982 22403544 22460798 
2643.651 22520366 22582068 22645106 22709026 22773656 22838224 22902556 
2647.026 22966516 23029888 23092712 23155440 23218562 23282672 23348434 
2650.401 23416340 23486670 23559004 23633242 23708540 23784446 23860542 
2653.777 23936300 24011756 24086980 24162568 24238520 24315780 24394528 
2657.152 24475146 24557744 24641618 24726316 24811138 24895096 24977528 
2660.527 25058044 25136540 25213012 25288130 25362310 25436012 25510078 
2663.902 25584860 25660216 25736534 25813150 25889214 25964306 26037724 
2667.278 26109006 26178366 26246188 26312928 26379538 26446512 26514518 
2670.653 26583940 26655172 26727720 26801724 26876448 26950900 27025154 
2674.028 27098680 27171796 27245030 27319264 27394710 27471792 27550160 
2677.403 27629002 27707858 27786268 27864092 27942142 28021586 28103056 
2680.779 28187654 28275772 28367476 28462704 28561456 28663524 28769118 
2684.154 28878634 28992074 29109514 29231200 29357174 29487868 29623816 
2687.529 29765516 29913124 30066778 30225818 30389038 30555626 30724412 
2690.904 30894684 31066056 31238672 31412818 31589310 31768550 31951218 
2694.280 32137598 32328024 32521926 32719344 32919672 33122492 33327766 
2697.655 33535358 33745660 33959004 34175644 34395548 34618400 34843552 
2701.030 35070332 35298384 35527092 35756388 35985732 36214696 36442516 
2704.405 36668224 36891228 37110892 37327012 37539272 37747260 37950360 
2707.781 38147872 38338596 38521512 38696356 38863048 39022440 39175620 
2711.156 39323448 39466864 39606588 39742508 39874440 40002304 40125556 
2714.531 40243792 40356096 40461300 40558272 40645948 40723240 40789548 
2717.906 40845236 40891000 40927804 40957480 40981584 41001976 41020292 
2721.281 41038976 41059548 41084500 41115676 41154836 41203248 41262016 
2724.657 41331288 41411320 41501796 41602252 41712244 41831748 41960632 
2728.032 42099004 42246880 42404052 42569576 42742220 42919760 43100116 
2731.407 43281496 43462224 43641636 43819356 43995504 44170328 44343316 
2734.782 44513544 44679948 44841088 44995600 45142848 45282460 45414432 
2738.158 45539268 45657656 45770304 45878080 45982196 46083800 46184836 
2741.533 46286744 46391696 46501324 46617100 46740288 46871668 47011068 
2744.908 47158776 47313708 47474980 47641708 47812608 47986348 48161676 
2748.283 48336668 48509212 48676520 48836000 48984632 49120216 49241000 
2751.659 49346152 49435624 49510112 49570532 49617848 49652916 49675800 
2755.034 49686240 49683712 49666736 49634048 49583936 49515380 49427676 
2758.409 49320648 49194836 49050952 48889432 48710472 48514208 48300188 
2761.784 48068284 47819632 47555380 47278500 46992236 46700588 46406960 
2765.160 46115264 45828624 45549756 45281504 45026764 44787820 44567292 
2768.535 44366912 44187752 44030520 43895084 43780800 43686956 43612876 
2771.910 43557524 43519612 43497380 43488736 43490788 43501116 43516684 
2775.285 43535324 43554920 43573420 43589792 43602212 43609100 43608732 
2778.661 43599392 43579648 43548220 43504672 43448896 43382028 43305400 
2782.036 43221320 43131952 43040108 42947996 42857840 42771252 42689100 
2785.411 42611680 42538656 42469048 42401460 42334136 42264996 42192072 
2788.786 42113716 42028588 41935996 41835872 41728804 41615524 41497240 
2792.162 41375532 41251560 41127444 41005144 40886996 40775608 40673420 
2795.537 40582828 40505088 40441296 40391696 40356132 40334496 40326644 
2798.912 40332680 40353260 40388824 40439624 40505852 40586608 40680808 
2802.287 40787400 40904576 41030528 41164124 41303372 41447192 41594628 
2805.663 41744412 41895964 42048556 42201380 42352912 42501388 42644392 
2809.038 42778892 42902240 43011716 43105384 43182304 43242256 43285524 
2812.413 43312724 43324588 43321180 43303276 43271428 43226628 43170776 
2815.788 43106556 43036668 42964856 42894816 42829828 42773628 42730008 
2819.164 42702588 42695276 42711364 42753516 42823280 42920928 43045304 
2822.539 43194164 43364748 43553568 43757200 43972408 44195676 44423576 
2825.914 44652700 44879848 45101640 45315780 45519948 45712648 45893176 
2829.289 46061068 46217268 46363088 46501068 46634328 46766228 46900464 
2832.665 47040308 47187996 47345708 47515156 47698212 47897248 48115072 
2836.040 48355332 48621444 48917060 49245528 49610832 50017708 50472380 
2839.415 50983712 51561796 52219900 52972836 53835572 54825152 55959856 
2842.790 57257940 58740360 60428648 62342104 64496056 66895688 69530712 
2846.166 72366336 75340544 78364320 81313264 84045760 86413216 88266568 
2849.541 89488392 90001632 89780464 88854224 87301248 85239592 82799232 
2852.916 80118968 77329632 74537272 71831408 69278136 66919804 64782060 
2856.291 62874124 61192608 59723896 58447732 57341076 56378536 55536380 
2859.667 54794104 54132916 53537720 52996384 52498376 52035568 51601532 
2863.042 51191492 50802248 50432484 50082812 49755048 49453148 49182776 
2866.417 48949728 48761072 48623228 48540516 48515436 48547296 48632012 
2869.792 48762260 48927960 49117768 49317868 49515084 49696788 49851776 
2873.167 49972352 50054516 50098468 50107984 50090028 50053696 50007672 
2876.543 49960568 49919160 49888940 49873776 49876564 49898936 49941836 
2879.918 50005664 50090212 50194676 50318476 50460768 50620904 50797448 
2883.293 50988668 51191272 51401424 51614520 51826112 52032504 52232084 
2886.668 52424944 52612624 52798288 52985936 53179400 53382652 53599944 
2890.044 53835572 54094596 54383820 54710320 55083300 55513488 56012584 
2893.419 56594392 57273516 58063676 58977772 60023888 61202452 62502124 
2896.794 63898816 65352044 66804632 68191480 69440584 70482392 71263816 
2900.169 71751072 71937592 71843360 71513296 71009264 70397784 69748376 
2903.545 69123328 68572040 68136016 67844808 67719560 67775592 68023736 
2906.920 68471904 69127368 69996752 71088712 72413816 73983152 75807784 
2910.295 77894528 80242392 82837080 85645832 88618960 91683016 94743864 
2913.670 97699112 100433824 102837656 104819968 106311096 107276984 
2916.563 107719424 107674712 107203696 106380008 105285192 103991608 
2919.457 102557704 101029408 99434072 97786048 96090760 94348784 92560080 
2922.832 90729024 88864712 86983344 85106432 83257016 81459176 79734104 
2926.207 78097712 76560720 75128056 73799368 72569920 71431112 70372536 
2929.582 69381336 68444752 67551176 66689872 65852836 65034264 64230064 
2932.958 63436860 62651688 61871172 61092100 60311952 59529624 58745860 
2936.333 57963208 57185664 56417548 55663068 54926024 54209188 53515760 
2939.708 52849700 52214968 51617168 51062304 50555456 50100848 49700396 
2943.083 49352832 49053588 48795476 48568160 48359592 48158196 47953156 
2946.458 47737008 47507024 47265460 47019592 46780660 46561772 46376396 
2949.834 46235436 46146656 46113424 46134720 46205140 46315752 46455820 
2953.209 46612084 46771100 46920392 47047844 47143932 47201364 47215404 
2956.584 47183932 47107404 46988800 46832660 46645396 46434576 46206984 
2959.959 45969748 45728484 45486872 45247968 45013828 44786168 44566964 
2963.335 44358400 44162516 43981388 43816280 43667536 43534740 43417328 
2966.710 43313968 43223916 43146368 43081088 43027852 42987248 42960396 
2970.085 42949424 42956704 42985084 43037292 43114860 43218060 43345124 
2973.460 43492252 43653616 43820824 43984576 44132988 44253784 44335572 
2976.836 44367940 44344488 44263400 44128660 43948464 43735032 43502472 
2980.211 43263964 43031548 42814540 42619280 42449428 42306376 42189112 
2983.586 42094148 42015632 41945924 41875492 41795044 41696412 41573844 
2986.961 41425064 41250796 41054744 40842144 40618264 40387440 40152708 
2990.337 39914648 39672476 39424736 39169744 38907112 38638296 38366248 
2993.712 38095420 37830900 37576372 37334308 37104504 36884520 36670204 
2997.087 36457652 36242896 36023640 35799272 35570712 35339572 35108020 
3000.462 34878524 34652600 34432168 34218556 34012396 33814064 33623456 
3003.838 33439654 33262048 33089988 32923140 32762252 32607890 32461006 
3007.213 32322098 32191194 32067496 31950292 31838608 31731762 31629436 
3010.588 31531874 31438928 31350486 31266372 31185696 31107808 31031928 
3013.963 30957198 30882944 30809060 30735152 30661966 30590608 30522566 
3017.339 30459618 30403040 30352938 30308380 30267774 30228944 30190404 
3020.714 30151726 30113974 30078958 30048776 30025092 30008052 29997508 
3024.089 29992324 29992218 29997648 30010466 30032478 30065964 30111736 
3027.464 30168880 30234736 30305288 30375820 30441458 30497898 30541620 
3030.840 30570308 30582608 30578378 30558542 30525160 30480658 30427916 
3034.215 30369744 30308166 30245500 30183444 30123776 30068058 30018028 
3037.590 29974076 29935948 29902616 29872162 29842384 29812252 29781628 
3040.965 29751394 29723434 29699734 29681746 29670004 29663796 29661526 
3044.341 29661772 29663050 29664220 29665568 29667448 29670642 29676672 
3047.716 29686748 29701828 29722370 29748024 29777404 29808988 29840610 
3051.091 29870634 29898534 29924800 29950468 29977270 30006774 30039652 
3054.466 30075800 30114542 30154568 30195022 30235232 30275020 30314528 
3057.842 30354464 30395258 30437618 30482544 30530778 30583000 30639672 
3061.217 30700476 30764672 30831184 30899132 30968192 31038938 31112258 
3064.592 31189506 31271574 31358500 31449184 31541954 31634282 31724208 
3067.967 31809978 31890452 31965092 32033752 32096572 32154012 32206752 
3071.343 32255854 32302398 32347370 32391888 32436512 32481394 32526530 
3074.718 32572032 32617782 32663934 32710482 32757108 32803596 32849408 
3078.093 32894510 32939404 32985016 33032350 33082586 33135864 33191622 
3081.468 33248454 33304800 33359036 33410634 33459444 33506364 33552646 
3084.844 33599432 33647624 33698216 33751500 33807980 33868120 33932420 
3088.219 34000644 34072888 34148296 34226016 34305392 34385832 34466640 
3091.594 34547896 34628988 34709268 34788448 34866428 34943300 35019976 
3094.969 35098100 35178792 35263596 35353264 35447160 35544636 35644404 
3098.344 35745016 35845368 35944772 36042824 36139680 36235692 36331184 
3101.720 36427200 36524392 36622976 36723132 36824252 36925320 37025512 
3105.095 37124100 37221268 37317520 37414076 37511604 37610732 37711224 
3108.470 37812032 37912244 38011144 38108296 38203908 38298896 38393904 
3111.845 38489580 38586184 38683824 38782212 38881524 38981516 39081784 
3115.221 39182112 39281992 39381164 39479712 39578096 39677304 39778600 
3118.596 39882612 39989336 40097868 40206464 40313300 40417188 40517820 
3121.971 40616112 40713740 40812736 40914336 41018944 41125988 41234144 
3125.346 41342000 41448576 41553168 41656040 41757944 41859548 41961324 
3128.722 42063668 42166256 42268504 42370228 42470732 42569832 42668408 
3132.097 42767008 42866872 42969468 43075492 43185272 43298592 43414360 
3135.472 43531112 43648080 43764528 43880388 43996016 44111864 44227592 
3138.847 44343096 44457348 44569496 44678992 44786092 44891532 44996740 
3142.223 45102924 45210720 45320632 45432124 45544196 45656004 45767324 
3145.598 45877892 45988348 46099828 46212844 46328580 46447412 46569628 
3148.973 46695460 46824868 46957492 47092744 47229624 47366400 47501296 
3152.348 47631984 47756716 47874644 47985792 48091528 48194880 48298596 
3155.724 48405632 48517880 48635308 48756732 48879456 49000916 49118584 
3159.099 49231424 49339952 49445536 49550104 49655812 49763812 49874892 
3162.474 49988672 50104604 50221940 50340052 50458348 50576676 50694584 
3165.849 50812048 50928904 51044788 51159396 51272320 51382812 51490276 
3169.225 51593812 51693340 51789416 51883088 51976668 52072064 52171064 
3172.600 52274048 52380760 52489180 52596952 52701536 52801240 52895056 
3175.975 52983540 53068036 53150640 53233216 53317536 53404348 53493832 
3179.350 53585176 53677060 53768368 53857964 53945180 54030124 54113436 
3182.726 54195412 54277064 54358320 54439064 54519408 54599320 54679208 
3186.101 54759860 54842180 54926252 55011988 55098496 55183896 55266936 
3189.476 55346196 55421548 55493380 55563268 55632444 55702276 55773928 
3192.851 55847628 55923448 56001016 56079200 56156984 56233012 56305844 
3196.227 56374576 56439316 56500716 56560568 56621340 56684196 56750384 
3199.602 56819524 56890116 56960488 57029100 57095224 57158980 57221308 
3202.977 57283340 57345952 57409444 57473548 57537848 57602088 57665652 
3206.352 57727976 57788948 57847580 57903120 57955332 58004404 58051440 
3209.728 58098104 58146208 58196936 58250772 58306816 58363548 58419644 
3213.103 58474000 58526660 58578608 58631128 58685096 58740856 58797984 
3216.478 58855160 58911204 58965284 59017056 59067160 59116776 59167008 
3219.853 59218996 59273304 59329744 59388168 59448232 59509180 59570744 
3223.229 59632888 59695760 59759596 59824920 59891932 59960056 60029180 
3226.604 60098196 60165896 60232084 60296496 60359156 60420880 60482192 
3229.979 60543096 60603816 60663940 60723344 60782332 60841640 60902176 
3233.354 60964776 61030088 61097324 61165828 61234380 61301956 61368276 
3236.729 61433844 61499308 61565848 61634312 61704964 61777840 61852756 
3240.105 61929172 62006412 62084000 62160612 62235020 62305920 62372360 
3243.480 62433984 62491872 62547624 62603728 62662596 62725560 62793440 
3246.855 62865816 62941372 63018792 63097060 63175388 63253336 63330888 
3250.230 63407680 63483448 63557624 63629584 63698836 63765176 63828544 
3253.606 63889608 63948876 64007044 64064368 64121284 64177552 64232788 
3256.981 64286500 64338252 64388060 64436288 64483560 64530768 64578324 
3260.356 64626464 64674296 64721020 64765328 64805904 64842180 64874076 
3263.731 64901812 64925856 64946792 64965224 64981848 64997280 65012136 
3267.107 65027184 65042808 65058856 65075100 65091184 65106472 65120832 
3270.482 65134572 65148084 65161556 65175220 65188772 65201716 65213920 
3273.857 65225772 65238020 65252000 65268940 65289200 65312536 65337872 
3277.232 65363600 65388828 65413216 65437248 65462060 65488988 65518232 
3280.608 65549828 65582848 65616412 65650180 65684632 65720788 65760344 
3283.983 65804676 65854380 65909520 65969684 66033788 66100956 66170836 
3287.358 66242760 66316604 66392108 66469020 66547224 66627672 66710584 
3290.733 66797600 66889540 66987260 67091152 67201448 67317968 67440824 
3294.109 67570288 67706928 67850816 68002184 68160160 68323664 68491296 
3297.484 68661560 68833480 69006904 69181800 69358936 69539192 69723632 
3300.859 69912792 70108016 70309536 70517816 70732856 70954360 71181528 
3304.234 71413576 71649576 71888760 72130304 72374168 72619776 72867520 
3307.610 73118120 73372424 73631864 73898192 74172248 74454632 74744984 
3310.985 75041992 75344136 75649800 75958160 76268800 76581984 76898056 
3314.360 77216920 77538640 77862776 78189024 78517224 78847456 79179560 
3317.735 79513448 79847584 80180456 80511080 80838640 81163888 81488512 
3321.111 81814576 82143632 82476152 82810656 83144776 83475848 83802160 
3324.486 84122640 84437648 84747568 85052824 85352744 85646000 85930768 
3327.861 86205784 86470792 86725640 86971048 87207312 87433456 87648328 
3331.236 87850320 88037880 88210056 88366416 88506056 88628312 88731664 
3334.612 88814744 88877032 88918952 88942368 88949896 88944368 88926104 
3337.987 88894920 88848288 88783080 88696584 88587152 88454472 88299048 
3341.362 88121928 87922888 87701440 87457160 87189288 86897904 86583864 
3344.737 86248456 85893016 85517880 85123040 84708424 84274448 83822216 
3348.113 83354000 82872448 82380336 81879576 81371520 80856920 80335872 
3351.488 79808672 79275520 78736576 78192200 77642592 77088816 76532472 
3354.863 75976392 75423992 74879488 74346328 73826664 73321352 72829672 
3358.238 72350208 71881912 71424392 70977696 70542952 70120752 69710992 
3361.614 69312608 68923952 68543408 68169432 67801696 67440360 67086124 
3364.989 66740520 66404776 66079968 65767704 65469184 65184808 64914972 
3368.364 64658336 64412536 64174676 63941048 63707812 63472600 63233256 
3371.739 62988332 62737084 62479360 62214944 61944152 61668108 61387548 
3375.115 61103964 60818008 60529268 60237032 59939096 59633156 59317248 
3378.490 58989880 58650240 58298592 57935376 57561192 57176140 56780592 
3381.865 56374500 55957968 55531184 55094436 54648656 54194924 53734688 
3385.240 53269772 52802664 52335120 51868976 51405420 50944664 50486856 
3388.615 50031688 49578960 49128716 48681748 48238276 47799216 47365180 
3391.991 46936528 46513568 46097100 45687400 45284520 44887820 44496032 
3395.366 44107056 43718796 43329820 42940132 42550936 42164720 41783916 
3398.741 41410192 41043816 40683028 40325520 39968336 39609568 39248732 
3402.116 38887036 38526040 38168204 37814744 37466232 37122040 36781588 
3405.492 36443920 36108604 35776248 35447200 35122348 34802092 34486404 
3408.867 34175108 33867760 33564100 33264122 32968216 32677152 32391600 
3412.242 32112234 31839534 31573348 31312950 31057124 30804364 30553530 
3415.617 30303620 30054104 29805688 29559010 29314918 29074188 28837346 
3418.993 28604418 28375932 28152512 27935004 27724916 27523084 27329566 
3422.368 27143542 26962816 26784842 26607682 26429856 26251292 26073468 
3425.743 25897902 25725954 25558046 25393504 25230816 25068190 24904466 
3429.118 24738978 24572504 24406548 24241952 24080046 23921174 23765442 
3432.494 23612740 23463202 23316338 23172600 23031460 22892602 22755394 
3435.869 22619066 22483584 22349086 22216410 22086422 21959784 21836738 
3439.244 21716198 21596702 21476786 21354922 21230688 21104160 20976766 
3442.619 20849756 20723966 20599600 20475896 20351428 20224950 20095556 
3445.995 19963600 19830886 19700014 19574036 19455406 19345226 19242832 
3449.370 19146178 19052312 18958226 18861666 18761464 18657824 18551822 
3452.745 18444708 18337272 18230104 18122756 18014814 17906070 17796422 
3456.120 17686386 17577068 17469294 17363410 17259724 17158028 17057286 
3459.496 16957256 16857250 16757129 16657168 16557334 16457696 16358353 
3462.871 16259449 16160669 16061911 15963210 15864704 15766425 15669338 
3466.246 15573748 15480516 15390186 15302621 15217578 15133993 15050801 
3469.621 14967008 14882443 14796832 14711101 14626139 14542188 14459795 
3472.997 14378959 14298823 14219558 14141505 14064766 13990094 13917488 
3476.372 13846467 13776143 13705282 13633202 13559596 13485421 13411874 
3479.747 13340492 13272094 13207156 13145131 13085676 13028244 12973584 
3483.122 12922652 12876607 12835993 12800398 12768322 12737511 12705745 
3486.498 12671697 12635298 12597538 12560360 12525539 12493961 12466067 
3489.873 12440766 12417376 12394976 12373157 12352498 12333271 12316705 
3493.248 12302968 12292571 12285414 12281597 12281392 12285176 12293560 
3496.623 12307706 12328125 12355532 12390135 12431662 12478922 12530552 
3499.999 12584439 12638129 12690154 12739694 12787363 12835549 12887563 
3503.374 12947298 13018240 13102477 13200530 13311485 13433096 13562057 
3506.749 13696049 13832682 13970350 14108918 14248865 14391392 14537768 
3510.124 14689164 14845687 15006588 15170431 15335262 15499745 15662914 
3513.500 15824392 15984453 16143164 16299490 16452085 16599020 16738327 
3516.875 16869444 16993228 17111188 17225594 17337548 17446322 17548742 
3520.250 17640142 17714822 17768114 17796972 17800460 17779852 17737464 
3523.625 17675998 17597218 17502374 17391104 17263070 17117908 16955982 
3527.000 16778412 16587557 16386120 16177416 15963864 15747495 15529585 
3530.376 15311064 15091555 14871300 14650094 14427220 14201960 13972951 
3533.751 13738830 13498410 13251358 12999087 12744573 12491607 12244650 
3537.126 12007236 11781082 11566719 11363311 11169177 10983490 10805390 
3540.501 10634594 10470654 10312612 10158800 10006873 9854524 9699722 
3543.877 9542062 9381852 9220719 9061102 8905264 8755363 8613389 8479672 
3547.734 8354001 8235390 8121471 8008999 7895409 7777969 7655907 7530677 
3551.592 7405112 7283727 7170563 7068608 6978361 6898737 6826768 6759321 
3555.449 6694038 6629168 6564173 6498785 6432699 6365380 6296223 6224455 
3559.306 6149808 6073293 5996119 5919496 5844667 5771865 5700116 5627842 
3563.164 5552526 5471687 5383180 5285769 5178288 5063055 4943698 4826283 
3567.021 4719216 4630293 4564827 4523978 4504626 4500140 4501814 4501078 
3570.879 4491168 4467533 4428902 4375582 4310589 4237576 4160025 4081451 
3574.736 4004530 3931300 3863097 3801156 3745506 3695745 3651236 3610774 
3578.594 3573155 3537978 3504841 3473845 3445356 3419707 3396330 3374124 
3582.451 3351250 3324272 3290484 3246149 3187800 3113040 3021475 2914819 
3586.308 2798819 2682582 2576776 2492290 2436674 2412051 2415083 2437974 
3590.166 2471296 2505586 2532848 2547712 2547312 2531515 2501787 2461265 
3594.023 2413717 2362776 2311840 2263143 2218347 2178051 2143120 2113453 
3597.881 2090013 2073733 2066275 2069438 2084753 2112987 2153309 2204026 
3601.738 2261244 2320435 2377501 2427478 2466197 2490124 2495356 2478927 
3605.595 2438274 2372337 2282128 2171724 2048731 1922411 1803148 1699452 
3609.453 1615236 1550189 1499681 1457191 1417631 1377244 1335464 1294353 
3613.310 1257499 1227294 1205032 1189183 1176691 1163435 1145528 1120247 
3617.168 1086198 1044214 997053 949366 907760 877579 863602 866922 885614 
3621.507 914700 948137 979552 1003994 1018773 1022526 1015485 997717 968028 
3625.847 924063 862041 779016 676095 560525 448336 359586 311405 310643 
3630.187 350434 414936 485784 548250 593736 619285 627216 622869 613114 
3634.526 602761 594533 588295 582489 574957 565004 553060 541018 531032 
3638.866 524596 522407 524231 529141 536307 545364 556245 568355 580631 
3643.205 590883 595230 589854 570876 535312 482766 414538 334716 249372 
3647.545 165436 89835 28463 -14081 -34391 -30184 -994 50863 120425 199247 
3652.367 277586 345858 395203 419779 417490 390991 347682 299005 258522 
3656.706 236044 236111 256864 291710 332362 371525 403926 427241 441636 
3661.046 448999 452150 453742 455600 458452 462399 466910 472184 478586 
3665.385 486945 497825 510730 523767 534316 540653 544733 555051 587267 
3669.725 662821 802153 1015718 1301099 1644038 2026060 2427911 2833369 
3673.583 3228256 3592766 3898936 4112123 4196892 4132628 3922808 3592098 
3677.440 3175217 2708621 2228038 1764954 1348260 1001669 736265 550307 
3681.297 429795 354811 305238 266612 231735 199015 169579 142798 115222 
3685.637 80490 31544 -36081 -121551 -217636 -311414 -387859 -436123 -452044 
3689.977 -438506 -403021 -354488 -300057 -245222 -194088 -149441 -113634 
3693.834 -88458 -74478 -71596 -78255 -91771 -108765 -125957 -140730 -152091 
3698.174 -160405 -167493 -175773 -188061 -205283 -226379 -247904 -263964 
3702.031 -268104 -256249 -226743 -182960 -130925 -78520 -33331 -1126 14976 
3706.371 14247 -2219 -32238 -73153 -123042 -179284 -238665 -297375 -349953 
3710.710 -390706 -414342 -417486 -399479 -363063 -313103 -255587 -196937 
3714.568 -143347 -99291 -68648 -53210 -53210 -66163 -87862 -113568 -138875 
3718.907 -161200 -180178 -196738 -212767 -228564 -243665 -255951 -262938 
3722.765 -263435 -258269 -249891 -241513 -236181 -234459 -235088 -234658 
3726.622 -229690 -217536 -198129 -174183 -150634 -132515 -125062 -131952 
3730.479 -155304 -194519 -247043 -308666 -374650 -440657 -504371 -563740 
3734.337 -616054 -657841 -682389 -683414 -656452 -602720 -528166 -443140 
3738.194 -358527 -282740 -221543 -176833 -148680 -136590 -142154 -168586 
3742.052 -221875 -306944 -423809 -560597 -692016 -786386 -817475 -780797 
3745.909 -692578 -581642 -475776 -395936 -354853 -355647 -391931 -449992 
3749.767 -513439 -567314 -602224 -616154 -610727 -588624 -552092 -503544 
3753.624 -446450 -385939 -328797 -281382 -248798 -233333 -234161 -247407 
3757.481 -267210 -287872 -304660 -313997 -313368 -301017 -275819 -238400 
3761.339 -191969 -142188 -96442 -61956 -44463 -45755 -63678 -92036 -122777 
3765.678 -148812 -166400 -176204 -182298 -189187 -200149 -215218 -231677 
3769.536 -244659 -249063 -242175 -223795 -196341 -163253 -128176 -94024 
3773.393 -62055 -33331 -7918 14247 32472 46091 53382 52719 42380 22366 -5864 
3778.697 -37936 -68184 -89916 -98562 -93295 -76764 -54502 -33033 -17328 
3783.037 -9741 -9675 -13916 -18422 -19515 -15937 -8681 -397 5367 6229 861 
3788.341 -10337 -26141 -43966 -60896 -74180 -80806 -78255 -65799 -44529 
3792.680 -17958 8482 28463 36581 29987 9807 -18885 -48671 -70834 -80243 
3797.502 -76102 -63215 -49499 -44629 -56788 -91175 -145964 -211939 -274925 
3801.842 -319096 -334061 -319526 -284097 -240983 -203925 -183954 -186140 
3805.699 -208495 -241347 -270422 -281283 -265190 -222868 -162591 -96376 
3809.557 -34491 16964 56497 86422 110681 131462 148996 159470 157348 137163 
3814.378 96861 40060 -23723 -80077 -116318 -126288 -113469 -88359 -64904 
3818.718 -56721 -72888 -116417 -181635 -254659 -316116 -347403 -339193 
3822.575 -293965 -223332 -142618 -66726 -6328 33433 52852 57027 53216 49173 
3827.397 49306 54078 60440 64019 61037 50002 32108 11232 -7355 -19614 -23126 
3832.701 -18157 -6626 7885 21140 29490 29424 17925 -6162 -42177 -86868 
3837.523 -134006 -175972 -206475 -221577 -221842 -210880 -193790 -176038 
3841.380 -160968 -149706 -140598 -131124 -117079 -95680 -65335 -26340 19019 
3845.720 67167 113962 155327 188407 211579 224110 226497 218739 199413 
3850.060 165403 110946 29722 -83357 -227273 -390607 -550405 -674780 -738261 
3854.399 -731480 -664458 -557685 -433375 -309030 -194883 -96806 -17328 42645 
3858.739 82843 103456 105014 90034 62362 26806 -11199 -46948 -77758 -102802 
3863.561 -121816 -133774 -136954 -129004 -108666 -77791 -41713 -8581 12359 
3867.900 13883 -7156 -47279 -96972 -141823 -168851 -172262 -155138 -126288 
3872.240 -96376 -73783 -61757 -59007 -59438 -56224 -44198 -22364 6096 35686 
3877.062 59579 72536 72072 58319 34759 7521 -16202 -29819 -29422 -14744 
3881.883 10536 40392 67068 84599 88344 77341 54972 28562 7587 -563 7620 
3887.187 29092 56861 81716 95270 92321 71310 35322 -7653 -46749 -72060 
3892.009 -76367 -57450 -17759 37211 100706 166861 229944 285212 328681 
3896.349 356635 366219 355541 324702 276757 216618 151714 89537 35819 -6096 
3901.170 -36810 -58510 -74445 -86305 -94024 -94786 -85113 -62188 -25678 
3905.510 22167 76181 130236 179358 219402 249007 268866 280736 287731 292340 
3910.332 296584 301558 307360 313660 319397 323342 323906 319595 309250 
3914.671 292572 270822 246156 222320 203126 191424 188606 193943 205347 
3919.011 220264 237304 255604 275099 295755 316512 335014 347980 352324 
3923.351 346156 330405 308720 286869 270457 263628 267241 278713 293368 
3927.690 306465 313992 314456 308090 297413 285212 273740 265319 261340 
3932.030 262600 269993 283653 303216 326857 351429 373017 387741 393081 
3936.369 388405 375272 356668 336473 317540 301889 289356 279177 270259 
3940.709 262235 256201 253416 256069 265352 281299 302055 325365 347814 
3945.049 366186 378356 382866 379152 367379 349306 326957 302950 280305 
3949.388 261506 248510 242608 244133 252753 267971 288295 312500 338861 
3953.728 365323 389963 411222 428170 440906 450094 457092 463029 468469 
3958.067 473378 476331 476264 472151 463593 451586 437888 424853 414837 
3962.407 409796 410360 416363 426744 439745 453510 466877 478818 489168 
3966.747 498224 506848 515440 524331 533089 541283 547852 551899 553525 
3971.086 553027 551302 549577 548714 549212 550838 553359 556411 559729 
3975.426 563743 568720 575289 583716 593902 605349 617427 629207 640290 
3979.765 650311 658707 665277 669724 671682 671317 668695 664082 657844 
3984.105 650311 641650 631496 620214 608137 596159 585409 577081 572237 
3988.445 571606 574924 581560 590949 601899 613744 625789 637336 648154 
3992.784 656948 663087 665742 664348 659304 651041 640721 629339 618323 
3997.124 608502 600671 595296 592409 591746 592973 595097 597320 
##END=
