##TITLE=Z327c_1_a
##JCAMP-DX=5.01  $$ Nicolet v. 1
##DATATYPE=INFRARED SPECTRUM
##ORIGIN=UniL
##OWNER=Nicolet
##LONGDATE=2011/09/28
##TIME=13:49:41
##SPECTROMETER/DATA SYSTEM=Nicolet iS5
##DATA PROCESSING=
Ratio against background
%Transmittance->Absorbance
Truncated
ElementMultiply or ElementDivide
##COMMENTS=
Number of sample scans: 32
Collection length: 51.18 sec
Sample gain: 2.0
Background collected on: Mer Sep 28 13:46:46 2011 (GMT+02:00);
Number of background scans: 32
Background gain: 2.0
Sample spacing:  1.000
Number of scan points: 12415
Resolution points: 8192
Number of FFT points: 65536
Apodization: N-B fort;
Phase correction: Mertz;
Laser frequency: 15798.0 cm-1
Number of rejected sample scans: 0
Number of rejected background scans: 0
Bench serial number: ASB1000141;
##RESOLUTION=4.000
##XUNITS=1/CM
##YUNITS=ABSORBANCE
##FIRSTX=649.893372
##LASTX=4000.122314
##FIRSTY=0.115734
##MAXX=4000.122314
##MINX=649.893372
##MAXY=0.281481
##MINY=-0.005382
##XFACTOR=1.000000
##YFACTOR=1.000000E-009
##NPOINTS=6950
##DELTAX=0.482117
##ZPD=6100
##XYDATA=(X++(Y..Y))
649.893 115734128 114965696 114278576 113715144 113290344 112997208 
652.786 112820120 112748072 112782704 112935616 113215128 113617424 
655.679 114118848 114685184 115284408 115902800 116550328 117256936 
658.571 118057912 118974880 120012928 121161320 122408096 123752528 
661.464 125210208 126802608 128541440 130411208 132368952 134349664 
664.357 136294224 138162960 139931088 141582512 143083344 144358976 
667.250 145303616 145817808 145873840 145537216 144926448 144140144 
670.142 143218048 142149776 140904256 139463920 137846704 136110656 
673.035 134333456 132594392 130942272 129388776 127920360 126517592 
675.928 125174136 123901824 122721856 121650008 120682624 119795320 
678.820 118950344 118110584 117255160 116383088 115508624 114648344 
681.713 113812800 112999608 112198160 111396256 110589888 109783272 
684.606 108987856 108214120 107466000 106739968 106028888 105327296 
687.498 104636272 103961552 103309472 102681120 102068640 101457320 
690.391 100831392 100183120 99515776 98844328 98187552 97561920 96975752 
693.766 96429960 95922744 95457240 95045552 94709288 94473680 94358128 
697.141 94372128 94511080 94760760 95102552 95521272 96008296 96561048 
700.516 97178152 97855240 98580312 99336016 100101920 100859312 101596216 
703.890 102305808 102985016 103630216 104236096 104796176 105307112 
706.783 105771632 106199632 106605304 107003264 107403576 107811776 
709.676 108232576 108676232 109163080 109725336 110399336 111212888 
712.569 112174736 113264664 114432200 115602840 116699632 117654440 
715.461 118422472 118991088 119375880 119616272 119763720 119882344 
718.354 120042200 120310936 120755864 121428824 122353248 123513088 
721.247 124841240 126225264 127505048 128508480 129079896 129100856 
724.139 128528968 127403872 125849856 124040232 122172608 120430672 
727.032 118938152 117758800 116893880 116302792 115924480 115700352 
729.925 115588560 115562232 115604904 115703328 115840064 115995576 
732.817 116153576 116305736 116455352 116614120 116795408 117005832 
735.710 117241096 117486952 117726216 117945440 118140936 118318472 
738.603 118489848 118665856 118851576 119045008 119240392 119432416 
741.496 119618936 119802440 119986328 120172520 120360064 120545896 
744.388 120729008 120913328 121107496 121322472 121564296 121829592 
747.281 122103608 122365144 122593360 122774872 122909584 123008400 
750.174 123088104 123162288 123238136 123314368 123385888 123448896 
753.066 123504896 123560872 123625568 123704856 123798256 123899000 
755.959 123998216 124089704 124172560 124252384 124336776 124432784 
758.852 124542240 124663064 124790320 124920048 125050824 125183072 
761.744 125317336 125451432 125579984 125697776 125803200 125903608 
764.637 126016792 126172144 126406224 126754864 127249200 127903912 
767.530 128709224 129620360 130554840 131399680 132014824 132271080 
770.423 132078424 131412400 130332872 128976392 127533928 126188008 
773.315 125081944 124284544 123779624 123483104 123273304 123036072 
776.208 122680064 122153600 121438816 120531600 119426040 118107232 
779.101 116550064 114731400 112640872 110287416 107700232 104923904 
781.993 102016208 99038120 96051784 93121304 90301112 87637088 85161736 
785.368 82890888 80827424 78964984 77293640 75803400 74486608 73337432 
788.743 72349192 71513448 70820216 70258192 69818256 69495520 69290104 
792.118 69206240 69250624 69430784 69752968 70221584 70838856 71605144 
795.493 72517760 73571504 74758408 76069664 77498200 79045232 80725264 
798.867 82572120 84635336 86979944 89669416 92742432 96189408 99923552 
802.242 103773712 107461760 110642896 112962480 114089640 113819816 
805.135 112118032 109141952 105205144 100712720 96086920 91643528 87563712 
808.510 83873744 80477664 77213640 73922896 70514696 66981652 63400700 
811.885 59891288 56589028 53602120 50990532 48771004 46921576 45399936 
815.259 44153272 43132316 42294432 41602212 41026120 40542772 40133952 
818.634 39788008 39498432 39261352 39074096 38934256 38839168 38786776 
822.009 38777248 38811848 38892580 39020192 39193136 39408012 39660564 
825.384 39947668 40269312 40627720 41026192 41466184 41946360 42463164 
828.759 43013400 43598772 44229576 44927284 45726604 46670408 47808944 
832.133 49194500 50867956 52850448 55123776 57620096 60200948 62658840 
835.508 64750596 66203436 66782332 66347016 64875380 62484220 59394280 
838.883 55904980 52314864 48875452 45778660 43125512 40944264 39208800 
842.258 37862896 36839108 36069720 35500196 35084308 34784824 34575236 
845.633 34435648 34352908 34319664 34330604 34380272 34461656 34565976 
849.008 34684788 34812824 34948796 35095768 35258456 35441588 35647244 
852.382 35874808 36122504 36389728 36678604 36994552 37344164 37734324 
855.757 38169900 38654596 39191504 39785936 40446316 41184672 42016580 
859.132 42958532 44029860 45252860 46652476 48258604 50099172 52191164 
862.507 54528272 57067940 59724844 62363140 64821676 66930972 68536144 
865.882 69539224 69910064 69700528 69029400 68074464 67043632 66129044 
869.256 65504284 65298400 65585120 66396392 67721992 69521336 71722736 
872.631 74227088 76912176 79616712 82157888 84344808 85983104 86920728 
876.006 87065976 86402544 84993552 82968576 80507056 77794128 75009152 
879.381 72302776 69771840 67467528 65393456 63519612 61796868 60175412 
882.756 58622064 57125492 55699224 54373640 53188128 52177416 51363348 
886.131 50753316 50340200 50108320 50038452 50113896 50322044 50654076 
889.505 51104048 51667808 52342744 53129068 54031328 55059908 56229352 
892.880 57558352 59067884 60776884 62703132 64858264 67242840 69837360 
896.255 72592240 75422328 78192392 80733080 82859208 84382200 85160368 
899.630 85116632 84253928 82653552 80461472 77870544 75074608 72263016 
903.005 69597640 67191392 65120556 63422636 62104068 61153320 60548316 
906.379 60265696 60283016 60582332 61150420 61977060 63055300 64381100 
909.754 65952560 67769632 69832264 72135304 74663960 77386800 80249448 
913.129 83180848 86093664 88895776 91512360 93892072 96021112 97923816 
916.504 99661464 101320520 102989888 104751984 106653976 108690960 110790912 
919.879 112813200 114568528 115827264 116380840 116084832 114896104 
922.771 112904120 110329832 107519088 104864464 102778000 101632848 
925.664 101677648 103020848 105586944 109134024 113250128 117411440 
928.557 121097776 123816552 125219448 125153136 123646448 120882296 
931.450 117119152 112650488 107734192 102573568 97334672 92143224 87106912 
934.824 82333240 77919032 73953216 70511224 67641104 65368920 63699944 
938.199 62623248 62115156 62138516 62641732 63545236 64739132 66093392 
941.574 67450616 68653720 69571040 70101056 70196888 69867096 69172552 
944.949 68210288 67094208 65944888 64860916 63915400 63153044 62588072 
948.324 62213680 62008244 61945644 61998040 62139356 62347724 62602348 
951.698 62884232 63177988 63471712 63759536 64042136 64324840 64615808 
955.073 64922632 65250612 65602236 65978096 66378444 66804320 67257808 
958.448 67740544 68252352 68790816 69351128 69928240 70518864 71121888 
961.823 71739032 72373072 73026456 73699832 74392576 75103480 75832672 
965.198 76581472 77353144 78150144 78973928 79823640 80697096 81592696 
968.573 82510528 83452928 84424448 85428688 86467640 87540648 88645664 
971.947 89781040 90947576 92149408 93392824 94684400 96028632 97427128 
975.322 98879984 100386896 101949504 103571792 105259568 107018568 108853600 
978.697 110768720 112770152 114868384 117080408 119429920 121942952 
981.590 124643416 127549216 130667600 133994240 137510560 141184848 
984.482 144963728 148765136 152481792 155968944 159056080 161576288 
987.375 163370832 164325584 164390112 163582144 161989760 159753136 
990.268 157064208 154133408 151167728 148368784 145896528 143866304 
993.160 142349856 141371504 140920944 140964576 141461168 142367888 
996.053 143646480 145266864 147201008 149421488 151902176 154614688 
998.946 157530032 160619312 163844976 167156992 170489856 173751648 
1001.839 176835440 179633008 182039792 183981888 185423024 186370160 
1004.731 186871168 187010336 186905520 186686464 186493584 186465952 
1007.624 186715712 187330432 188362144 189826688 191713008 193992096 
1010.517 196630608 199592944 202845824 206356736 210085648 213986624 
1013.409 218011568 222110528 226240624 230363872 234434560 238389264 
1016.302 242130960 245516032 248376288 250530992 251819424 252145920 
1019.195 251498080 249965040 247721072 245025552 242191952 239530560 
1022.087 237350864 235908944 235375056 235840992 237304688 239690496 
1024.980 242858688 246638992 250855920 255324816 259876304 264348688 
1027.873 268574240 272396896 275671808 278275584 280129568 281196896 
1030.766 281480576 281009888 279828640 277986176 275531072 272516992 
1033.659 269001280 265038256 260678000 255956448 250896304 245514400 
1036.552 239835024 233900832 227784400 221581248 215399808 209356848 
1039.446 203554368 198078288 192998208 188356720 184171312 180424544 
1042.339 177061376 173981984 171046512 168104112 165001584 161619984 
1045.232 157903120 153862464 149580240 145184784 140841568 136718368 
1048.125 132959440 129687128 126980560 124877680 123382416 122468232 
1051.018 122089032 122183720 122690920 123550344 124704560 126102776 
1053.911 127691296 129405928 131173328 132899672 134475728 135793488 
1056.804 136745088 137241056 137223776 136668704 135592480 134051576 
1059.697 132147592 130015896 127810864 125707192 123867488 122431112 
1062.590 121513536 121187728 121489744 122419608 123945768 126005944 
1065.483 128505392 131330136 134336928 137362112 140246912 142833888 
1068.376 144990928 146627072 147686288 148150960 148031344 147359136 
1071.269 146178000 144536784 142490368 140093136 137398416 134463760 
1074.162 131349056 128123296 124872568 121692808 118692032 115986448 
1077.055 113679456 111862760 110606048 109946400 109889296 110402504 
1079.948 111419160 112829144 114484080 116216008 117830552 119142592 
1082.842 120006248 120325616 120084920 119346744 118249856 116978328 
1085.735 115734952 114728896 114132304 114076368 114643680 115857672 
1088.628 117688328 120050928 122824808 125850664 128947632 131944704 
1091.521 134676464 137005568 138834944 140096384 140754512 140800688 
1094.414 140248560 139131264 137497552 135413664 132956056 130208000 
1097.307 127264024 124218336 121163640 118188520 115358600 112712384 
1100.200 110252432 107944824 105724256 103507328 101219696 98806768 96254128 
1103.575 93590896 90889240 88251184 85785976 83606104 81805768 80450896 
1106.950 79584112 79220480 79353192 79958456 81000712 82435768 84208440 
1110.326 86259536 88521096 90912728 93348872 95730968 97949096 99898272 
1113.701 101476616 102600624 103219320 103313504 102898968 102018352 
1116.594 100737664 99133856 97283800 95265048 93143440 90969592 88781088 
1119.969 86599472 84434712 82291744 80174800 78093944 76067928 74122336 
1123.344 72288768 70600960 69087432 67771376 66668196 65785556 65126912 
1126.720 64693980 64488524 64513392 64771324 65262200 65979636 66908056 
1130.095 68021480 69278560 70626296 72001448 73329312 74537904 75563792 
1133.470 76361152 76914392 77240440 77390008 77433608 77455664 77539392 
1136.845 77747000 78117104 78654040 79330208 80086296 80839480 81499664 
1140.221 81969568 82163168 82016232 81484512 80550920 79220440 77516664 
1143.596 75476496 73145800 70580920 67840592 64987428 62087096 59198412 
1146.971 56376612 53669748 51113736 48735940 46553988 44575992 42803972 
1150.346 41234800 39862344 38678032 37671692 36832584 36148828 35609480 
1153.722 35205560 34930268 34779868 34752660 34848188 35065916 35405964 
1157.097 35868004 36453256 37164056 38004200 38977568 40086968 41333076 
1160.472 42713372 44221720 45847444 47575636 49383200 51237796 53099672 
1163.847 54917412 56633876 58193108 59538328 60621456 61405904 61865172 
1167.223 61987452 61774864 61243996 60422900 59349380 58069012 56627192 
1170.598 55069724 53440580 51777056 50113636 48481088 46904412 45406668 
1173.973 44007564 42721964 41561996 40535428 39646264 38895880 38284460 
1177.348 37811384 37476560 37280148 37222384 37303760 37524784 37886864 
1180.724 38393000 39047492 39856244 40825364 41959392 43261068 44729712 
1184.099 46360284 48140724 50048120 52048192 54086940 56092964 57984524 
1187.474 59667212 61050872 62061332 62643380 62772804 62457360 61736856 
1190.849 60675064 59352076 57859316 56281780 54697772 53175168 51765448 
1194.225 50508780 49434876 48562340 47902020 47456276 47219280 47175364 
1197.600 47298192 47552716 47891180 48257904 48594692 48838668 48932076 
1200.975 48827840 48490280 47903276 47071880 46023304 44801192 43462040 
1204.350 42070420 40684920 39358092 38131444 37030632 36070008 35253284 
1207.726 34577100 34033680 33612432 33301972 33089306 32960888 32905232 
1211.101 32911882 32974936 33092632 33266448 33499814 33795552 34155000 
1214.476 34576740 35056652 35588116 36162688 36769760 37395444 38024456 
1217.851 38639456 39222836 39759900 40239064 40653048 40998808 41276520 
1221.227 41489152 41642068 41743828 41806904 41846488 41882096 41933588 
1224.602 42019168 42153876 42346260 42598228 42905092 43257268 43641744 
1227.977 44043028 44447068 44841784 45219652 45579928 45929196 46281472 
1231.352 46655540 47074576 47562844 48142684 48837036 49667740 50656120 
1234.728 51825292 53197524 54792936 56628172 58713692 61053088 63642552 
1238.103 66471764 69523048 72769528 76176904 79701176 83289568 86889648 
1241.478 90448480 93917656 97258272 100435080 103415952 106170600 108666360 
1244.853 110868616 112742576 114249912 115351040 116007480 116181840 
1247.746 115845640 114984440 113600384 111712872 109354448 106567824 
1250.639 103397368 99890936 96102584 92090712 87924792 83685432 79453880 
1254.015 75315360 71351168 67627512 64201100 61111020 58376436 55998944 
1257.390 53961200 52231036 50760536 49492620 48366000 47314560 46278928 
1260.765 45211052 44075700 42857364 41557908 40195156 38795944 37392664 
1264.140 36017804 34697784 33453074 32297506 31237746 30276404 29411774 
1267.516 28639774 27953592 27345764 26809268 26338346 25929836 25582434 
1270.891 25296314 25071488 24907518 24803140 24757290 24769532 24840362 
1274.266 24970544 25159924 25405062 25698638 26028190 26375420 26719052 
1277.641 27033158 27289872 27463532 27531238 27478358 27301234 27008618 
1281.017 26620366 26162390 25664400 25152584 24645686 24156578 23691604 
1284.392 23254916 22851844 22489864 22179062 21930960 21754724 21657578 
1287.767 21643856 21716094 21877470 22132060 22484596 22939372 23497616 
1291.142 24156122 24905624 25730136 26608142 27508716 28394570 29224146 
1294.518 29951782 30537710 30954244 31190216 31255550 31178930 31005594 
1297.893 30784944 30567072 30396892 30307422 30321776 30451834 30697170 
1301.268 31044774 31467210 31925860 32370682 32747280 33008396 33114660 
1304.643 33044436 32794338 32377820 31820956 31157642 30427278 29668264 
1308.019 28915996 28203000 27553304 26983478 26502014 26110098 25804428 
1311.394 25580536 25435310 25367616 25377978 25466720 25632520 25872088 
1314.769 26181640 26558296 27001776 27514224 28098038 28753966 29478754 
1318.144 30264078 31098660 31970084 32866382 33777216 34692432 35599048 
1321.520 36480064 37311884 38064564 38707260 39209272 39547028 39710560 
1324.895 39707108 39564772 39328272 39059960 38828588 38696468 38716568 
1328.270 38918924 39308320 39865288 40553836 41331616 42156508 42997600 
1331.645 43836436 44665956 45487384 46306428 47130300 47964664 48814232 
1335.021 49680372 50560780 51447568 52326524 53178500 53978948 54701680 
1338.396 55322484 55818988 56174932 56380764 56434300 56340848 56112528 
1341.771 55768128 55330648 54826616 54285812 53737052 53206404 52716124 
1345.146 52280552 51907096 51596908 51345748 51143968 50976036 50821132 
1348.521 50651132 50433932 50140788 49749064 49250944 48656212 47994636 
1351.897 47312048 46663544 46112244 45716628 45524952 45571504 45868060 
1355.272 46400916 47127532 47984352 48890580 49756828 50504312 51066588 
1358.647 51398328 51480168 51317220 50939040 50394228 49753228 49101776 
1362.022 48527660 48118140 47937020 48011252 48325632 48825284 49428344 
1365.398 50031724 50532976 50837412 50863972 50565024 49930532 48995760 
1368.773 47831436 46535252 45213732 43955908 42832204 41886076 41135092 
1372.148 40581080 40217908 40039400 40041076 40219148 40565180 41060572 
1375.523 41677412 42383740 43147468 43945236 44763984 45599984 46458064 
1378.899 47349476 48291968 49308028 50426044 51675832 53077656 54630620 
1382.274 56297168 58001376 59622168 61008392 62009776 62479208 62307680 
1385.649 61447204 59933732 57901072 55558972 53167264 50955732 49077888 
1389.024 47602808 46520020 45772732 45282056 44971452 44771072 44618548 
1392.400 44463104 44260500 43976400 43593348 43112336 42554156 41948696 
1395.775 41325568 40703332 40087400 39476624 38872324 38286264 37745668 
1399.150 37287368 36946676 36748376 36698904 36789952 37003968 37323404 
1402.525 37733888 38225400 38792788 39432176 40138824 40905852 41723916 
1405.901 42582000 43470024 44380268 45308428 46253608 47216216 48196588 
1409.276 49193720 50204536 51225232 52252600 53284420 54318476 55349396 
1412.651 56364804 57345348 58266648 59103604 59840968 60477284 61027920 
1416.026 61520800 61992844 62484104 63029824 63659588 64389972 65217772 
1419.402 66118048 67046836 67951816 68780680 69492096 70062000 70483512 
1422.777 70773960 70973560 71142928 71344096 71624104 72002040 72465528 
1426.152 72981960 73512472 74028144 74513904 74970208 75410040 75855360 
1429.527 76334480 76878000 77522288 78304000 79251536 80380200 81684024 
1432.903 83139920 84710600 86360824 88068680 89826224 91642704 93533352 
1436.278 95508472 97557392 99650792 101752360 103827200 105845824 107775856 
1439.653 109580104 111201880 112567952 113603096 114228312 114376576 
1442.546 114001696 113079096 111613672 109642752 107243640 104524856 
1445.439 101609656 98636160 95731256 93005048 90551360 88432008 86671192 
1448.814 85250672 84120960 83217688 82484528 81893896 81451856 81192336 
1452.190 81154752 81362776 81802168 82420032 83120776 83781952 84276896 
1455.565 84485264 84342520 83880776 83251240 82666184 82308760 82287144 
1458.940 82625904 83306792 84299792 85573928 87093392 88804176 90634712 
1462.315 92479800 94197992 95638040 96648336 97126056 97055912 96521152 
1465.691 95672856 94666800 93635000 92659448 91778784 91007392 90339696 
1469.066 89750928 89190136 88575368 87797176 86728752 85272128 83400888 
1472.441 81193288 78810856 76438536 74217768 72213864 70439672 68888768 
1475.816 67562360 66478408 65659268 65108968 64801752 64680256 64673296 
1479.192 64707100 64726212 64702520 64633228 64537420 64445124 64391820 
1482.567 64411232 64537840 64813212 65283188 65997376 67000092 68314976 
1485.942 69931504 71791256 73792736 75781584 77561296 78922192 79643104 
1489.317 79538864 78511544 76578512 73886248 70661152 67156624 63578144 
1492.693 60051628 56644252 53372084 50236300 47258072 44485500 41998552 
1496.068 39891436 38239152 37073900 36379028 36108928 36206840 36621572 
1499.443 37313148 38244688 39377100 40668580 42069252 43526464 44990748 
1502.818 46402724 47693220 48776492 49526224 49782060 49365752 48136392 
1506.194 46086784 43406672 40440572 37522184 34852564 32480608 30364804 
1509.569 28442362 26670076 25032036 23537700 22205738 21046910 20060022 
1512.944 19230122 18536780 17959560 17482782 17094266 16781616 16531691 
1516.319 16332757 16177004 16065245 16003739 15998205 16047332 16139518 
1519.695 16253911 16369777 16476624 16584700 16721901 16921152 17200808 
1523.070 17555642 17963738 18398348 18841874 19289316 19751680 20248208 
1526.445 20798658 21411934 22083876 22801484 23551450 24326398 25126218 
1529.820 25957132 26827242 27742716 28707768 29724854 30796148 31923402 
1533.196 33105220 34333004 35587936 36845240 38079068 39268100 40391764 
1536.571 41430900 42369420 43187648 43868476 44398916 44774340 44997840 
1539.946 45078516 45033712 44883524 44650608 44354948 44007936 43609140 
1543.321 43146148 42605648 41981944 41289672 40562020 39842372 39165684 
1546.697 38543708 37964280 37399636 36822052 36218800 35602680 35008916 
1550.072 34483788 34061456 33751748 33541440 33405766 33322722 33282154 
1553.447 33289022 33356246 33493408 33696640 33945428 34204576 34434716 
1556.822 34592780 34639392 34550264 34335840 34059232 33817900 33702728 
1560.198 33749316 33939552 34231500 34583272 34964236 35353444 35741816 
1563.573 36131112 36530412 36953892 37413576 37913584 38447148 38998552 
1566.948 39546520 40072904 40564348 41017236 41437712 41840248 42241184 
1570.323 42650060 43069088 43492072 43909200 44308164 44675760 44997840 
1573.698 45254992 45425504 45490108 45440844 45292392 45083808 44867648 
1577.074 44682776 44538396 44412820 44268096 44061876 43759292 43341828 
1580.449 42807448 42169580 41448140 40663672 39830280 38955168 38043296 
1583.824 37103312 36148752 35197152 34263768 33356532 32475610 31616502 
1587.199 30777120 29961790 29181868 28451844 27783230 27179520 26636676 
1590.575 26146696 25703842 25306848 24958156 24659048 24404096 24179242 
1593.950 23965640 23743814 23502304 23240828 22968750 22699532 22442968 
1597.325 22202774 21976270 21759986 21554602 21368216 21213952 21106666 
1600.700 21055850 21063362 21124474 21232290 21381408 21569052 21792976 
1604.076 22045112 22307124 22552262 22745338 22852228 22849258 22725856 
1607.451 22487946 22152770 21744308 21284900 20792540 20283550 19774010 
1610.826 19282908 18831320 18435650 18102824 17827490 17593214 17378170 
1614.201 17160234 16924802 16667154 16394997 16126141 15884327 15690602 
1617.577 15557779 15489374 15480790 15522545 15601053 15699636 15801061 
1620.952 15889140 15954960 16000817 16042864 16104443 16207166 16361520 
1624.327 16563358 16797594 17047982 17304306 17563646 17828768 18102550 
1627.702 18383658 18664776 18936246 19190052 19425018 19646624 19863384 
1631.078 20081224 20299312 20507922 20691124 20831090 20911918 20925652 
1634.453 20875586 20778740 20660302 20546654 20456098 20393064 20352506 
1637.828 20322922 20292542 20248936 20180448 20079350 19942784 19776438 
1641.203 19591818 19404576 19227006 19062698 18905376 18739460 18544802 
1644.579 18302572 18003348 17653084 17275930 16908094 16586628 16338261 
1647.954 16171226 16078724 16044445 16049396 16071778 16084397 16054828 
1651.329 15941141 15704514 15332276 14870683 14424000 14095124 13927513 
1654.704 13894702 13939795 14006622 14057956 14076334 14059461 14014869 
1658.080 13953893 13885329 13811303 13727271 13624962 13497042 13340766 
1661.455 13159578 12962489 12761395 12567932 12390714 12234358 12100101 
1664.830 11986287 11888168 11797595 11703092 11590097 11444268 11255947 
1668.205 11024646 10761708 10487897 10228202 10001109 9814022 9663401 
1671.581 9538709 9426716 9313770 9187181 9034917 8848245 8625928 8378423 
1675.438 8128426 7901685 7717288 7579092 7477244 7392911 7306977 7206507 
1679.295 7088445 6959944 6833365 6718972 6616652 6513348 6384647 6203548 
1683.153 5953892 5646438 5323570 5043244 4846218 4736032 4687228 4664554 
1687.010 4640072 4596471 4528766 4440150 4338031 4229780 4120418 4013392 
1690.868 3911875 3819440 3739190 3670917 3608435 3538713 3444587 3310082 
1694.725 3129926 2917922 2706921 2535147 2424379 2370372 2346585 2318469 
1698.583 2251752 2124341 1937188 1720276 1522224 1381964 1310139 1289235 
1702.440 1291860 1292525 1275277 1233574 1168252 1085833 995525 906565 
1706.297 825656 756180 698795 652103 613611 580067 548416 516170 482699 
1710.637 448966 416893 388007 361875 335910 306465 269960 224905 172894 
1714.977 116382 58087 -1457 -63977 -130760 -199288 -261382 -304792 -319923 
1719.316 -303997 -262243 -205283 -146129 -95912 -60299 -39394 -27997 -18521 
1723.656 -4208 17992 46920 78899 109952 138522 163911 186551 205645 218573 
1728.478 222154 214065 195137 168486 137859 104451 63820 5102 -85775 -219755 
1733.299 -395837 -592330 -774810 -908214 -977546 -990967 -971198 -942997 
1737.157 -924449 -927028 -952188 -994439 -1043395 -1088380 -1122785 -1144927 
1741.014 -1156658 -1160723 -1158905 -1151140 -1137491 -1119150 -1098461 
1744.389 -1078663 -1062599 -1051130 -1043858 -1039561 -1037809 -1040090 
1747.765 -1049642 -1069640 -1102427 -1147934 -1203482 -1263780 -1323244 
1751.140 -1376721 -1420318 -1451889 -1470778 -1478109 -1476359 -1470382 
1754.515 -1466122 -1470118 -1486728 -1516148 -1553424 -1589377 -1614697 
1757.890 -1624601 -1621068 -1611924 -1608095 -1619880 -1652427 -1704247 
1761.266 -1767215 -1829117 -1879332 -1911563 -1925979 -1926903 -1920668 
1764.641 -1912289 -1905922 -1904735 -1911201 -1927068 -1952698 -1985781 
1768.016 -2021599 -2054809 -2081355 -2101404 -2119704 -2142883 -2177765 
1771.391 -2225962 -2282262 -2334732 -2370356 -2381659 -2369796 -2342938 
1774.767 -2311662 -2284570 -2265123 -2252069 -2241521 -2229819 -2216534 
1778.142 -2204436 -2198304 -2202260 -2216172 -2236016 -2254641 -2265419 
1781.517 -2266441 -2260739 -2254871 -2255267 -2265881 -2285295 -2308795 
1784.892 -2329426 -2342411 -2346629 -2344157 -2338753 -2332722 -2326559 
1788.268 -2319407 -2310541 -2301675 -2296897 -2301939 -2321813 -2357340 
1791.643 -2403210 -2449702 -2486107 -2505676 -2507982 -2497835 -2482088 
1795.018 -2466801 -2454380 -2445682 -2439883 -2437412 -2439521 -2448614 
1798.393 -2466274 -2491774 -2521258 -2548632 -2567540 -2574621 -2570043 
1801.769 -2557230 -2540661 -2523795 -2507982 -2492630 -2476850 -2460475 
1805.144 -2445023 -2433096 -2426736 -2426802 -2431778 -2439092 -2446934 
1808.519 -2453919 -2461299 -2470557 -2483109 -2498099 -2512825 -2523564 
1811.894 -2527780 -2525211 -2518755 -2511738 -2507817 -2507982 -2510387 
1815.270 -2511672 -2508378 -2498396 -2481890 -2460838 -2437445 -2412799 
1818.645 -2386602 -2357702 -2325834 -2292546 -2261200 -2236379 -2221479 
1822.020 -2218248 -2225666 -2241060 -2260409 -2279856 -2295743 -2305334 
1825.395 -2305861 -2295710 -2275044 -2246037 -2213864 -2185051 -2166259 
1828.771 -2161050 -2167809 -2178820 -2184458 -2175227 -2147664 -2105229 
1832.146 -2056425 -2010155 -1972951 -1946464 -1927695 -1910838 -1890153 
1835.521 -1862837 -1829546 -1793284 -1756523 -1719759 -1680219 -1633579 
1838.896 -1576370 -1507728 -1430423 -1349769 -1272138 -1201830 -1140961 
1842.271 -1088645 -1041742 -995364 -944022 -883018 -808909 -721788 -623929 
1846.129 -521547 -422518 -336014 -270322 -230750 -218099 -229127 -258269 
1849.986 -299594 -349721 -408449 -477530 -558479 -650861 -750367 -851240 
1853.844 -948088 -1038173 -1122190 -1203581 -1285617 -1369653 -1453805 
1857.219 -1534077 -1606411 -1669954 -1726921 -1781602 -1838653 -1899786 
1860.594 -1963055 -2023710 -2076574 -2119078 -2151786 -2178260 -2202029 
1863.969 -2225797 -2249564 -2271913 -2291953 -2311168 -2333348 -2363304 
1867.345 -2403375 -2450987 -2497737 -2532425 -2545107 -2532689 -2499647 
1870.720 -2456258 -2413425 -2378661 -2354407 -2338291 -2326460 -2315979 
1874.095 -2306685 -2301148 -2303126 -2314397 -2334337 -2359350 -2385416 
1877.470 -2410031 -2433689 -2458960 -2488611 -2523004 -2559799 -2594186 
1880.846 -2621424 -2639834 -2651262 -2661306 -2674676 -2694631 -2719756 
1884.221 -2745207 -2764896 -2774675 -2774016 -2766674 -2758674 -2754887 
1887.596 -2758114 -2768617 -2784189 -2802066 -2820271 -2837652 -2853222 
1890.971 -2866092 -2874058 -2875868 -2871589 -2863426 -2855559 -2852037 
1894.347 -2855230 -2863525 -2873070 -2878370 -2876164 -2867080 -2855328 
1897.722 -2846803 -2845783 -2852629 -2863986 -2874058 -2878139 -2874486 
1901.097 -2865730 -2856612 -2851214 -2850556 -2851642 -2849568 -2840417 
1904.472 -2824056 -2804272 -2788436 -2783366 -2792486 -2815003 -2845815 
1907.848 -2878831 -2909046 -2933762 -2952686 -2966376 -2974340 -2975722 
1911.223 -2968745 -2954035 -2934552 -2916089 -2904569 -2903648 -2914016 
1914.598 -2932742 -2955615 -2979276 -3003956 -3031300 -3063708 -3100589 
1917.973 -3137927 -3167696 -3183518 -3182696 -3169275 -3151381 -3138651 
1921.349 -3137302 -3147499 -3163322 -3176018 -3178419 -3169078 -3152203 
1924.724 -3135723 -3127170 -3129177 -3139309 -3151480 -3159769 -3162170 
1928.099 -3161118 -3160986 -3166874 -3180130 -3197497 -3214600 -3227229 
1931.474 -3234662 -3240286 -3249560 -3265214 -3287017 -3310331 -3328679 
1934.850 -3338247 -3339826 -3338379 -3340911 -3351892 -3369976 -3388321 
1938.225 -3398743 -3395521 -3379346 -3358074 -3342324 -3342094 -3360835 
1941.600 -3394436 -3433458 -3468894 -3495321 -3514417 -3532790 -3556584 
1944.975 -3588460 -3626414 -3664133 -3695411 -3717783 -3732928 -3744425 
1948.351 -3756021 -3766631 -3771361 -3764233 -3741304 -3704281 -3660848 
1951.726 -3621583 -3594211 -3581822 -3581954 -3589085 -3598976 -3612350 
1955.101 -3634168 -3671329 -3727934 -3801810 -3884309 -3963313 -4029039 
1958.476 -4078279 -4115762 -4150224 -4190064 -4237448 -4287024 -4329968 
1961.852 -4358443 -4370678 -4371433 -4370252 -4375533 -4390654 -4413385 
1965.227 -4437163 -4456251 -4469074 -4478158 -4488324 -4503212 -4520821 
1968.602 -4534921 -4539413 -4532035 -4517247 -4505212 -4508262 -4532855 
1971.977 -4579087 -4637508 -4695954 -4744365 -4777793 -4796177 -4801355 
1975.353 -4791884 -4760948 -4698413 -4598037 -4461990 -4305954 -4154589 
1978.728 -4030878 -3950442 -3915505 -3915012 -3932974 -3954087 -3970142 
1982.103 -3980812 -3990661 -4003400 -4019027 -4032946 -4038724 -4031666 
1985.478 -4013084 -3988101 -3964002 -3945582 -3932481 -3919839 -3902797 
1988.854 -3878923 -3850516 -3825195 -3810317 -3809298 -3820630 -3836197 
1992.229 -3846543 -3847265 -3838792 -3828479 -3825293 -3835770 -3858825 
1995.604 -3889760 -3919314 -3939377 -3947487 -3944302 -3933203 -3918034 
1998.979 -3899349 -3876461 -3848874 -3820006 -3796686 -3788967 -3805226 
2002.354 -3848185 -3913404 -3990267 -4066396 -4131517 -4180679 -4214413 
2005.730 -4236004 -4247455 -4247554 -4232985 -4201517 -4155704 -4102371 
2009.105 -4051821 -4012067 -3985606 -3969025 -3954415 -3934615 -3907986 
2012.480 -3878201 -3853472 -3841222 -3842864 -3853669 -3864769 -3867397 
2015.855 -3857380 -3839120 -3822239 -3816064 -3826279 -3850254 -3880828 
2019.231 -3909102 -3929329 -3940099 -3944696 -3946305 -3944335 -3934615 
2022.606 -3911269 -3869991 -3813240 -3750010 -3691567 -3648330 -3624081 
2025.981 -3615734 -3614551 -3612744 -3606139 -3597431 -3593652 -3599140 
2029.356 -3614748 -3634365 -3647705 -3644485 -3620433 -3576038 -3517178 
2032.732 -3449500 -3375170 -3293002 -3200588 -3097266 -2988029 -2881760 
2036.107 -2788634 -2714948 -2660878 -2619349 -2580715 -2538981 -2492235 
2039.482 -2444628 -2404396 -2377573 -2364556 -2361558 -2361162 -2356878 
2042.857 -2347651 -2336742 -2328800 -2327416 -2331436 -2333875 -2325867 
2046.233 -2298907 -2248576 -2176117 -2085840 -1983505 -1874252 -1763288 
2049.608 -1655266 -1558476 -1482402 -1434056 -1417015 -1427187 -1453144 
2052.983 -1478968 -1490294 -1479331 -1447464 -1404630 -1363509 -1334343 
2056.358 -1320502 -1317727 -1316340 -1307586 -1287071 -1255917 -1220036 
2059.734 -1185606 -1156559 -1133096 -1112441 -1091850 -1070499 -1050832 
2063.109 -1035396 -1026107 -1021083 -1016290 -1006769 -990670 -970008 
2066.484 -950899 -940187 -941840 -954767 -973149 -988918 -996720 -996125 
2070.342 -991596 -991034 -1001149 -1023529 -1054138 -1085075 -1107648 
2073.717 -1116572 -1111581 -1095089 -1072218 -1046139 -1017281 -983893 
2077.092 -944782 -899584 -850909 -803121 -759000 -720167 -685796 -652879 
2080.949 -619231 -584984 -551993 -523401 -501790 -487260 -477795 -470811 
2084.807 -463529 -455817 -450025 -449363 -456082 -470645 -491133 -514200 
2088.664 -538193 -562251 -587268 -615293 -646626 -679478 -709879 -733498 
2092.522 -746431 -748449 -741502 -728734 -713452 -697176 -678981 -658040 
2096.379 -633789 -606922 -579988 -554938 -532237 -510957 -488551 -463066 
2100.237 -434732 -405503 -379020 -357170 -339756 -322738 -299925 -267044 
2104.094 -222338 -169050 -113634 -62950 -21337 10768 37575 64649 95834 
2108.434 131528 168618 202860 230276 250897 267573 285112 308488 338960 
2112.773 374609 411089 443327 467142 481339 485983 482898 473810 460542 
2117.113 444753 429032 416230 409099 410061 418353 431254 445251 457523 
2121.452 466778 475369 487410 506218 533620 567990 605150 640787 671184 
2125.792 695377 714559 731187 745758 757972 766436 769092 766801 762885 
2130.132 761125 766137 779913 800991 825888 851351 875554 899692 927516 
2134.471 961254 1001337 1044446 1084438 1115364 1134366 1142106 1143070 
2138.329 1142007 1141508 1140977 1137023 1125529 1104468 1075602 1042321 
2142.186 1008577 976197 942957 905104 859253 805240 747517 692124 645831 
2146.526 610990 584911 560824 530302 488703 435035 372088 304575 234718 
2150.865 161724 81417 -9774 -114198 -229690 -352204 -478324 -607650 -742296 
2155.205 -885498 -1034933 -1179558 -1300615 -1372824 -1374541 -1297675 
2158.580 -1152561 -964850 -768691 -594878 -461212 -372962 -324426 -305620 
2162.438 -306944 -320983 -340947 -361375 -375643 -377861 -366241 -344291 
2166.295 -320354 -305388 -308567 -332604 -373491 -423346 -472731 -516120 
2170.152 -554343 -591702 -635443 -690295 -756552 -829050 -900708 -964321 
2174.010 -1014538 -1049742 -1069805 -1075060 -1067656 -1049477 -1026768 
2177.385 -1008389 -1005083 -1025413 -1073573 -1144927 -1227239 -1305835 
2180.760 -1365987 -1399412 -1407371 -1397133 -1379199 -1362717 -1351949 
2184.135 -1346565 -1343724 -1340421 -1335466 -1329784 -1324070 -1317925 
2187.511 -1310295 -1298765 -1282677 -1263780 -1246104 -1233615 -1228362 
2190.886 -1228461 -1229750 -1226446 -1215079 -1195981 -1172917 -1150413 
2194.261 -1130783 -1112870 -1091751 -1060914 -1017116 -961941 -902064 
2197.636 -847040 -804874 -778845 -766773 -762804 -761018 -757115 -752054 
2201.494 -748349 -749375 -756255 -766674 -775835 -779507 -775670 -764987 
2205.351 -751128 -737533 -725757 -714940 -703131 -687814 -669156 -649669 
2209.209 -632101 -618767 -609139 -600900 -590775 -577275 -561093 -546169 
2213.066 -536605 -533858 -536175 -538723 -535083 -521713 -499473 -473028 
2216.924 -450753 -439631 -442279 -456347 -476570 -495899 -509600 -516682 
2220.781 -518867 -519363 -521084 -524228 -527604 -530185 -530847 -530019 
2224.638 -529523 -530218 -531740 -533064 -532303 -528696 -523136 -517874 
2228.496 -514995 -515127 -516649 -515690 -509203 -495137 -475014 -452309 
2232.353 -431522 -414607 -401134 -387760 -370181 -345947 -316016 -283303 
2236.211 -253235 -229094 -211741 -198593 -185610 -168851 -147255 -122644 
2240.068 -98728 -78851 -65335 -56688 -49698 -41150 -28063 -9277 14711 43474 
2244.890 76579 114161 155791 200507 245426 286737 320690 345526 361211 
2249.229 370563 376267 381009 385619 389565 391157 390726 388869 388405 
2253.569 392716 402897 418684 437423 455168 468071 474440 473644 466114 
2257.909 453278 435666 413875 388968 362704 337800 317308 303481 297048 
2262.248 296949 300629 305537 310577 316247 323342 333456 346322 360382 
2266.588 373249 382933 388770 392650 396895 403660 413809 425782 436926 
2270.927 444521 447772 447540 446611 448501 455301 467142 483064 500546 
2275.267 518061 534880 550738 566165 580465 592841 602131 608502 613445 
2279.607 619849 631032 649382 674503 704404 734838 761988 783597 799431 
2283.946 811414 821241 830370 838370 844180 846272 844645 840595 836777 
2288.286 835847 839200 846106 855103 863436 869744 874193 878110 883954 
2292.625 893217 906697 923631 942193 960889 978721 995260 1010404 1024319 
2296.965 1036608 1047004 1055440 1062615 1069856 1078592 1089454 1101645 
2300.823 1113769 1123237 1128452 1129416 1127356 1124865 1124267 1127057 
2304.680 1132937 1140777 1148983 1156524 1163900 1172305 1183103 1197157 
2308.537 1213737 1231082 1247331 1261022 1271988 1281259 1290498 1300833 
2312.395 1312964 1326091 1339120 1350985 1360790 1368269 1373587 1377177 
2316.252 1379371 1380401 1381232 1382761 1386717 1394196 1405864 1421521 
2320.110 1439804 1459485 1479034 1497686 1513845 1525549 1529905 1522856 
2323.967 1500413 1460749 1404334 1335497 1261022 1188419 1124632 1073742 
2327.824 1035711 1008278 987389 969489 952653 937046 924063 914700 909553 
2332.164 907826 908391 910881 915928 925159 940367 962582 991208 1024386 
2336.504 1059127 1092775 1123270 1150079 1172937 1192473 1209152 1223606 
2340.361 1236731 1250155 1265973 1285812 1310205 1338056 1366308 1391803 
2344.219 1411980 1426873 1439505 1454665 1477871 1513147 1561229 1620124 
2348.076 1685614 1752145 1813828 1866369 1906203 1931829 1943145 1942347 
2351.933 1932162 1916786 1899481 1882775 1867900 1854423 1841446 1828269 
2355.791 1815326 1804246 1797259 1796128 1800919 1810301 1821049 1829933 
2359.648 1834824 1835190 1832694 1829666 1828868 1831563 1837985 1847601 
2363.506 1859614 1873690 1890129 1909232 1930731 1953197 1975065 1994903 
2367.363 2012046 2027791 2044103 2063745 2088615 2119080 2154908 2194535 
2371.220 2236897 2281495 2328163 2376668 2426178 2474861 2520217 2560377 
2375.078 2594575 2623909 2650511 2677581 2707487 2741297 2778577 2818061 
2378.935 2858516 2898641 2938337 2977669 3016804 3055109 3092283 3127256 
2382.793 3159463 3189236 3217608 3245815 3274859 3305073 3336425 3368080 
2386.650 3399703 3431295 3463424 3496858 3531865 3568110 3604426 3639608 
2390.508 3672387 3702663 3730367 3756134 3780767 3804131 3825992 3846282 
2394.365 3864903 3882354 3899337 3916689 3934276 3951596 3967813 3982292 
2398.222 3995333 4008376 4023592 4042955 4067704 4097740 4131825 4168321 
2402.080 4205858 4244268 4284454 4327489 4374746 4426392 4481693 4539647 
2405.937 4599015 4658626 4718580 4779044 4839886 4901440 4963571 5026450 
2409.795 5090880 5158069 5229091 5304619 5383650 5464237 5543499 5618578 
2413.652 5687795 5751148 5809641 5864548 5916943 5966523 6012177 6052192 
2417.510 6085624 6112473 6134181 6153370 6171955 6191717 6213228 6236689 
2421.367 6262203 6290340 6322143 6358959 6401527 6449985 6503426 6560540 
2425.224 6620084 6681083 6743470 6807482 6873355 6941426 7011797 7085043 
2429.082 7161838 7243768 7331981 7427391 7529463 7636854 7746733 7856844 
2432.939 7965328 8071982 8177819 8284695 8394502 8508595 8627281 8750596 
2436.797 8878376 9010119 9145895 9285064 9427088 9570378 9713784 9855609 
2440.654 9995244 10132683 10268811 10404302 10539767 10675275 10809941 
2444.029 10942916 11073690 11201884 11327770 11451854 11574579 11696182 
2447.405 11817002 11937004 12056732 12175879 12294276 12410932 12524175 
2450.780 12632160 12734166 12829986 12921150 13010148 13099847 13192503 
2454.155 13289073 13389423 13492120 13595901 13699948 13803642 13907224 
2457.530 14010421 14112649 14212881 14309644 14402387 14491312 14577686 
2460.906 14663117 14748908 14835950 14923524 15010601 15095843 15178598 
2464.281 15259308 15339656 15421804 15508466 15602048 15704824 15818998 
2467.656 15946126 16087389 16243007 16412305 16593341 16783992 16982752 
2471.031 17188812 17403210 17627444 17863084 18110562 18368692 18633890 
2474.406 18901878 19168236 19429314 19683166 19929082 20166670 20395530 
2477.782 20613986 20819862 21009942 21181632 21333064 21463246 21572396 
2481.157 21661096 21729854 21779424 21810326 21823182 21819072 21799528 
2484.532 21766326 21721526 21667748 21606384 21539108 21466622 21389274 
2487.907 21306824 21218858 21125102 21025036 20918872 20806896 20689214 
2491.283 20565728 20434984 20295112 20143518 19977824 19796760 19600206 
2494.658 19390264 19169308 18940574 18706146 18466764 18221812 17969884 
2498.033 17709164 17438492 17157994 16869134 16574133 16276132 15977923 
2501.408 15682185 15391250 15106581 14829298 14559526 14297111 14041391 
2504.784 13791910 13548725 13312509 13084652 12866401 12659041 12463168 
2508.159 12278461 12104530 11941193 11788709 11648122 11520749 11406713 
2511.534 11305629 11215144 11132088 11053534 10978053 10905779 10838578 
2514.909 10779404 10730427 10692934 10666819 10650859 10643592 10644136 
2518.285 10652557 10669366 10694733 10727981 10767584 10811063 10855904 
2521.660 10900308 10943800 10986413 11029404 11073519 11119714 11168123 
2525.035 11219054 11272303 11327123 11382630 11436308 11485092 11525138 
2528.410 11552904 11566106 11564371 11548922 11522178 11487202 11446616 
2531.786 11401849 11353583 11302093 11247582 11190732 11132495 11073995 
2535.161 11016047 10958956 10902551 10846799 10791802 10738204 10686820 
2538.536 10638567 10593748 10552023 10513118 10476492 10441193 10407424 
2541.911 10374981 10343693 10313258 10283434 10253442 10223317 10193296 
2545.287 10163718 10135024 10107247 10079608 10051292 10021182 9988903 
2548.662 9954830 9920251 9886691 9855880 9828901 9805956 9786741 9770305 
2552.519 9755733 9742043 9728455 9714393 9699756 9684882 9670482 9657676 
2556.377 9647851 9641719 9639009 9638670 9638297 9635519 9628303 9615702 
2560.234 9598053 9576374 9551918 9525500 9497119 9466673 9433758 9398679 
2564.092 9362791 9327717 9295490 9267496 9244276 9225661 9210939 9199398 
2567.949 9191106 9185793 9183864 9185014 9188703 9194254 9200820 9208739 
2571.806 9218113 9229757 9244040 9260726 9278598 9296471 9313330 9328800 
2575.664 9343629 9358863 9376029 9395530 9417471 9440904 9464777 9489092 
2579.521 9514018 9540537 9569769 9601813 9636332 9672211 9708227 9744009 
2583.379 9780099 9817852 9858558 9903267 9951948 10003482 10056752 10110673 
2587.236 10165075 10220638 10278412 10339384 10403623 10470484 10538443 
2590.611 10605937 10671438 10734230 10793942 10850401 10903604 10953824 
2593.987 11001093 11046635 11091059 11135589 11180805 11226908 11272848 
2597.362 11317771 11360658 11401067 11439743 11477846 11516700 11557361 
2600.737 11599897 11643630 11687741 11731516 11774954 11819283 11865625 
2604.112 11915889 11970756 12031114 12096659 12166815 12241208 12318955 
2607.488 12399476 12482162 12566533 12652048 12738773 12827051 12917737 
2610.863 13011548 13108829 13209411 13312134 13415599 13518336 13619320 
2614.238 13718038 13814724 13909653 14003029 14094782 14184569 14272251 
2617.613 14357931 14441743 14524613 14606812 14688582 14769613 14849424 
2620.989 14927536 15003775 15078587 15152623 15226535 15300561 15373879 
2624.364 15445562 15514406 15579450 15640346 15697679 15752235 15805047 
2627.739 15856972 15908420 15959635 16010787 16061945 16113179 16164485 
2631.114 16215455 16265571 16313594 16358526 16399642 16436841 16470497 
2634.490 16501781 16532207 16562842 16594959 16629076 16665122 16702825 
2637.865 16741529 16780272 16818708 16856424 16893936 16931762 16971210 
2641.240 17012904 17057976 17106086 17157098 17209976 17263896 17318100 
2644.615 17372308 17427006 17482644 17539944 17599322 17660434 17723314 
2647.990 17787584 17853002 17919502 17987012 18055156 18123864 18192512 
2651.366 18260652 18328284 18395652 18462788 18530420 18598786 18667716 
2654.741 18737004 18806440 18875648 18945142 19015340 19086968 19160374 
2658.116 19235284 19310898 19385970 19459530 19530504 19599132 19665414 
2661.491 19730494 19795268 19860366 19926272 19992952 20059848 20126374 
2664.867 20192042 20256122 20318338 20378340 20436232 20492082 20546482 
2668.242 20599600 20652276 20704852 20757712 20810754 20864078 20917864 
2671.617 20972002 21026844 21082178 21138424 21195234 21253062 21312044 
2674.992 21372464 21434734 21499312 21566512 21636368 21708604 21782874 
2678.368 21859002 21936954 22016840 22098762 22182688 22268408 22355540 
2681.743 22443316 22531568 22620426 22710424 22802706 22898400 22998234 
2685.118 23102914 23212200 23325954 23443512 23564708 23689084 23816262 
2688.493 23946034 24077488 24210210 24343708 24478266 24614476 24753080 
2691.869 24895166 25041056 25191066 25344328 25500240 25658178 25817756 
2695.244 25979010 26142438 26308704 26478206 26651190 26827452 27006924 
2698.619 27189186 27374312 27562092 27752570 27945394 28140068 28336388 
2701.994 28533890 28732300 28931650 29131870 29332892 29534218 29734930 
2705.370 29934350 30131482 30326038 30517698 30706594 30893298 31078016 
2708.745 31261106 31442524 31622202 31800136 31976468 32151550 32325954 
2712.120 32500394 32675330 32851052 33027414 33204068 33380076 33554326 
2715.495 33725536 33892084 34052780 34206332 34351976 34489708 34619764 
2718.871 34743328 34861720 34976916 35090488 35204412 35320200 35439324 
2722.246 35563376 35693360 35830652 35976084 36130136 36293288 36465108 
2725.621 36645256 36833376 37029408 37233216 37445068 37665152 37893336 
2728.996 38129056 38370812 38616424 38863732 39109992 39353160 39591672 
2732.372 39824356 40050736 40270076 40481996 40685936 40881168 41067164 
2735.747 41243144 41408988 41564072 41708484 41842440 41966576 42082320 
2739.122 42191304 42296296 42399740 42504128 42611348 42722732 42839264 
2742.497 42961492 43090160 43226372 43371300 43526060 43691496 43867628 
2745.873 44053884 44248684 44450148 44655892 44863388 45070096 45272896 
2749.248 45469096 45655596 45829324 45987872 46129412 46252756 46357112 
2752.623 46442136 46507188 46551960 46575788 46578188 46558676 46516852 
2755.998 46452388 46364860 46253496 46117584 45956708 45770120 45557996 
2759.374 45320600 45058412 44772428 44463768 44133648 43784464 43418684 
2762.749 43040184 42653204 42262768 41873740 41490972 41118844 40760976 
2766.124 40420892 40101244 39804348 39531964 39285108 39064816 38870728 
2769.499 38702768 38560148 38442516 38348516 38277184 38227356 38197076 
2772.875 38184268 38186328 38200584 38224572 38256088 38293212 38333928 
2776.250 38376564 38418372 38456816 38488712 38510980 38520860 38516188 
2779.625 38496132 38460724 38411496 38350720 38281672 38207708 38132204 
2783.000 38058308 37988328 37924216 37866764 37816552 37773140 37735548 
2786.375 37702012 37670032 37636460 37597656 37550436 37491516 37419100 
2789.751 37332576 37232384 37119876 36997220 36866596 36730384 36590536 
2793.126 36449684 36310436 36175836 36049268 35934440 35834464 35751784 
2796.501 35688608 35645736 35623652 35622464 35641956 35681812 35741564 
2799.876 35820720 35918244 36033468 36165572 36314072 36477900 36656504 
2803.252 36848884 37053728 37269500 37493792 37725104 37960916 38199496 
2806.627 38438932 38677196 38912076 39141172 39361428 39569820 39763244 
2810.002 39938912 40094196 40227292 40336680 40421696 40481960 40517860 
2813.377 40529932 40519168 40486792 40434496 40364312 40279272 40182980 
2816.753 40080280 39976440 39877272 39788736 39716076 39663760 39634756 
2820.128 39631452 39655012 39706056 39784520 39890676 40023304 40180872 
2823.503 40361548 40561544 40776700 41002052 41232580 41463556 41690724 
2826.878 41910412 42119960 42317480 42501676 42672724 42831144 42978904 
2830.254 43118668 43253900 43388620 43526388 43670908 43824708 43989932 
2833.629 44168640 44362620 44573604 44804128 45056644 45333804 45638884 
2837.004 45975308 46346792 46758776 47217508 47731272 48310780 48967792 
2840.379 49716516 50572800 51553028 52675612 53960788 55429080 57103008 
2843.755 59005288 61155532 63567944 66245272 69173328 72311072 75587920 
2847.130 78903512 82119096 85077128 87613008 89563600 90801832 91247864 
2850.505 90880296 89739112 87918792 85556496 82800032 79804536 76714448 
2853.880 73644392 70689488 67918416 65372652 63076028 61034400 59240680 
2857.256 57677308 56320668 55144732 54121692 53225764 52434444 51727488 
2860.631 51088616 50504984 49965476 49462168 48988972 48541372 48116256 
2864.006 47712596 47330228 46970972 46638644 46339048 46079048 45866700 
2867.381 45708900 45610768 45574444 45598364 45677868 45804692 45968420 
2870.757 46156828 46356044 46552112 46731728 46882372 46994932 47064420 
2874.132 47090156 47076312 47030708 46963732 46885364 46805124 46730660 
2877.507 46667012 46617764 46585452 46571032 46575752 46600392 46645360 
2880.882 46710996 46797524 46904668 47032372 47179572 47344636 47524548 
2884.258 47715148 47911936 48109664 48304632 48494392 48678520 48858468 
2887.633 49037448 49219624 49409816 49612836 49833528 50076824 50347832 
2891.008 50652476 50997352 51391244 51844632 52369284 52980060 53692544 
2894.383 54521660 55481068 56578876 57814840 59176048 60636048 62152204 
2897.759 63664192 65105044 66400296 67478864 68287400 68792256 68988424 
2901.134 68898280 68570096 68069616 67466680 66834428 66237940 65728268 
2904.509 65348616 65129144 65091416 65251500 65620348 66206568 67017764 
2907.884 68061632 69346856 70884336 72685384 74760176 77114064 79743136 
2911.260 82628552 85730592 88991176 92326088 95629576 98787880 101675136 
2914.635 104172664 106185496 107643464 108516896 108815152 108585600 
2917.528 107901152 106846744 105514232 103982760 102316336 100562576 
2920.421 98748904 96888768 94985592 93038256 91046080 89013336 86950600 
2923.796 84876464 82815504 80793936 78838752 76973688 75215400 73575032 
2927.171 72056480 70657800 69371920 68188384 67094556 66075644 65117092 
2930.547 64205208 63327208 62473236 61635156 60807412 59985808 59167276 
2933.922 58349524 57531080 56711608 55892052 55074388 54261668 53457404 
2937.297 52664688 51886408 51125068 50383324 49664652 48974172 48317592 
2940.672 47702020 47134328 46619832 46162356 45762644 45418700 45125496 
2944.048 44875732 44659712 44465860 44282772 44099320 43906304 43699452 
2947.423 43478704 43250272 43024376 42815528 42639092 42508256 42433424 
2950.798 42419580 42465980 42566320 42710228 42884536 43073768 43263268 
2954.173 43439040 43589208 43704616 43779224 43809424 43794436 43735760 
2957.549 43636648 43501632 43336592 43147756 42941304 42723060 42498392 
2960.924 42271644 42046548 41826456 41614504 41413328 41225400 41052340 
2964.299 40895112 40753556 40626740 40513384 40412424 40322972 40245140 
2967.674 40179092 40125556 40085660 40060476 40051356 40060116 40088964 
2971.050 40140204 40216276 40318208 40446352 40598288 40770328 40955768 
2974.425 41145948 41331104 41499136 41637840 41736280 41784612 41777316 
2977.800 41713120 41596816 41437200 41247116 41041376 40833952 40637288 
2981.175 40461044 40311012 40189996 40097684 40031116 39984576 39950248 
2984.551 39918496 39878472 39819420 39732196 39609928 39449520 39251268 
2987.926 39019432 38760400 38481724 38191716 37897100 37603256 37313616 
2991.301 37030092 36752956 36482264 36217828 35959852 35708864 35465388 
2994.676 35229600 35000620 34776568 34554172 34329528 34099012 33859560 
2998.052 33609636 33349234 33080154 32805276 32527924 32251824 31980212 
3001.427 31715508 31459480 31212930 30975842 30747634 30527330 30314208 
3004.802 30107618 29907586 29714600 29529680 29353524 29186972 29029942 
3008.177 28882104 28742284 28609444 28482304 28360012 28241788 28127236 
3011.552 28015894 27907480 27801986 27699134 27598742 27500560 27404134 
3014.928 27309066 27215150 27122064 27030126 26940076 26852900 26769584 
3018.303 26691110 26617970 26550020 26486940 26428624 26374646 26325356 
3021.678 26280966 26241648 26207402 26177838 26152818 26132406 26117312 
3025.053 26109430 26111260 26125580 26154646 26199412 26258824 26330178 
3028.429 26408624 26488526 26563756 26628326 26677474 26707952 26717888 
3031.804 26707460 26678320 26633188 26574958 26506908 26431688 26351726 
3035.179 26269174 26185828 26103624 26024426 25950062 25881618 25819584 
3038.554 25763888 25713264 25666402 25622186 25579378 25537276 25496094 
3041.930 25455688 25416760 25379770 25345310 25314224 25287392 25265302 
3045.305 25248692 25237594 25232080 25231520 25235768 25244230 25256732 
3048.680 25272642 25291642 25312678 25334948 25357358 25379100 25400110 
3052.055 25420730 25441530 25463592 25487520 25513558 25541494 25571084 
3055.431 25602046 25634204 25667880 25703490 25741528 25782488 25826406 
3058.806 25873458 25923646 25976724 26032834 26091730 26153416 26217608 
3062.181 26284274 26353874 26426686 26503670 26585666 26672930 26765108 
3065.556 26861080 26958832 27056292 27151444 27242348 27327978 27407416 
3068.932 27480194 27545890 27604602 27656368 27701818 27742222 27779096 
3072.307 27814244 27849360 27885680 27923732 27963768 28005468 28048656 
3075.682 28092912 28137876 28183376 28229340 28275170 28320472 28364648 
3079.057 28406952 28446642 28483402 28517296 28549142 28580318 28612310 
3082.433 28646958 28685610 28728584 28775562 28825520 28876722 28928002 
3085.808 28979074 29030650 29084108 29141402 29203840 29271958 29345192 
3089.183 29422126 29500954 29579972 29658048 29734860 29810338 29884976 
3092.558 29959270 30033366 30107900 30182838 30258784 30336094 30415692 
3095.934 30498006 30583640 30673060 30766342 30863734 30964742 31068798 
3099.309 31174660 31280868 31386032 31489156 31589772 31688136 31785306 
3102.684 31882216 31979856 32078448 32177918 32277734 32377214 32476254 
3106.059 32574602 32672576 32770508 32868634 32966998 33065852 33165228 
3109.435 33265482 33367086 33470396 33575556 33682424 33790608 33899644 
3112.810 34009276 34119444 34230172 34341324 34452256 34562352 34670436 
3116.185 34775704 34877984 34977992 35077268 35177284 35279588 35384288 
3119.560 35491096 35598508 35704976 35809240 35911008 36010748 36109648 
3122.936 36209004 36309572 36411960 36515996 36620924 36726092 36830672 
3126.311 36934300 37037092 37139224 37241088 37343156 37445932 37549424 
3129.686 37653516 37757960 37862028 37965544 38068580 38171384 38275120 
3133.061 38380904 38489764 38602336 38718780 38838444 38960820 39085120 
3136.437 39210760 39337596 39465052 39592504 39719272 39844296 39966556 
3139.812 40085332 40200824 40313664 40424968 40536300 40648680 40762980 
3143.187 40879420 40997860 41117716 41238408 41359312 41480584 41601812 
3146.562 41723436 41845684 41968912 42093420 42218872 42345240 42472264 
3149.938 42599508 42727156 42855536 42984976 43116068 43248700 43382212 
3153.313 43515404 43646616 43774388 43897580 44016148 44130424 44241676 
3156.688 44351024 44459620 44568320 44678036 44789400 44903140 45019892 
3160.063 45140272 45264148 45390668 45518512 45645732 45770744 45892256 
3163.438 46010228 46124952 46237612 46349592 46462196 46576268 46692140 
3166.814 46809740 46928624 47048100 47167496 47286296 47403908 47520300 
3170.189 47635348 47748840 47860660 47970100 48076948 48180664 48281748 
3173.564 48380852 48479536 48579352 48681412 48786096 48892804 48999988 
3176.939 49106044 49210124 49311556 49411380 49510440 49609792 49709756 
3180.315 49809856 49909456 50007524 50104192 50199960 50296152 50393672 
3183.690 50493036 50594056 50695740 50796816 50896344 50993924 51090032 
3187.065 51184860 51279036 51372036 51463492 51552696 51639336 51723384 
3190.440 51805732 51887084 51968228 52049536 52131160 52212728 52294456 
3193.816 52376460 52458520 52540184 52620700 52698428 52772020 52840644 
3197.191 52904640 52965500 53025804 53087916 53153672 53223480 53297008 
3200.566 53372872 53449836 53527152 53604444 53681484 53758124 53833848 
3203.941 53908156 53980300 54050316 54118840 54186776 54255064 54323812 
3207.317 54392568 54460248 54525720 54588612 54649332 54709308 54769932 
3210.692 54831768 54894628 54957196 55018008 55076004 55131340 55185248 
3214.067 55239884 55296892 55357260 55420120 55484008 55546772 55606572 
3217.442 55662916 55715876 55766772 55817104 55868128 55920920 55976440 
3220.818 56035016 56097256 56163208 56232708 56305052 56379480 56454828 
3224.193 56530188 56605224 56679776 56754196 56828212 56901412 56973220 
3227.568 57042852 57110076 57175044 57238660 57301868 57365732 57430244 
3230.943 57495560 57561192 57627020 57693240 57760564 57829488 57900696 
3234.319 57973960 58049092 58125372 58202504 58280288 58358964 58438596 
3237.694 58518664 58598440 58676904 58753260 58827120 58899556 58971736 
3241.069 59044916 59119892 59196096 59272236 59346648 59418180 59487064 
3244.444 59554708 59623500 59695800 59772752 59854472 59939704 60026820 
3247.820 60113916 60200304 60286064 60372028 60459152 60547592 60636848 
3251.195 60725820 60812900 60896648 60976252 61051944 61124256 61194248 
3254.570 61263300 61332172 61401860 61472280 61543284 61614344 61684608 
3257.945 61753512 61820740 61885960 61949392 62011072 62071044 62128920 
3261.321 62184276 62236892 62286528 62333724 62379012 62423004 62466160 
3264.696 62508440 62549384 62588452 62625348 62659948 62692792 62724336 
3268.071 62755236 62785560 62815152 62843488 62870184 62895380 62919272 
3271.446 62942260 62964856 62987224 63009596 63032196 63055760 63081584 
3274.822 63110740 63144608 63183472 63226856 63273312 63320688 63367612 
3278.197 63413160 63457416 63501440 63546344 63593028 63641788 63692428 
3281.572 63744344 63797488 63852028 63908228 63967116 64029084 64094440 
3284.947 64163344 64235596 64311668 64391980 64477412 64568400 64665644 
3288.323 64768864 64877728 64991504 65109664 65231936 65357940 65487296 
3291.698 65619924 65755488 65894136 66036880 66184760 66339260 66501656 
3295.073 66672220 66850656 67035584 67225624 67420040 67618888 67823736 
3298.448 68035704 68256424 68486256 68724280 68968960 69218288 69471136 
3301.823 69727440 69987712 70253136 70524704 70802776 71087032 71376320 
3305.199 71669464 71965744 72264584 72566048 72870776 73179760 73493904 
3308.574 73814768 74143440 74481024 74827760 75183648 75547304 75917552 
3311.949 76293208 76673608 77058824 77449520 77845776 78247536 78653768 
3315.324 79063000 79473688 79885048 80296960 80710616 81126872 81546632 
3318.700 81970088 82396600 82824968 83254088 83683032 84110864 84536664 
3322.075 84959456 85377344 85789288 86194472 86593688 86988528 87381184 
3325.450 87773056 88163936 88552208 88934808 89308472 89670880 90020752 
3328.825 90358344 90683464 90996072 91294552 91576792 91840632 92085256 
3332.201 92310968 92519408 92711784 92888456 93047784 93186512 93301256 
3335.576 93389664 93451496 93489016 93505616 93504224 93486136 93450552 
3338.951 93394392 93313952 93205896 93068184 92900184 92702184 92475048 
3342.326 92219544 91936232 91625608 91288416 90925224 90537032 90124072 
3345.702 89686152 89223176 88734912 88222024 87686800 87131776 86560112 
3349.077 85974592 85376936 84768064 84148784 83519344 82880904 82234800 
3352.452 81582816 80926576 80267504 79606920 78946712 78289240 77637240 
3355.827 76994136 76363080 75745016 75140784 74549704 73970896 73403736 
3359.203 72848872 72307632 71781408 71271088 70776608 70296488 69828688 
3362.578 69371304 68922864 68483272 68053296 67634208 67227056 66833036 
3365.953 66452996 66087796 65738172 65404504 65087220 64785288 64496904 
3369.328 64219348 63949072 63682644 63417420 63150972 62881320 62607096 
3372.704 62326956 62039776 61745296 61443732 61136000 60823572 60507140 
3376.079 60186756 59861128 59527688 59184324 58828944 58460808 58079808 
3379.454 57687560 57284516 56871152 56447356 56011944 55564056 55103012 
3382.829 54629380 54144212 53649128 53146480 52638432 52127164 51614816 
3386.205 51103524 50594952 50090512 49591108 49096696 48607252 48121880 
3389.580 47640192 47162068 46687748 46217412 45751748 45291396 44836864 
3392.955 44388636 43947144 43512432 43084344 42661720 42243048 41826604 
3396.330 41410960 40995456 40580608 40168264 39760412 39359032 38965536 
3399.706 38579596 38199896 37824212 37450304 37076424 36702112 36326896 
3403.081 35951824 35577936 35206028 34837128 34472056 34111268 33755044 
3406.456 33403404 33056018 32712124 32371216 32032896 31697474 31365942 
3409.831 31039686 30720250 30408618 30105452 29809876 29520602 29236374 
3413.207 28955450 28677044 28400762 28126458 27854942 27586984 27323214 
3416.582 27064754 26811980 26564954 26323526 26086628 25853096 25622044 
3419.957 25392660 25165506 24941276 24721724 24508168 24301658 24101446 
3423.332 23906576 23714838 23524304 23333330 23141706 22949746 22758676 
3426.708 22569676 22384076 22202076 22023916 21848584 21675862 21505092 
3430.083 21335884 21168934 21004516 20843394 20686260 20533350 20384626 
3433.458 20239528 20097014 19955724 19814760 19673180 19531058 19388706 
3436.833 19246954 19106670 18968160 18831042 18694870 18558290 18420578 
3440.208 18281110 18140168 17998444 17856938 17716962 17579102 17443494 
3443.584 17310064 17177538 17045020 16911504 16776277 16639473 16501850 
3446.959 16365098 16231140 16102208 15979022 15861919 15750002 15641445 
3450.334 15534496 15427675 15320296 15212500 15104866 14998117 14892319 
3453.709 14787199 14681590 14574705 14465825 14354780 14242633 14130277 
3457.085 14018668 13908422 13799195 13690406 13581304 13471237 13359968 
3460.460 13247771 13135295 13023259 12912241 12802992 12695885 12591159 
3463.835 12488982 12389385 12292231 12197178 12103576 12011357 11919702 
3467.210 11828578 11737404 11645842 11553244 11459441 11364025 11267339 
3470.586 11170061 11073350 10977917 10884781 10793841 10704922 10617447 
3473.961 10531043 10445538 10361508 10279362 10199809 10123153 10048817 
3477.336 9976087 9903979 9831646 9758716 9685017 9610790 9536406 9462305 
3481.194 9389166 9317900 9249861 9186503 9128739 9077003 9030112 8986440 
3485.051 8943482 8898871 8851458 8801346 8749683 8698466 8649622 8604365 
3488.908 8562932 8524915 8489098 8454805 8422338 8391665 8363797 8339443 
3492.766 8318907 8302561 8290572 8282466 8278684 8279122 8283850 8292632 
3496.623 8304790 8319887 8336943 8356230 8377714 8402272 8430683 8463691 
3500.481 8501533 8544042 8590846 8642118 8697757 8758608 8825995 8900934 
3504.338 8984715 9077985 9180819 9292172 9410158 9532680 9657269 9781691 
3508.196 9905233 10028200 10152253 10280143 10414551 10557421 10708895 
3511.571 10867761 11031714 11198280 11365215 11531195 11695637 11858134 
3514.946 12018272 12174585 12325534 12469306 12605144 12732904 12853364 
3518.321 12967439 13075432 13176416 13268610 13348966 13415325 13465290 
3521.697 13497726 13512628 13509484 13488498 13448782 13389594 13310425 
3525.072 13210777 13091106 12952145 12795280 12621893 12433742 12232824 
3528.447 12021406 11801578 11575907 11345726 11112610 10877273 10640129 
3531.822 10401757 10162870 9923674 9684306 9444629 9203561 8960529 8715538 
3535.680 8469739 8225665 7987028 7757291 7539307 7334272 7141190 6958395 
3539.537 6783182 6612514 6444570 6278204 6112607 5947678 5783080 5618746 
3543.395 5454541 5290465 5126551 4963270 4801055 4640675 4483368 4330903 
3547.252 4184948 4047838 3920434 3802727 3692872 3587788 3483899 3377964 
3551.109 3268516 3156059 3043297 2933800 2831301 2737662 2653411 2576743 
3554.967 2504987 2435241 2365474 2294286 2221610 2147615 2072900 1997832 
3558.824 1922777 1847934 1773504 1700117 1627940 1557172 1487978 1419626 
3562.682 1351550 1282090 1209252 1130811 1044081 947075 839466 723321 603292 
3567.021 486779 381241 292539 222751 170044 129639 95270 61600 24851 -16732 
3571.843 -62950 -112939 -165539 -219921 -276183 -334359 -393917 -454162 
3575.700 -513572 -570656 -624425 -674780 -722813 -770047 -818302 -868733 
3579.558 -921903 -977479 -1034603 -1091784 -1147405 -1200078 -1248351 
3582.933 -1291134 -1328298 -1360801 -1391254 -1423422 -1461664 -1510568 
3586.308 -1572045 -1645496 -1726821 -1809221 -1884644 -1947387 -1994225 
3589.684 -2025293 -2043596 -2053391 -2059195 -2065230 -2074727 -2089797 
3593.059 -2111395 -2139323 -2172029 -2207271 -2242280 -2274220 -2301115 
3596.434 -2321813 -2335984 -2344157 -2347750 -2347519 -2344058 -2337995 
3599.809 -2329063 -2317528 -2303488 -2287107 -2269341 -2250982 -2233017 
3603.185 -2216699 -2203513 -2195436 -2195106 -2205458 -2229720 -2270660 
3606.560 -2329854 -2406604 -2497341 -2596294 -2696179 -2789589 -2872050 
3609.935 -2942319 -3002607 -3057260 -3110458 -3165328 -3221967 -3277875 
3613.310 -3328679 -3370534 -3401307 -3421821 -3435694 -3447856 -3463865 
3616.686 -3487663 -3521286 -3564339 -3613664 -3664495 -3711509 -3749845 
3620.061 -3776715 -3791332 -3795273 -3791890 -3784401 -3776452 -3770179 
3623.436 -3766401 -3764792 -3764529 -3764168 -3764430 -3768043 -3779474 
3626.811 -3804996 -3850451 -3917771 -4002218 -4091769 -4170243 -4223109 
3630.187 -4244437 -4236791 -4209195 -4172737 -4136505 -4107098 -4087600 
3633.562 -4077524 -4074734 -4076703 -4081397 -4088684 -4099253 -4113990 
3636.937 -4132862 -4154063 -4174936 -4192131 -4203781 -4209458 -4211000 
3640.312 -4211394 -4213724 -4219565 -4228162 -4237349 -4243485 -4244076 
3643.688 -4238235 -4227079 -4214216 -4204273 -4201188 -4208014 -4226226 
3647.063 -4255232 -4293159 -4337940 -4386718 -4437098 -4484848 -4524986 
3650.438 -4551775 -4560627 -4549971 -4521903 -4481765 -4437098 -4395902 
3653.813 -4365299 -4350078 -4351980 -4369661 -4397739 -4428373 -4454414 
3657.188 -4470156 -4473567 -4465597 -4449593 -4429816 -4410138 -4394558 
3660.564 -4385439 -4383897 -4389375 -4399773 -4412236 -4423913 -4432244 
3663.939 -4435392 -4432342 -4422338 -4404955 -4379994 -4347913 -4310088 
3667.314 -4268914 -4226390 -4181958 -4129711 -4057107 -3944926 -3772609 
3670.689 -3526643 -3203285 -2809835 -2359053 -1865872 -1346367 -818632 
3674.065 -312904 124303 435732 563810 477425 184927 -271812 -837780 -1459154 
3678.404 -2087686 -2683995 -3215159 -3655164 -3993190 -4232132 -4389375 
3681.780 -4488094 -4551775 -4598037 -4635869 -4667863 -4693201 -4712245 
3685.155 -4727060 -4742988 -4765602 -4799913 -4847230 -4904666 -4965991 
3688.530 -5022953 -5069329 -5101193 -5117664 -5120088 -5110460 -5090812 
3691.905 -5063892 -5033598 -5003858 -4978734 -4960914 -4950595 -4946402 
3695.281 -4945059 -4943520 -4939359 -4931890 -4922128 -4912398 -4905485 
3698.656 -4903454 -4907680 -4919146 -4937230 -4960521 -4986465 -5011653 
3702.031 -5031895 -5044242 -5046960 -5040541 -5027145 -5010212 -4993180 
3705.406 -4977915 -4965271 -4954330 -4943978 -4933331 -4922521 -4913216 
3708.781 -4908007 -4909514 -4919769 -4938704 -4964714 -4994391 -5023018 
3712.157 -5045781 -5058816 -5059700 -5047877 -5025049 -4994555 -4960980 
3715.532 -4929499 -4905124 -4891102 -4888579 -4896573 -4911742 -4929892 
3718.907 -4947876 -4963535 -4976670 -4988266 -4999108 -5009131 -5017843 
3722.282 -5023837 -5026163 -5025672 -5023706 -5023051 -5025802 -5032713 
3725.658 -5042342 -5051512 -5056000 -5052364 -5038871 -5016697 -4989445 
3729.033 -4962159 -4940244 -4928614 -4930350 -4945714 -4972248 -5004938 
3732.408 -5037986 -5067102 -5091008 -5111312 -5131679 -5154568 -5179975 
3735.783 -5203810 -5220081 -5222766 -5209310 -5181220 -5143598 -5102176 
3739.159 -5061698 -5025016 -4993016 -4965730 -4944797 -4933790 -4939851 
3742.534 -4971167 -5033335 -5124377 -5229085 -5322638 -5378080 -5382105 
3745.909 -5338741 -5265618 -5183773 -5111573 -5062353 -5042244 -5050039 
3749.284 -5078564 -5117271 -5155779 -5186883 -5207444 -5216676 -5213861 
3752.660 -5198310 -5169662 -5129551 -5081806 -5032779 -4988823 -4955083 
3756.035 -4934609 -4926780 -4929236 -4937787 -4948335 -4958654 -4967433 
3759.410 -4973886 -4976933 -4974705 -4965173 -4947549 -4923503 -4896737 
3762.785 -4872001 -4854406 -4846968 -4849983 -4860697 -4874655 -4887170 
3766.161 -4895263 -4899031 -4900865 -4904141 -4911152 -4922619 -4937262 
3769.536 -4952102 -4963338 -4968448 -4966516 -4958359 -4945714 -4930973 
3772.911 -4915968 -4901684 -4888186 -4874786 -4860533 -4844576 -4826849 
3776.286 -4809023 -4793982 -4785363 -4786051 -4797423 -4817674 -4842151 
3779.662 -4864334 -4877996 -4880257 -4871542 -4855684 -4837957 -4823474 
3783.037 -4814856 -4812824 -4815445 -4820001 -4824227 -4826915 -4828291 
3786.412 -4829503 -4831600 -4834582 -4838219 -4841430 -4843659 -4844511 
3789.787 -4844249 -4843069 -4840415 -4835794 -4827865 -4816625 -4802895 
3793.163 -4789263 -4779399 -4776810 -4783331 -4798537 -4818821 -4838514 
3796.538 -4851424 -4853161 -4843134 -4824326 -4802895 -4786084 -4781430 
3799.913 -4794178 -4825407 -4870362 -4919048 -4957999 -4976343 -4969660 
3803.288 -4941358 -4900538 -4858338 -4826292 -4812923 -4821934 -4850802 
3806.664 -4890479 -4928417 -4952528 -4956688 -4940997 -4910759 -4872623 
3810.039 -4832026 -4792737 -4755868 -4721979 -4691464 -4666257 -4649506 
3813.414 -4645572 -4657407 -4685629 -4727158 -4773795 -4814299 -4838383 
3816.789 -4840939 -4823277 -4792605 -4759014 -4733090 -4723454 -4734991 
3820.165 -4767502 -4814987 -4865710 -4905910 -4925960 -4923143 -4901324 
3823.540 -4868921 -4835336 -4807843 -4790639 -4784085 -4785232 -4789066 
3826.915 -4790508 -4786313 -4776318 -4762750 -4749018 -4738006 -4731419 
3830.290 -4729092 -4729551 -4730370 -4729616 -4725716 -4718341 -4707492 
3833.666 -4694283 -4680123 -4667273 -4658324 -4656521 -4664454 -4683466 
3837.041 -4712507 -4747576 -4782905 -4812562 -4832419 -4841136 -4840120 
3840.416 -4832223 -4821377 -4810072 -4800634 -4793916 -4789885 -4787821 
3843.791 -4786445 -4784085 -4779235 -4770157 -4756950 -4739809 -4720144 
3847.167 -4699757 -4679893 -4661406 -4643966 -4627575 -4612822 -4602299 
3850.542 -4601053 -4615708 -4654161 -4720505 -4812759 -4918556 -5016959 
3853.917 -5086817 -5115994 -5105450 -5065726 -5010015 -4949908 -4892118 
3857.292 -4839956 -4794506 -4755409 -4722799 -4697495 -4679566 -4669338 
3860.667 -4666159 -4668191 -4673370 -4680713 -4689465 -4700511 -4714244 
3864.043 -4729714 -4743742 -4752099 -4750559 -4737744 -4716604 -4693005 
3867.418 -4675894 -4673370 -4690120 -4725814 -4773598 -4821278 -4855586 
3870.793 -4869052 -4861320 -4838383 -4809384 -4783135 -4764782 -4755475 
3874.168 -4752492 -4750461 -4744168 -4730370 -4709066 -4683401 -4657964 
3877.544 -4637508 -4626297 -4626657 -4638557 -4658980 -4682450 -4702576 
3880.919 -4713884 -4713130 -4700937 -4680844 -4659406 -4642294 -4635738 
3884.294 -4643277 -4664323 -4694316 -4725257 -4748822 -4758293 -4751903 
3887.669 -4732337 -4705296 -4677435 -4654882 -4641835 -4640229 -4648326 
3891.045 -4661700 -4674649 -4681827 -4680385 -4669732 -4651407 -4628460 
3894.420 -4603807 -4579677 -4558332 -4540561 -4527641 -4520198 -4519148 
3897.795 -4524362 -4534953 -4549217 -4564070 -4576824 -4585677 -4590234 
3901.170 -4592693 -4595774 -4602889 -4615970 -4634361 -4655341 -4674714 
3904.546 -4687563 -4691038 -4684089 -4668060 -4646392 -4622198 -4598430 
3907.921 -4576857 -4557906 -4541282 -4526166 -4511869 -4497375 -4482913 
3911.296 -4468418 -4454021 -4440377 -4428275 -4419157 -4414139 -4414533 
3914.671 -4420961 -4433064 -4449298 -4466877 -4482847 -4494555 -4500424 
3918.047 -4500589 -4496489 -4489668 -4482356 -4475272 -4468811 -4463138 
3921.422 -4458514 -4455529 -4455300 -4458514 -4465040 -4473435 -4481109 
3924.797 -4484848 -4482191 -4472156 -4456021 -4436737 -4418239 -4404004 
3928.172 -4395804 -4394000 -4396919 -4402462 -4408498 -4413614 -4418140 
3931.548 -4422896 -4428800 -4436376 -4444936 -4453135 -4459694 -4463138 
3934.923 -4462810 -4459071 -4452381 -4443362 -4432703 -4421059 -4409022 
3938.298 -4397739 -4388456 -4382585 -4381273 -4385341 -4394197 -4406858 
3941.673 -4421453 -4435622 -4447002 -4454250 -4456579 -4454152 -4447920 
3945.049 -4439557 -4430735 -4423158 -4418075 -4416435 -4417714 -4420994 
3948.424 -4425061 -4427980 -4428603 -4426012 -4420075 -4411384 -4400396 
3951.799 -4387800 -4374975 -4362773 -4352702 -4345814 -4343090 -4344370 
3955.174 -4348733 -4354178 -4358213 -4359197 -4356015 -4349258 -4340958 
3958.550 -4333512 -4329050 -4328591 -4331937 -4337054 -4342172 -4345321 
3961.925 -4345321 -4341877 -4335775 -4327869 -4319208 -4310548 -4302411 
3965.300 -4295489 -4290567 -4287484 -4286598 -4286926 -4286959 -4285187 
3968.675 -4279839 -4270324 -4257069 -4241385 -4225241 -4210639 -4198859 
3972.051 -4190031 -4183928 -4179366 -4175559 -4171884 -4168241 -4164532 
3975.426 -4160988 -4157608 -4154228 -4150322 -4146023 -4140805 -4135324 
3978.801 -4129515 -4124329 -4120095 -4117108 -4115762 -4115730 -4117042 
3982.176 -4118782 -4120292 -4120850 -4119963 -4117600 -4114318 -4111036 
3985.552 -4108837 -4108739 -4110839 -4114909 -4120554 -4126594 -4132074 
3988.927 -4136538 -4138934 -4139196 -4136833 -4132239 -4125674 -4118224 
3992.302 -4111758 -4108181 -4108804 -4114647 -4125051 -4138179 -4151832 
3995.677 -4163351 -4170735 -4173360 -4171621 -4166600 -4160397 -4154228 
3999.052 -4149272 -4146187 -4145202 -4146285 
##END=
