##TITLE=Z327c_2_b
##JCAMP-DX=5.01  $$ Nicolet v. 1
##DATATYPE=INFRARED SPECTRUM
##ORIGIN=UniL
##OWNER=Nicolet
##LONGDATE=2011/09/28
##TIME=14:04:59
##SPECTROMETER/DATA SYSTEM=Nicolet iS5
##DATA PROCESSING=
Ratio against background
%Transmittance->Absorbance
Truncated
ElementMultiply or ElementDivide
##COMMENTS=
Number of sample scans: 32
Collection length: 51.17 sec
Sample gain: 2.0
Background collected on: Mer Sep 28 13:59:45 2011 (GMT+02:00);
Number of background scans: 32
Background gain: 2.0
Sample spacing:  1.000
Number of scan points: 12415
Resolution points: 8192
Number of FFT points: 65536
Apodization: N-B fort;
Phase correction: Mertz;
Laser frequency: 15798.0 cm-1
Number of rejected sample scans: 0
Number of rejected background scans: 0
Bench serial number: ASB1000141;
##RESOLUTION=4.000
##XUNITS=1/CM
##YUNITS=ABSORBANCE
##FIRSTX=649.893372
##LASTX=4000.122314
##FIRSTY=0.123906
##MAXX=4000.122314
##MINX=649.893372
##MAXY=0.291554
##MINY=-0.001788
##XFACTOR=1.000000
##YFACTOR=1.000000E-009
##NPOINTS=6950
##DELTAX=0.482117
##ZPD=6100
##XYDATA=(X++(Y..Y))
649.893 123906136 123285192 122726208 122260856 121895792 121620808 
652.786 121421072 121292072 121245592 121303504 121484872 121794720 
655.679 122218224 122730432 123309480 123951664 124673520 125505344 
658.571 126472768 127579584 128804696 130111784 131470936 132875336 
661.464 134347728 135926880 137648688 139521616 141520512 143593840 
664.357 145688816 147769152 149809312 151788464 153655312 155296672 
667.250 156546720 157239840 157306656 156822720 155959760 154880176 
670.142 153671360 152350016 150896304 149292496 147552128 145727360 
673.035 143889344 142110512 140433440 138863664 137382192 135966016 
675.928 134606720 133315768 132115616 131023256 130036232 129130616 
678.820 128269256 127416360 126553016 125679400 124809536 123957176 
681.713 123125592 122303496 121472608 120617448 119736392 118843344 
684.606 117963176 117119328 116323104 115571704 114850992 114145096 
687.498 113443656 112746360 112059136 111388240 110733864 110088800 
690.391 109441536 108783528 108113856 107440744 106777336 106135960 
693.284 105523872 104942392 104391720 103876984 103411496 103017152 
696.177 102718640 102534664 102474040 102532360 102696568 102950280 
699.069 103281264 103684224 104158720 104704456 105316864 105983120 
701.962 106684768 107401840 108116784 108819800 109506216 110173896 
704.855 110818240 111430896 112002144 112525616 113003432 113447144 
707.747 113874248 114303712 114748144 115212776 115699136 116212024 
710.640 116765448 117387648 118113232 118972184 119978376 121117088 
713.533 122343936 123587160 124769480 125819056 126684560 127345440 
716.425 127810288 128112656 128303080 128447680 128622560 128902376 
719.318 129360704 130053136 131001264 132183296 133523448 134900656 
722.211 136148096 137090928 137575728 137489920 136797936 135546656 
725.104 133866640 131935672 129953904 128107280 126520872 125259056 
727.996 124322968 123671160 123240696 122969920 122814968 122746784 
730.889 122748976 122809072 122911824 123039592 123176936 123314760 
733.782 123453872 123601832 123768344 123957576 124165768 124382312 
736.674 124596088 124800696 124997672 125194520 125398872 125613080 
739.567 125831096 126040800 126230184 126394344 126538384 126676304 
742.460 126823288 126990560 127179728 127384992 127596424 127807752 
745.352 128018720 128234448 128459840 128694432 128928184 129145640 
748.245 129330008 129471272 129570392 129638048 129689768 129737600 
751.138 129786568 129834192 129875256 129906536 129931376 129958424 
754.031 129997656 130055096 130129304 130212560 130295576 130372776 
756.923 130445656 130521776 130610080 130716608 130840736 130976144 
759.816 131114352 131250072 131382632 131516232 131654176 131796880 
762.709 131939128 132073256 132195024 132308784 132431256 132591696 
765.601 132826656 133170680 133652120 134282864 135052624 135921296 
768.494 136817744 137645696 138286928 138632448 138608656 138201472 
771.387 137472768 136553152 135618736 134829056 134293504 134033200 
774.279 133979352 133990896 133897392 133560448 132894632 131888720 
777.172 130587832 129066512 127391648 125599536 123693184 121650408 
780.065 119443320 117052376 114479768 111748096 108899880 105986552 
782.958 103064320 100192216 97421944 94798512 92358176 90122112 88100656 
786.332 86293808 84694776 83293784 82080944 81048512 80189304 79496648 
789.707 78962960 78579672 78338480 78234168 78265752 78438936 78764696 
793.082 79257936 79932968 80798288 81852888 83083464 84462240 85946880 
796.457 87488368 89032296 90528056 91941432 93261536 94510584 95742120 
799.832 97040248 98501992 100207824 102202664 104460920 106875808 109241432 
803.206 111282488 112703920 113221448 112651048 110948480 108230704 
806.099 104748984 100835200 96838904 93021712 89530944 86381232 83482480 
809.474 80687400 77853024 74896536 71809160 68657248 65545516 62593200 
812.849 59896456 57509292 55448508 53697640 52223112 50983004 49938376 
816.224 49055996 48306408 47666004 47115936 46642444 46237128 45896676 
819.598 45619636 45405196 45251164 45153472 45108036 45111964 45164980 
822.973 45269372 45428560 45645732 45922384 46258216 46651332 47098508 
826.348 47594640 48131540 48696904 49273440 49841776 50385188 50894444 
829.723 51374908 51848812 52357844 52955320 53703496 54665564 55890020 
833.098 57402828 59190248 61191540 63283736 65284460 66983508 68147104 
836.473 68575760 68151048 66854096 64783328 62124484 59130068 56052548 
839.847 53104280 50447408 48166452 46284384 44778564 43602472 42701164 
843.222 42021544 41521052 41163940 40920196 40766764 40684592 40659668 
846.597 40683280 40748712 40849860 40979364 41128060 41286652 41448612 
849.972 41611364 41777424 41951944 42141648 42351264 42583756 42840320 
853.347 43122584 43433400 43777944 44162184 44592220 45072120 45604808 
856.721 46193164 46842144 47559408 48357260 49250832 50256348 51392888 
860.096 52681372 54144136 55807272 57693504 59814808 62160080 64684488 
863.471 67303840 69887920 72284776 74336616 75901056 76889160 77275072 
866.846 77108008 76499272 75613872 74646608 73778864 73177328 72969384 
870.221 73231216 74000088 75272376 77012696 79153440 81598328 84226536 
873.596 86878152 89371600 91517024 93120448 94029632 94151064 93465672 
876.970 92033128 89979952 87482568 84723808 81882144 79108160 76500976 
880.345 74116520 71966376 70030264 68270232 66647492 65135152 63723736 
883.720 62422468 61252160 60238744 59402604 58752424 58284724 57986648 
887.095 57840692 57830208 57944540 58179240 58534664 59012688 59614376 
890.470 60338484 61182840 62146696 63233256 64451160 65814816 67342960 
893.844 69054952 70968872 73096432 75436368 77965296 80628792 83337896 
897.219 85955240 88312568 90229448 91525288 92067112 91787624 90698320 
900.594 88886712 86503256 83742728 80799808 77862296 75090640 72595608 
903.969 70451360 68693696 67327712 66339568 65704600 65395764 65386176 
907.344 65653680 66182680 66962092 67986448 69253728 70765024 72521872 
910.719 74523896 76763872 79224024 81870016 84644600 87475280 90273248 
914.093 92945040 95414104 97627088 99567528 101258144 102760080 104160872 
917.468 105553016 107024760 108632704 110385368 112230680 114053400 
920.361 115692440 116947576 117632112 117610952 116831784 115356912 
923.254 113364368 111145224 109038832 107408672 106591752 106819752 
926.146 108204896 110698896 114105448 118076184 122157904 125889000 
929.039 128814640 130586536 131012472 130046384 127781376 124395944 
931.932 120124896 115206768 109863784 104312760 98744240 93330512 88233112 
935.306 83579712 79469792 75971976 73118072 70914768 69349376 68399056 
938.681 68031944 68204856 68860504 69911312 71236888 72695096 74117344 
942.056 75338496 76224880 76679976 76668160 76213272 75393640 74320616 
945.431 73118072 71910384 70794552 69838024 69077912 68521792 68157520 
948.806 67960296 67902880 67957080 68097016 68300976 68548288 68820592 
952.181 69103280 69385912 69663960 69938944 70217144 70506784 70815448 
955.555 71148776 71509512 71898368 72315416 72760720 73234192 73735128 
958.930 74261208 74808712 75373416 75952168 76544320 77152048 77779072 
962.305 78429288 79104664 79804696 80526792 81267912 82026232 82802320 
965.680 83597944 84415520 85256320 86120128 87006184 87914088 88845320 
969.055 89803200 90792240 91815784 92875440 93970432 95099784 96263384 
972.429 97464200 98707480 99999840 101346000 102747696 104202864 105707808 
975.804 107260440 108862408 110519968 112242048 114038240 115916776 
978.697 117883448 119944832 122110504 124395328 126820672 129410248 
981.590 132186312 135165920 138355776 141751984 145336624 149078720 
984.482 152925616 156795536 160581280 164137360 167292176 169877680 
987.375 171734240 172746688 172864528 172105808 170558816 168364608 
990.268 165716240 162824656 159897424 157136528 154702064 152709152 
993.160 151229616 150287376 149872720 149953120 150488192 151436832 
996.053 152761616 154432656 156421200 158698240 161235568 164003056 
998.946 166971104 170111296 173388064 176753952 180145472 183472464 
1001.839 186628464 189503872 191992912 194019008 195544496 196574960 
1004.731 197157632 197376400 197349120 197205616 197086144 197129888 
1007.624 197449088 198131360 199228320 200755152 202699824 205032064 
1010.517 207717744 210721296 214010480 217555104 221318256 225257584 
1013.409 229327776 233480976 237674864 241871024 246022288 250063472 
1016.302 253896480 257377232 260337376 262597328 263996000 264436864 
1019.195 263903312 262479072 260330800 257709744 254922240 252273472 
1022.087 250070656 248571248 247948128 248298272 249625456 251859152 
1024.980 254864864 258477120 262523648 266822272 271205088 275510816 
1027.873 279570944 283228864 286339424 288780672 290477120 291397760 
1030.766 291554304 290985472 289745760 287894304 285486848 282581184 
1033.659 279234688 275497280 271410016 266995552 262260048 257200000 
1036.552 251817280 246132736 240196992 234087552 227899472 221739984 
1039.446 215707536 209889136 204360304 199174256 194363216 189931200 
1042.339 185846704 182040400 178406592 174828432 171185952 167387024 
1045.232 163390256 159209760 154916208 150616448 146446912 142544880 
1048.125 139027792 135995072 133510752 131604464 130276248 129500168 
1051.018 129231792 129412976 129984376 130887496 132065984 133470144 
1053.911 135047280 136734688 138460880 140134768 141650144 142902352 
1056.804 143786944 144217760 144139808 143530064 142406416 140825168 
1059.697 138887040 136725664 134493536 132363024 130494608 129026296 
1062.590 128072576 127705960 127962888 128843832 130317808 132322712 
1065.483 134765168 137531792 140481696 143454416 146295472 148851840 
1068.376 150995856 152638992 153725728 154236240 154176880 153573856 
1071.269 152465648 150896400 148918656 146585888 143952480 141078272 
1074.162 138025664 134865408 131684240 128577112 125650064 123015880 
1077.055 120774728 119014848 117803168 117174784 117134120 117648448 
1079.948 118651528 120034112 121649920 123333776 124895448 126154784 
1082.842 126971376 127255320 126995656 126258280 125183776 123956032 
1085.735 122776456 121852056 121352624 121408176 122099920 123450528 
1088.628 125427496 127941576 130864472 134025096 137227456 140284800 
1091.521 143016736 145275568 146961056 148011024 148404512 148153568 
1094.414 147297456 145894480 144014176 141738112 139149008 136328368 
1097.307 133361440 130327240 127300576 124349752 121523536 118847920 
1100.200 116318984 113904520 111548296 109182336 106749328 104211792 
1103.093 101568368 98854568 96142440 93528216 91111304 88993656 87259280 
1106.468 85966792 85153592 84832112 84994992 85618992 86669728 88104632 
1109.844 89870520 91909864 94156456 96531496 98950800 101316504 103519768 
1113.219 105456152 107024160 108140544 108753776 108843976 108425696 
1116.112 107540560 106253120 104640192 102778304 100745224 98607552 96416312 
1119.487 94210168 92011376 89831032 87675080 85549392 83464408 81438872 
1122.862 79497208 77668312 75982512 74464736 73135368 72008576 71092888 
1126.238 70394400 69918744 69671816 69660264 69888888 70358280 71061200 
1129.613 71979864 73086240 74337360 75678864 77047672 78369560 79572856 
1132.988 80594640 81388784 81938912 82260824 82404248 82439496 82450920 
1136.363 82522560 82717288 83074520 83599152 84263784 85009144 85753112 
1139.739 86406144 86872112 87066424 86925464 86405328 85488032 84177064 
1143.114 82494264 80474432 78162128 75612328 72883632 70038600 67143128 
1146.489 64256340 61433424 58722532 56159400 53771140 51575264 49579968 
1149.864 47787268 46194272 44795056 43581592 42544212 41672852 40956644 
1153.240 40385440 39951084 39647752 39472340 39423724 39501480 39705256 
1156.615 40033952 40486832 41063848 41766448 42597828 43561516 44660556 
1159.990 45895936 47265716 48764000 50380200 52099256 53897352 55741980 
1163.365 57592552 59397472 61099728 62643684 63973448 65042540 65815432 
1166.740 66267080 66386708 66176624 65652756 64841912 63780224 62511004 
1170.116 61077876 59525104 57895132 56224564 54547320 52893748 51289400 
1173.491 49758316 48321332 46995116 45793496 44725232 43794692 43003012 
1176.866 42349004 41830984 41447704 41198844 41084572 41105696 41263004 
1180.241 41557724 41992344 42569904 43294860 44171832 45204432 46394720 
1183.617 47741888 49241964 50884608 52650924 54512160 56422756 58321748 
1186.992 60138876 61791824 63200564 64298028 65031112 65372772 65322124 
1190.367 64905508 64170560 63180864 62012408 60738964 59431516 58155300 
1193.742 56961584 55892620 54979948 54243164 53692656 53329224 53145392 
1197.118 53124388 53240596 53461412 53743728 54037556 54290880 54446500 
1200.493 54451568 54262460 53845776 53186888 52291352 51186164 49914812 
1203.868 48533296 47105412 45689128 44336308 43087200 41966396 40986320 
1207.243 40148856 39449012 38877684 38423980 38076792 37824068 37653912 
1210.619 37555672 37520056 37541512 37618320 37752356 37947392 38207348 
1213.994 38534296 38927804 39384320 39897576 40459120 41058604 41682660 
1217.369 42316932 42945472 43551880 44122832 44647556 45119172 45534812 
1220.744 45894248 46199868 46456152 46670744 46854764 47022472 47192464 
1224.120 47384320 47616420 47904572 48258384 48680632 49167076 49707304 
1227.495 50286292 50884644 51482928 52061936 52605368 53103192 53551588 
1230.870 53954820 54323172 54673004 55025716 55404500 55837864 56357220 
1234.245 56995696 57790840 58779544 59994976 61466708 63215396 65252996 
1237.621 67582376 70197864 73085304 76219744 79568160 83085992 86717592 
1240.996 90404488 94083576 97691312 101170304 104463360 107514808 110274520 
1244.371 112693224 114728552 116347312 117523480 118239760 118486800 
1247.264 118262256 117573424 116437720 114884576 112950184 110673376 
1250.157 108091200 105233304 102123808 98786128 95247056 91544960 87733152 
1253.532 83874224 80042952 76318840 72773176 69472968 66469716 63793808 
1256.908 61456668 59447740 57738232 56281516 55020528 53893336 52833424 
1260.283 51781836 50691124 49526968 48274636 46936304 45529848 44082044 
1263.658 42625312 41192540 39810740 38501816 37280760 36156136 35131440 
1267.033 34206044 33375890 32634214 31972830 31384286 30862772 30405420 
1270.409 30011992 29683768 29422020 29226876 29097076 29030474 29025054 
1273.784 29079254 29191828 29360720 29580966 29844584 30138586 30445686 
1277.159 30746140 31016802 31233866 31375952 31424358 31367868 31204280 
1280.534 30942110 30598678 30196372 29760124 29310878 28863550 28427080 
1283.910 28005610 27601990 27221358 26872218 26566400 26317892 26138460 
1287.285 26037618 26021718 26094404 26259034 26519270 26879020 27341352 
1290.660 27906878 28572180 29327788 30158332 31042424 31949970 32843832 
1294.035 33682636 34420872 35018432 35447052 35694904 35771032 35703072 
1297.411 35535076 35315312 35092856 34911812 34804388 34793620 34891448 
1300.786 35098428 35403232 35780636 36195568 36601528 36948988 37194160 
1304.161 37300836 37248740 37033808 36666708 36169028 35569200 34900892 
1307.536 34197800 33492550 32816242 32193690 31643052 31175158 30793408 
1310.912 30496300 30280774 30144552 30087198 30109996 30213884 30397924 
1314.287 30659194 30994026 31399318 31874228 32420482 33040036 33733020 
1317.662 34495876 35319696 36192976 37102732 38036608 38983656 39932916 
1321.037 40870648 41778740 42632988 43402680 44056964 44566004 44907552 
1324.413 45073628 45074104 44939556 44716964 44470448 44269892 44177556 
1327.788 44245752 44502532 44949700 45563848 46304584 47125092 47979500 
1331.163 48834296 49670824 50483132 51275788 52059248 52845848 53646616 
1334.538 54470576 55322032 56200536 57098436 58000012 58884380 59724504 
1337.914 60491944 61160868 61708480 62118444 62381884 62497308 62470332 
1341.289 62312460 62041000 61676436 61241632 60761908 60260140 59756628 
1344.664 59266768 58799120 58356576 57937912 57538720 57152708 56770548 
1348.039 56379972 55964076 55503548 54981488 54386856 53720928 52999600 
1351.415 52255140 51532692 50882968 50362004 50019752 49896076 50017820 
1354.790 50390620 50996976 51791584 52709276 53667872 54576924 55357260 
1358.165 55942216 56287168 56373972 56208724 55821968 55261932 54598268 
1361.540 53915584 53301316 52844276 52611988 52636484 52909468 53382352 
1364.916 53979284 54602888 55155152 55545040 55693352 55550312 55099928 
1368.291 54365756 53404008 52296024 51133232 49994176 48943612 48024684 
1371.666 47259180 46657052 46222388 45959400 45874212 45971736 46249184 
1375.041 46691216 47269856 47951528 48701168 49492764 50311292 51152128 
1378.417 52020516 52928332 53894576 54942532 56099524 57393072 58839300 
1381.792 60432040 62127316 63843660 65455624 66810580 67758784 68156976 
1385.167 67902032 66953392 65355396 63249736 60851356 58422636 56191752 
1388.542 54308940 52839112 51768252 51037332 50566216 50278108 50102744 
1391.917 49976888 49849208 49674164 49416464 49058076 48600400 48064844 
1395.293 47482484 46884032 46288808 45702232 45122588 44550292 43995576 
1398.668 43484160 43051816 42733296 42554264 42522616 42631600 42865412 
1402.043 43207120 43642512 44160972 44756668 45425428 46163276 46965100 
1405.418 47823444 48729416 49674016 50648860 51647884 52667456 53705140 
1408.794 54758696 55825772 56902580 57985624 59072396 60161104 61249948 
1412.169 62333000 63397056 64421296 65380008 66247092 67006900 67658104 
1415.544 68216376 68709808 69174064 69647000 70160984 70743464 71411896 
1418.919 72168128 72997448 73867352 74735392 75554800 76285384 76900032 
1422.295 77387352 77758656 78048136 78310584 78604048 78972856 79435536 
1425.670 79980208 80575136 81182144 81772208 82329112 82851952 83351024 
1429.045 83845160 84358456 84916664 85551168 86294736 87174872 88209640 
1432.420 89399360 90728328 92167560 93687904 95271192 96912008 98621608 
1435.796 100419256 102321616 104325536 106407272 108532336 110662256 
1438.689 112760528 114786160 116691832 118410584 119858504 120952072 
1441.582 121607880 121759680 121368304 120419784 118931400 116949392 
1444.475 114555288 111854784 108962768 106005288 103098392 100345856 
1447.368 97843448 95663432 93847120 92395808 91275296 90430480 89806872 
1450.743 89372776 89125848 89088224 89287712 89737808 90417256 91271368 
1454.118 92207872 93110184 93858760 94337456 94479448 94305184 93947392 
1457.494 93600592 93437120 93564056 94010136 94762408 95796528 97086280 
1460.869 98600696 100291176 102090520 103896136 105568016 106954720 
1463.762 107904800 108316840 108178792 107577664 106666296 105598856 
1466.655 104502352 103452328 102481840 101601072 100802512 100060448 
1469.548 99321184 98497048 97469472 96101384 94288712 92008920 89356664 
1472.923 86517136 83696808 81048440 78637048 76468368 74528584 72816232 
1476.299 71353752 70172664 69287504 68681432 68302296 68081128 67945808 
1479.674 67843144 67748136 67661008 67601192 67595456 67672120 67855888 
1483.049 68172104 68653992 69340440 70274360 71491856 73007992 74802688 
1486.424 76808352 78917336 80973088 82781512 84138688 84832752 84690104 
1489.800 83623696 81661744 78958032 75741496 72264464 68727464 65249956 
1493.175 61891308 58660556 55552196 52581732 49793468 47265164 45090976 
1496.550 43347208 42068196 41239500 40817792 40748748 40984424 41489220 
1499.925 42232276 43180660 44298512 45541840 46863216 48217544 49549768 
1503.301 50795584 51874276 52665736 53016408 52752076 51728796 49923952 
1506.676 47499596 44769196 42044904 39520860 37250112 35198988 33312812 
1510.051 31554356 29912626 28401506 27044584 25857106 24842502 23988890 
1513.426 23277252 22687416 22202740 21809386 21493568 21240988 21039538 
1516.802 20882644 20772518 20717710 20725702 20795840 20916196 21063674 
1520.177 21214300 21353078 21486780 21641662 21852554 22141262 22506232 
1523.552 22927706 23379588 23842864 24311048 24793352 25308148 25875814 
1526.927 26506662 27198146 27939316 28717750 29526666 30366296 31242802 
1530.302 32164146 33135616 34160484 35239084 36369912 37550832 38776380 
1533.678 40036276 41312668 42585216 43833356 45040844 46190844 47266976 
1537.053 48254936 49135764 49891096 50504088 50962436 51259236 51394228 
1540.428 51380540 51240256 51002344 50694996 50335812 49927188 49457900 
1543.803 48913016 48286268 47591796 46863476 46146952 45479472 44874188 
1547.179 44320088 43788424 43250752 42692096 42123612 41578804 41102820 
1550.554 40729388 40468352 40306648 40219728 40185744 40195048 40253460 
1553.929 40375220 40572312 40842800 41168532 41515836 41846412 42116600 
1557.304 42283400 42314484 42206896 42008844 41809968 41706880 41750796 
1560.680 41939136 42241440 42621584 43050244 43506096 43977944 44464064 
1564.055 44969024 45502176 46072048 46681108 47323504 47985680 48649208 
1567.430 49296668 49914064 50493596 51035584 51548404 52044196 52532440 
1570.805 53018168 53500576 53974444 54431552 54861208 55250380 55578520 
1574.181 55821288 55953636 55959288 55843936 55641144 55404424 55178968 
1577.556 54983636 54805040 54609012 54353812 54002812 53535356 52947792 
1580.931 52253420 51473268 50629500 49737284 48803556 47832360 46830516 
1584.306 45809920 44786868 43775344 42781708 41804568 40838068 39879416 
1587.682 38934980 38020840 37158244 36367212 35659080 35035132 34489956 
1591.057 34016836 33610676 33267416 32980654 32735136 32506000 32264244 
1594.432 31981212 31639666 31238494 30791772 30321952 29850122 29391494 
1597.807 28952582 28534988 28142048 27781958 27466814 27209752 27018138 
1601.183 26891604 26822412 26801724 26823258 26885190 26988342 27129682 
1604.558 27296434 27466076 27606438 27684160 27674132 27562270 27349398 
1607.933 27046700 26671064 26238374 25761288 25252274 24726844 24205272 
1611.308 23712948 23271730 22894486 22580462 22316470 22081506 21852798 
1614.684 21613488 21355200 21080858 20803420 20542834 20319624 20148864 
1618.059 20038786 19990176 19997600 20050062 20131546 20223942 20308060 
1621.434 20371222 20411886 20441998 20482772 20555480 20672570 20831716 
1624.809 21020584 21223834 21431636 21640894 21854262 22074918 22302832 
1628.185 22532650 22757000 22970670 23174522 23375044 23580764 23796592 
1631.560 24019952 24238798 24434870 24588808 24683072 24708570 24667640 
1634.935 24575554 24456252 24334598 24229410 24147190 24085650 24037038 
1638.310 23991762 23938750 23866738 23767122 23636040 23477996 23304312 
1641.686 23131082 22971964 22831726 22704838 22575052 22420604 22219268 
1645.061 21957832 21638248 21281352 20922210 20599288 20342608 20165454 
1648.436 20065504 20031152 20046870 20093612 20146226 20172674 20127832 
1651.811 19963010 19649536 19213810 18749044 18364196 18122134 18015298 
1655.187 17997546 18016162 18033016 18028112 17995958 17942188 17876204 
1658.562 17805914 17732598 17651254 17552812 17428870 17275690 17095608 
1661.937 16896726 16690498 16489219 16302310 16136389 15994767 15877213 
1665.312 15779894 15694587 15609021 15507299 15373056 15195101 14971296 
1668.688 14712608 14439962 14179160 13949273 13758631 13604004 13475440 
1672.063 13360037 13244833 13117195 12964845 12777638 12552175 12297241 
1675.438 12034623 11791160 11588702 11434266 11319947 11227997 11138887 
1678.813 11039021 10924364 10801992 10684885 10585124 10504428 10430739 
1682.188 10338909 10198215 9985241 9700975 9379821 9078323 8843613 8689103 
1686.046 8597741 8539209 8486564 8421630 8337281 8234715 8119682 7998806 
1689.903 7877121 7759450 7650613 7556098 7480784 7425200 7383744 7342259 
1693.761 7281504 7181881 7032844 6843463 6644005 6474165 6360102 6303787 
1697.618 6283213 6265362 6214203 6102761 5924501 5702063 5481451 5305491 
1701.476 5193008 5134498 5107039 5086153 5054675 5003657 4930594 4839517 
1705.333 4737539 4634446 4538241 4454979 4387498 4335387 4295798 4264042 
1709.190 4235066 4204754 4171834 4138181 4107741 4084461 4070113 4063356 
1713.048 4060012 4054761 4043390 4023826 3996003 3960323 3915285 3858016 
1716.905 3785914 3701493 3613981 3538479 3488074 3469403 3479690 3509484 
1720.763 3545695 3576429 3594971 3600082 3596574 3591864 3593267 3604426 
1724.620 3624806 3650868 3678736 3706138 3732038 3756134 3777157 3792131 
1728.478 3797713 3792332 3777692 3758441 3740527 3726724 3713590 3690465 
1732.335 3640343 3547766 3406348 3229091 3046433 2894539 2795150 2748499 
1736.192 2738496 2744264 2747765 2736795 2707154 2661612 2608042 2555678 
1740.050 2511618 2479027 2457867 2446770 2444505 2450402 2463565 2481859 
1743.907 2502587 2522983 2541513 2558378 2575243 2593009 2611275 2626609 
1747.765 2633910 2627976 2605842 2567543 2516617 2458700 2399657 2344586 
1751.622 2297151 2259479 2233100 2218147 2213318 2215116 2217647 2214250 
1755.479 2198865 2169160 2128336 2084486 2047299 2022831 2011779 2008118 
1759.337 2003491 1988978 1959820 1916786 1866236 1817455 1777862 1751180 
1763.194 1736676 1730987 1730555 1733216 1737707 1742863 1746523 1745525 
1767.052 1737108 1720542 1698520 1676534 1659703 1650024 1644969 1637751 
1770.909 1619958 1586170 1537354 1482426 1434186 1402772 1391437 1396091 
1774.767 1408756 1421986 1431926 1438973 1446719 1458189 1474313 1491735 
1778.624 1505333 1510055 1503871 1489075 1471321 1457225 1449545 1447584 
1782.481 1446985 1442863 1432857 1417897 1402440 1391936 1389875 1396556 
1786.339 1409221 1424446 1439838 1455130 1471687 1490571 1509988 1526480 
1790.196 1533762 1526148 1501510 1462910 1418429 1377576 1347329 1329814 
1794.054 1322735 1321738 1323300 1325892 1329814 1335165 1341181 1345003 
1797.911 1343175 1333038 1314792 1291428 1268432 1251484 1243343 1243975 
1801.769 1250421 1259127 1268233 1278202 1290730 1307846 1329348 1353212 
1805.626 1375515 1392667 1403105 1407393 1407825 1406495 1404501 1400977 
1809.483 1394263 1383027 1368502 1353412 1342045 1337192 1339186 1345435 
1813.341 1352381 1356769 1358198 1359262 1364148 1377144 1399847 1430962 
1817.198 1466135 1501011 1532466 1560032 1585139 1610679 1638184 1667952 
1821.056 1698520 1727760 1754108 1776465 1794298 1807606 1816290 1820849 
1824.913 1823311 1827803 1838484 1859181 1890362 1928734 1966810 1995569 
1828.771 2007752 2001028 1979791 1954029 1935391 1931696 1944377 1969306 
1832.628 1999829 2030055 2057220 2082522 2109124 2140590 2178018 2220312 
1836.485 2264641 2308542 2352315 2398057 2449403 2509519 2579076 2656545 
1840.343 2738929 2823097 2907514 2991915 3076031 3159396 3240007 3315423 
1844.200 3384375 3448295 3511288 3577866 3650401 3727393 3802928 3868346 
1848.058 3915686 3939626 3939492 3918762 3883457 3838594 3786783 3728094 
1851.915 3661394 3586318 3504975 3421210 3338762 3260103 3184296 3108568 
1855.772 3029750 2946944 2861952 2779544 2704520 2639377 2583276 2532848 
1859.630 2483325 2431709 2378001 2324998 2276466 2234866 2199930 2169493 
1863.487 2141355 2114418 2090180 2071469 2060682 2057353 2058019 2056687 
1867.345 2048065 2030121 2005987 1982620 1968075 1967243 1979824 2001327 
1871.202 2025361 2046866 2063812 2076729 2086817 2094741 2099369 2098237 
1875.060 2089281 2072434 2050562 2027825 2008318 1993538 1981688 1969140 
1878.917 1952398 1930565 1906370 1884206 1868432 1860646 1858582 1856553 
1882.774 1849565 1835024 1814693 1793832 1778494 1772838 1776598 1785880 
1886.632 1794531 1797758 1793100 1781522 1766151 1750848 1738206 1729790 
1890.489 1726031 1727694 1735977 1751613 1773836 1799588 1823710 1840780 
1894.347 1847202 1843675 1833926 1824609 1820882 1824842 1834491 1845771 
1898.204 1854589 1859814 1863407 1869597 1882475 1903075 1929034 1955460 
1902.062 1977561 1992673 2001394 2006387 2010981 2016473 2022032 2024995 
1905.919 2023264 2017172 2009283 2003957 2004423 2011447 2022765 2034516 
1909.776 2043105 2047765 2050295 2053891 2061082 2072234 2084586 2094674 
1913.634 2099602 2099202 2095706 2091944 2089414 2087383 2082156 2070071 
1917.491 2049596 2023730 1999030 1982454 1977860 1984418 1996334 2006453 
1921.349 2008917 2002692 1990642 1978593 1970971 1969373 1970804 1970904 
1925.206 1966044 1956658 1946474 1941448 1946074 1960686 1981489 2002526 
1929.063 2018337 2026926 2029855 2030821 2032718 2035481 2036413 2031553 
1932.921 2019369 2001993 1984451 1973134 1971270 1977694 1987081 1993139 
1936.778 1992074 1985915 1981455 1986914 2007818 2043737 2087749 2130167 
1940.636 2162200 2179283 2184112 2182613 2181248 2183546 2188541 2192970 
1944.493 2194469 2193669 2194335 2201296 2217015 2239395 2262010 2278597 
1948.351 2284493 2281628 2277465 2280429 2297483 2329762 2371937 2415350 
1952.208 2452968 2482026 2504153 2523683 2543813 2563710 2579376 2584742 
1956.065 2577309 2559011 2537347 2521683 2518550 2528748 2547012 2564410 
1959.923 2574043 2573943 2567843 2562277 2562710 2570443 2582242 2593375 
1963.780 2601408 2607442 2616642 2634510 2663446 2700686 2739430 2772174 
1967.638 2796751 2815226 2834803 2862152 2898041 2936969 2968094 2980271 
1971.495 2968061 2934934 2891837 2853346 2830601 2829000 2848310 2885666 
1975.353 2940171 3014769 3113807 3238338 3380936 3524750 3646925 3728763 
1979.210 3760112 3743367 3690833 3619360 3542688 3469436 3401373 3336325 
1983.067 3273958 3215872 3166472 3129259 3104430 3086910 3069424 3046133 
1986.925 3015570 2983541 2959053 2950246 2959654 2982240 3007462 3024979 
1990.782 3028315 3018472 3002658 2990080 2985409 2987911 2991681 2989179 
1994.640 2977035 2957652 2937603 2925627 2927028 2941072 2961956 2983574 
1998.497 3000989 3014068 3026714 3042029 3060081 3076365 3082839 3073161 
2002.354 3045899 3007662 2969795 2946110 2945776 2971097 3017672 3077099 
2006.212 3141874 3208629 3276428 3344505 3409955 3466029 3504106 3520207 
2010.069 3514962 3495789 3474045 3460853 3460585 3471307 3486003 3499130 
2013.927 3508750 3519940 3541452 3581073 3640844 3714961 3790527 3855609 
2017.784 3902681 3931334 3948152 3960791 3975404 3993193 4011218 4026668 
2021.642 4038975 4051584 4070079 4097338 4131624 4164876 4187323 4191806 
2025.499 4176016 4147045 4115702 4092355 4083592 4088040 4099245 4111521 
2029.356 4121656 4131825 4147714 4174711 4213753 4261466 4311794 4359651 
2033.214 4404735 4450159 4500241 4556858 4615592 4667836 4704177 4719484 
2037.071 4715766 4703239 4694530 4698884 4718580 4747320 4773550 4785945 
2040.929 4779446 4755527 4722800 4691215 4666765 4651090 4640943 4631331 
2044.786 4619778 4607555 4599384 4601360 4617969 4649617 4693894 4745243 
2048.644 4796632 4840522 4869573 4876040 4854394 4803869 4729366 4642818 
2052.501 4560574 4500408 4474362 4484874 4523242 4573164 4616931 4641814 
2056.358 4645129 4633508 4619275 4613382 4621151 4640441 4664420 4684248 
2060.216 4694798 4696004 4691717 4687296 4685855 4687497 4690645 4693090 
2064.073 4694932 4698650 4706756 4719987 4735663 4747287 4748024 4733586 
2067.931 4704646 4667200 4629456 4598714 4578254 4566434 4557829 4546578 
2071.788 4530005 4508410 4485376 4464922 4449322 4437673 4428066 4417856 
2075.646 4407380 4398342 4394359 4397572 4407814 4422040 4435028 4443631 
2079.503 4446142 4443899 4440685 4439514 4442292 4448518 4456754 4465357 
2083.360 4474463 4485175 4498433 4514302 4530071 4542259 4546813 4542192 
2087.218 4529302 4511624 4493110 4475634 4458461 4438476 4412032 4377322 
2091.075 4336558 4294694 4259324 4236505 4229747 4238981 4261801 4294225 
2094.933 4332609 4374611 4417455 4457858 4492206 4516746 4529335 4531478 
2098.790 4527427 4523543 4524916 4534793 4551768 4572796 4593792 4613080 
2102.647 4631834 4653502 4681300 4716403 4755795 4795359 4829466 4855399 
2106.505 4873627 4888002 4903115 4921311 4942324 4963069 4980196 4991725 
2110.362 4998797 5004931 5014149 5028864 5048037 5068285 5085617 5097820 
2114.220 5105229 5110895 5118002 5128060 5139561 5148848 5151329 5145361 
2118.077 5132654 5118170 5108179 5107005 5115488 5130877 5148345 5163870 
2121.935 5175840 5186201 5198206 5215073 5238078 5265244 5294087 5321558 
2125.792 5346581 5370063 5393747 5418842 5444810 5469069 5488699 5501819 
2129.649 5508933 5512960 5517960 5528732 5547492 5576086 5615389 5665975 
2133.507 5728586 5803093 5886916 5973879 6056324 6125814 6177467 6211716 
2137.364 6234001 6253429 6277465 6309031 6346081 6381822 6409059 6423519 
2141.222 6425873 6421333 6416525 6415616 6419147 6423754 6425133 6420089 
2145.079 6409328 6396483 6385992 6380444 6379939 6380679 6379334 6373652 
2148.937 6364304 6353377 6341576 6326110 6302207 6261867 6199683 6116135 
2152.794 6016310 5910394 5807962 5715291 5634555 5564910 5507725 5470479 
2156.651 5466754 5513162 5621800 5791542 6005055 6232454 6440333 6601715 
2160.509 6704233 6749730 6749662 6718568 6669205 6610260 6547354 6485365 
2164.366 6429034 6383504 6350452 6326547 6305569 6277767 6235412 6175451 
2168.224 6101484 6019938 5938810 5863138 5793120 5725430 5655669 5581758 
2172.081 5505443 5432497 5368587 5318002 5281107 5253908 5231539 5209876 
2175.938 5186168 5160181 5131916 5100468 5064429 5023367 4978251 4934180 
2179.796 4898625 4877078 4872086 4880597 4893263 4899697 4892258 4869237 
2183.653 4835396 4799547 4769731 4750670 4740453 4734491 4726619 4714661 
2187.511 4699487 4685051 4675975 4673530 4676410 4681133 4684147 4684047 
2191.368 4682305 4681602 4683142 4686525 4688100 4684482 4673497 4657789 
2195.226 4642349 4633307 4635082 4647708 4666865 4686258 4701196 4709871 
2199.083 4714426 4718345 4723269 4728662 4730772 4725279 4710909 4690109 
2202.940 4669377 4655779 4653502 4661607 4673564 4681501 4679023 4664588 
2206.798 4642584 4619945 4603704 4596404 4595433 4596336 4594327 4587998 
2210.655 4580531 4577216 4582306 4596705 4616831 4636489 4650253 4656550 
2214.513 4658157 4660535 4668841 4684717 4704445 4721728 4729097 4722834 
2218.370 4703339 4674669 4642919 4612344 4584214 4557260 4530038 4501781 
2222.228 4474362 4451196 4435028 4426693 4423948 4422208 4417321 4407045 
2226.085 4391447 4373038 4354530 4336793 4319424 4300650 4279301 4256581 
2229.942 4235936 4221482 4216798 4222118 4234999 4250926 4266485 4280238 
2233.800 4293623 4309953 4331974 4360253 4393121 4426426 4456285 4480355 
2237.657 4498834 4512729 4524213 4533654 4540083 4542226 4539480 4532951 
2241.515 4526255 4523442 4528230 4541958 4563655 4591280 4621988 4654306 
2245.372 4687697 4721461 4754187 4783366 4805343 4817036 4817739 4809765 
2249.229 4797939 4787587 4782930 4785744 4795493 4809899 4827891 4849837 
2253.087 4876743 4910018 4948088 4986262 5017568 5034528 5032215 5010964 
2256.944 4975604 4934314 4895776 4866088 4847592 4838445 4834659 4831878 
2260.802 4827087 4819147 4807789 4794019 4778743 4762797 4747756 4735630 
2264.659 4728361 4727389 4732447 4741424 4751072 4758241 4760921 4759548 
2268.517 4756599 4754556 4755393 4759145 4763567 4765611 4762964 4754422 
2272.374 4741525 4727188 4713924 4704344 4699253 4698348 4701095 4707292 
2276.231 4716436 4728729 4743066 4757805 4770669 4779949 4784706 4785945 
2280.089 4785544 4786481 4790602 4799380 4812379 4828728 4847090 4866322 
2283.946 4885053 4901808 4914241 4920205 4918027 4907136 4889443 4868232 
2287.804 4847491 4830973 4820319 4815260 4814288 4815260 4817136 4820386 
2291.661 4825948 4835195 4848262 4864044 4880094 4893967 4904455 4911861 
2295.519 4918195 4925802 4936593 4951037 4968398 4986698 5004663 5021456 
2299.376 5037143 5052362 5067413 5081996 5095372 5106704 5115756 5123199 
2303.233 5130441 5139259 5150826 5165915 5184290 5205617 5229426 5255954 
2307.091 5285367 5317130 5350942 5385159 5418137 5448904 5477290 5504504 
2310.948 5532088 5561453 5592565 5624620 5655434 5683230 5706696 5726336 
2314.806 5743191 5759273 5776532 5795571 5816727 5840200 5865724 5894137 
2318.663 5926113 5962257 6002770 6046681 6092714 6138953 6183147 6222707 
2322.521 6254404 6274002 6277733 6262236 6226370 6172325 6105819 6034620 
2326.378 5967598 5912678 5874019 5852257 5844398 5845708 5850880 5856018 
2330.235 5859511 5861123 5861928 5862768 5864481 5867806 5873683 5883255 
2334.093 5897697 5917447 5941497 5968102 5994809 6019535 6041877 6063313 
2337.950 6086397 6113884 6147355 6186239 6228253 6269800 6307619 6339491 
2341.808 6364674 6382764 6393490 6395844 6387606 6367129 6333305 6288087 
2345.665 6235916 6184390 6142079 6117580 6117849 6147321 6207245 6295752 
2349.522 6408723 6538945 6676978 6813305 6938800 7046988 7135531 7205799 
2353.380 7262231 7310145 7354087 7396787 7439525 7482671 7526395 7571607 
2357.237 7618611 7667002 7715399 7761035 7800705 7832383 7855629 7871115 
2361.095 7881170 7887210 7889301 7886602 7877661 7861432 7838759 7812243 
2364.952 7784918 7759754 7738672 7721470 7706933 7693342 7679278 7664237 
2368.810 7647577 7628862 7607011 7580913 7549321 7512674 7472390 7430862 
2372.667 7391260 7356008 7325645 7299969 7277461 7256807 7237434 7219477 
2376.524 7203441 7189932 7178715 7169013 7160154 7151800 7144255 7139438 
2380.382 7138798 7143851 7155270 7172449 7194177 7219208 7246362 7275068 
2384.239 7305091 7336058 7367163 7397259 7425099 7450008 7472053 7492312 
2388.097 7512101 7532632 7554311 7576665 7598885 7619723 7638405 7654862 
2391.954 7669127 7681673 7692903 7702886 7712161 7721200 7731184 7742990 
2395.812 7757460 7774528 7793217 7812580 7831439 7849893 7868956 7890752 
2399.669 7917105 7949500 7987568 8030263 8075527 8121572 8167757 8214150 
2403.526 8261731 8311680 8364810 8421528 8482105 8546779 8615924 8690015 
2407.384 8769123 8852439 8938476 9025072 9110602 9194389 9277144 9360116 
2411.241 9445374 9533255 9623189 9713106 9800331 9882759 9959170 10029998 
2415.099 10096429 10159682 10220366 10277971 10331240 10378578 10418692 
2418.474 10451511 10477578 10497775 10513356 10525238 10534200 10541431 
2421.849 10547643 10553958 10561426 10570796 10582781 10597992 10617549 
2425.224 10642948 10676565 10720102 10774818 10840719 10916107 10998443 
2428.600 11084940 11173495 11263292 11354433 11448112 11544975 11645604 
2431.975 11749762 11856738 11966158 12077888 12192100 12309683 12431150 
2435.350 12556983 12687800 12823843 12965698 13113917 13268882 13429815 
2438.725 13595731 13764343 13933842 14102620 14269923 14436571 14603557 
2442.101 14771944 14942214 15114163 15287176 15461150 15636260 15813328 
2445.476 15993908 16178655 16367437 16559090 16751517 16942234 17129454 
2448.851 17312444 17490924 17665230 17835430 18001690 18163628 18321340 
2452.226 18474958 18625070 18772396 18917072 19058820 19196876 19329776 
2455.602 19456792 19577468 19691902 19800228 19901990 19996108 20080738 
2458.977 20154000 20214326 20261086 20294834 20316498 20327158 20327296 
2462.352 20316430 20293966 20259490 20213598 20158408 20097500 20035280 
2465.727 19976540 19925786 19886484 19861754 19853394 19862828 19890716 
2469.103 19936644 19999958 20079142 20173090 20280528 20400946 20533802 
2472.478 20678406 20833382 20996762 21166048 21338528 21512404 21686556 
2475.853 21860500 22034236 22206750 22376716 22541304 22697332 22841924 
2479.228 22972594 23087470 23185776 23266486 23329064 23373294 23398996 
2482.604 23407214 23400010 23380322 23351618 23317004 23278548 23237404 
2485.979 23193292 23145656 23094006 23037854 22976960 22911358 22840808 
2489.354 22764646 22682180 22592782 22495972 22391332 22278592 22157058 
2492.729 22026184 21885100 21733684 21572536 21403302 21227522 21047502 
2496.104 20864150 20677294 20485378 20286014 20076922 19856482 19624784 
2499.480 19383476 19135234 18883572 18631988 18383796 18142036 17908626 
2502.855 17685006 17471502 17267276 17071174 16881260 16695973 16514516 
2506.230 16337126 16164899 15999613 15842400 15693866 15553727 15421118 
2509.605 15295139 15175235 15061470 14953909 14852887 14758643 14670725 
2512.981 14589199 14513820 14445202 14384508 14332383 14289714 14256364 
2516.356 14232259 14216442 14208671 14208533 14215860 14230137 14250304 
2519.731 14274511 14300569 14326903 14352622 14378377 14405195 14434652 
2523.106 14467674 14504124 14542839 14582517 14622301 14661609 14701126 
2526.482 14740853 14780685 14819184 14853984 14882272 14902024 14912036 
2529.857 14912277 14903738 14887039 14863037 14831562 14792581 14746645 
2533.232 14695300 14641287 14587554 14536809 14490935 14450307 14414238 
2536.607 14381254 14350259 14320568 14291530 14263143 14235307 14207985 
2539.983 14181009 14155197 14131338 14110697 14094817 14083795 14076745 
2543.358 14071645 14065964 14057613 14045293 14029105 14009839 13988759 
2546.733 13966826 13944175 13920773 13896208 13870516 13844620 13819684 
2550.108 13797246 13778673 13764309 13754117 13747243 13742660 13739445 
2553.484 13737017 13734966 13733393 13732401 13732538 13734350 13738077 
2556.859 13743720 13749945 13755109 13756922 13752989 13741805 13722757 
2560.234 13696972 13665582 13630569 13593303 13554468 13514372 13473424 
2563.609 13432412 13392737 13356312 13324639 13298331 13277423 13260615 
2566.985 13246883 13235029 13225089 13217062 13211323 13207941 13206405 
2570.360 13205927 13206063 13206951 13209684 13215696 13226387 13242305 
2573.735 13263041 13286920 13312202 13337451 13361984 13386279 13410917 
2577.110 13436070 13461838 13487233 13511500 13534300 13556314 13578808 
2580.486 13603525 13631732 13663770 13699195 13736812 13775287 13814587 
2583.861 13854711 13896652 13941403 13989170 14039680 14092112 14145304 
2587.236 14198503 14251331 14303789 14356047 14408449 14461063 14514334 
2590.611 14568742 14625043 14683715 14745069 14808317 14871849 14933263 
2593.987 14990331 15041712 15087164 15127749 15165593 15202891 15241188 
2597.362 15281512 15323523 15366534 15410097 15453906 15497958 15542943 
2600.737 15589513 15638148 15689056 15742341 15797762 15854944 15913988 
2604.112 15974415 16036503 16100524 16166927 16236711 16310429 16388563 
2607.488 16471013 16557094 16645532 16735261 16825286 16915226 17005530 
2610.863 17096540 17189052 17283238 17378756 17474952 17571132 17666610 
2614.238 17760900 17853866 17945434 18034744 18121374 18204364 18283184 
2617.613 18357838 18428598 18496256 18561714 18625450 18687780 18748524 
2620.989 18807618 18865094 18921676 18978266 19035800 19095000 19156046 
2624.364 19218450 19281142 19343044 19402598 19459148 19512240 19561768 
2627.739 19608284 19652380 19695230 19737810 19780912 19825024 19869940 
2631.114 19915414 19960720 20005754 20050236 20094480 20139076 20184614 
2634.490 20231094 20278306 20325178 20371360 20416368 20460406 20503928 
2637.865 20547730 20592270 20637716 20683826 20729978 20775822 20821426 
2641.240 20867348 20914248 20962824 21013316 21065726 21119674 21174604 
2644.615 21230550 21287580 21346150 21406712 21469234 21533606 21599384 
2647.990 21665936 21732988 21800712 21869002 21938314 22008754 22080076 
2651.366 22151934 22224046 22296100 22368412 22441608 22516072 22592224 
2654.741 22670414 22749946 22830226 22910520 22990584 23070420 23150582 
2658.116 23231460 23313822 23397668 23482892 23568590 23654094 23738214 
2661.491 23820426 23900170 23977826 24053778 24128800 24203624 24278742 
2664.867 24354714 24431364 24508380 24585478 24662028 24737366 24811172 
2668.242 24883062 24953138 25021364 25088408 25154902 25222002 25290484 
2671.617 25361222 25434290 25509586 25586688 25664856 25743356 25822010 
2674.992 25900856 25979890 26059326 26138988 26218454 26297826 26377004 
2678.368 26456266 26536566 26618710 26703654 26791680 26883038 26977448 
2681.743 27074558 27174548 27277840 27385004 27497102 27614454 27737030 
2685.118 27864658 27996846 28133422 28274532 28420606 28571826 28728620 
2688.493 28890180 29056014 29224678 29395430 29567736 29741638 29917526 
2691.869 30096218 30278110 30463598 30652794 30845556 31042104 31242624 
2695.244 31447370 31656202 31868950 32084872 32303468 32524496 32747782 
2698.619 32973756 33203244 33436720 33674116 33915372 34159444 34405304 
2701.994 34652132 34898988 35145488 35391188 35635484 35877720 36117140 
2705.370 36353088 36584732 36811736 37033592 37250184 37460632 37664860 
2708.745 37862244 38052484 38235644 38411640 38580968 38743592 38899576 
2712.120 39049376 39192844 39330380 39462112 39588332 39708960 39823196 
2715.495 39930048 40028212 40116364 40193992 40260808 40317592 40365368 
2718.871 40405260 40438496 40466100 40488940 40508364 40526152 40544520 
2722.246 40566312 40594288 40630920 40678080 40736812 40807600 40890672 
2725.621 40985404 41091604 41208608 41335808 41472560 41618112 41771808 
2728.996 41933040 42101192 42275660 42455604 42639820 42827012 43015412 
2732.372 43203568 43390120 43574444 43755920 43934388 44109440 44281048 
2735.747 44448316 44610396 44766808 44916844 45060320 45197740 45329832 
2739.122 45457696 45582248 45704256 45824280 45942564 46059520 46175732 
2742.497 46292492 46411608 46535512 46666536 46806568 46956940 47117820 
2745.873 47288328 47466960 47651544 47839944 48030016 48219764 48406744 
2749.248 48588616 48762444 48924992 49073616 49206080 49321172 49419064 
2752.623 49500492 49567228 49620824 49662536 49692740 49711204 49716704 
2755.998 49707600 49682040 49638316 49575320 49492396 49388952 49265124 
2759.374 49121296 48957592 48774268 48572160 48352036 48115252 47863952 
2762.749 47600112 47326052 47044520 46757632 46467912 46177980 45890856 
2766.124 45610216 45339652 45082928 44843144 44622736 44422732 44243880 
2769.499 44085456 43946776 43827128 43725980 43643100 43578112 43530640 
2772.875 43499616 43483904 43481452 43489764 43506428 43528624 43553568 
2776.250 43578916 43602140 43621408 43634928 43640900 43638004 43624888 
2779.625 43599980 43562028 43510128 43444280 43365152 43275056 43177180 
2783.000 43075232 42973052 42874296 42781160 42695204 42616540 42544468 
2786.375 42477380 42413188 42349512 42283620 42212740 42134856 42047932 
2789.751 41951432 41845248 41730552 41609032 41482588 41353336 41223324 
2793.126 41094004 40967604 40845564 40730188 40623900 40528772 40446972 
2796.501 40379876 40328536 40293268 40274040 40270584 40282688 40310104 
2799.876 40352752 40410200 40482396 40568676 40668220 40780048 40903084 
2803.252 41035736 41176256 41322980 41473948 41627632 41782788 41938660 
2806.627 42094660 42250352 42405000 42557188 42705256 42846392 42977844 
2810.002 43096784 43200748 43288232 43358228 43410556 43445488 43463360 
2813.377 43464824 43450432 43421064 43378148 43323964 43261364 43194020 
2816.753 43125840 43061400 43004696 42959884 42930508 42920016 42931208 
2820.128 42966432 43027380 43114896 43228936 43369032 43533276 43720044 
2823.503 43926980 44151216 44390068 44640212 44897668 45158508 45418548 
2826.878 45673744 45920984 46157896 46383144 46596888 46799956 46993896 
2830.254 47180976 47363740 47544768 47727204 47913748 48107444 48311040 
2833.629 48527216 48758812 49008592 49280268 49577328 49903844 50264088 
2837.004 50662640 51104232 51594852 52140988 52751104 53436348 54209676 
2840.379 55086648 56085648 57225656 58528176 60016396 61713100 63643472 
2843.755 65831624 68297912 71056080 74105912 77428304 80972968 84657248 
2847.130 88365648 91941352 95208560 97985712 100094872 101400904 101820424 
2850.505 101336544 99998416 97914096 95236904 92130568 88765232 85298944 
2853.880 81857008 78543224 75432896 72572000 69986936 67684936 65658308 
2857.256 63888380 62349524 61013884 59851048 58833304 57936212 57137172 
2860.631 56417736 55762736 55158952 54596836 54069564 53572840 53104764 
2864.006 52665512 52256224 51879464 51538628 51238396 50983860 50780984 
2867.381 50635088 50550504 50528952 50569416 50667404 50814952 51001000 
2870.757 51212744 51434772 51651948 51849784 52014912 52138260 52215044 
2874.132 52245536 52234660 52191616 52127760 52054132 51981376 51918036 
2877.507 51870132 51842056 51836904 51856392 51902092 51974240 52072884 
2880.882 52197404 52346520 52519168 52713956 52929416 53163408 53412924 
2884.258 53674136 53942104 54211928 54479140 54740504 54994916 55243232 
2887.633 55488148 55734108 55985636 56248132 56527320 56828176 57156564 
2891.008 57518824 57921784 58374424 58887300 59472396 60144320 60918756 
2894.383 61810772 62834068 63997136 65300324 66731484 68264720 69857680 
2897.759 71450136 72973928 74353488 75515760 76405352 76987096 77255200 
2901.134 77232120 76967120 76528000 75986856 75419184 74892208 74459040 
2904.509 74163648 74037816 74103944 74379208 74876144 75605272 76576528 
2907.884 77799872 79287368 81052584 83109464 85470560 88142024 91120088 
2911.260 94383408 97887824 101568752 105332440 109061488 112629616 115896960 
2914.635 118731312 121025968 122701552 123722784 124097288 123874936 
2917.528 123133992 121966992 120475224 118747168 116856112 114858376 
2920.421 112788200 110664568 108495368 106281472 104023896 101727184 
2923.314 99402368 97067592 94747736 92469056 90258936 88140880 86131888 
2926.689 84242944 82478280 80836208 79310552 77891560 76567640 75325176 
2930.064 74150520 73030728 71953744 70909848 69891576 68893000 67909936 
2933.440 66939248 65978324 65025336 64079500 63141316 62212076 61294284 
2936.815 60390916 59504468 58637536 57792356 56971256 56177348 55414816 
2940.190 54688604 54004536 53368448 52784928 52257492 51787736 51374684 
2943.565 51014900 50702816 50429616 50184372 49955776 49732348 49504872 
2946.941 49268984 49025616 48781868 48549188 48342704 48177556 48066432 
2950.316 48017988 48035160 48115476 48251016 48429636 48637384 48857468 
2953.691 49073692 49271248 49435884 49557308 49627732 49642252 49599204 
2957.066 49499564 49346672 49145556 48903300 48627820 48327296 48010140 
2960.442 47684160 47355460 47029824 46711656 46404344 46110660 45833264 
2963.817 45573488 45332332 45109616 44904688 44716088 44542512 44383132 
2967.192 44237204 44105260 43987916 43886288 43801872 43736532 43692268 
2970.567 43670980 43675120 43705900 43764088 43848460 43956308 44082780 
2973.943 44221392 44363644 44500148 44620056 44712340 44766368 44773236 
2977.318 44726516 44624460 44469788 44269452 44034260 43777612 43512584 
2980.693 43251844 43006340 42783680 42589164 42425132 42290488 42181588 
2984.068 42091668 42011652 41930812 41838604 41726320 41587772 41420764 
2987.444 41226932 41010676 40778668 40536664 40290252 40042160 39792944 
2990.819 39541076 39284200 39019868 38746964 38466664 38182164 37898360 
2994.194 37620632 37353592 37100060 36860208 36631560 36409724 36190096 
2997.569 35968128 35740916 35507748 35269272 35027588 34785148 34544556 
3000.945 34307832 34076576 33851892 33634484 33424840 33222950 33028774 
3004.320 32841864 32662004 32488930 32322884 32164394 32014202 31872802 
3007.695 31740352 31616606 31500448 31390804 31286032 31184876 31086238 
3011.070 30989686 30895040 30802550 30712996 30626658 30544108 30465270 
3014.446 30389678 30316694 30245570 30175914 30107936 30042776 29981494 
3017.821 29925582 29875498 29830992 29790854 29753310 29716692 29680044 
3021.196 29643396 29607604 29574050 29544222 29518864 29498792 29484322 
3024.571 29476166 29475420 29484110 29503684 29535638 29580326 29636302 
3027.947 29700834 29769954 29839084 29903788 29959804 30003934 30033614 
3031.322 30047428 30044588 30025698 29991790 29945036 29887884 29823608 
3034.697 29755014 29685224 29617074 29552734 29493932 29441488 29395642 
3038.072 29356004 29321582 29291418 29264762 29241124 29220212 29201962 
3041.448 29186050 29172054 29159226 29146610 29133996 29121418 29109868 
3044.823 29100514 29094666 29093462 29097182 29105650 29118334 29134280 
3048.198 29152740 29173080 29195016 29218194 29242612 29268202 29295176 
3051.573 29323922 29354906 29388162 29423652 29460456 29497514 29533724 
3054.948 29568126 29600828 29632754 29665286 29700230 29738798 29781556 
3058.324 29828508 29879226 29933178 29990372 30051084 30115538 30183942 
3061.699 30255978 30330834 30407518 30484888 30562772 30641272 30721246 
3065.074 30803510 30888708 30976946 31067588 31159494 31250920 31340160 
3068.449 31425602 31505756 31579442 31645902 31704638 31756002 31801172 
3071.825 31841316 31878542 31915020 31952430 31992518 32036498 32084726 
3075.200 32137420 32193940 32253322 32314212 32375108 32434336 32490964 
3078.575 32543924 32592994 32638248 32680258 32719664 32757678 32795590 
3081.950 32834754 32876532 32922066 32971538 33024590 33080370 33137404 
3085.326 33194982 33252962 33312026 33373814 33440192 33512126 33589872 
3088.701 33672432 33757516 33842936 33927012 34008596 34087868 34166184 
3092.076 34244516 34324220 34405952 34489420 34574268 34660136 34746772 
3095.451 34834220 34923228 35014124 35107548 35203552 35301760 35401288 
3098.827 35501168 35600488 35698720 35795928 35892764 35990340 36089844 
3102.202 36191896 36296604 36402768 36508896 36613136 36714156 36811412 
3105.577 36905660 36998448 37091400 37186504 37284444 37385368 37488808 
3108.952 37593680 37699264 37805056 37910872 38017112 38124212 38232712 
3112.328 38342904 38455112 38569092 38684260 38799672 38913852 39025484 
3115.703 39133700 39238468 39340608 39442080 39544704 39650256 39759320 
3119.078 39871316 39984540 40097176 40207260 40313992 40417404 40518148 
3122.453 40617464 40716540 40815864 40915752 41016724 41118884 41222524 
3125.829 41328592 41437056 41548136 41661544 41776808 41892864 42009132 
3129.204 42124888 42239324 42351816 42461848 42568880 42673380 42776112 
3132.579 42878940 42983992 43093128 43207812 43328172 43453508 43582136 
3135.954 43712456 43842596 43971780 44099464 44225096 44348708 44470152 
3139.330 44588992 44705324 44819524 44932464 45045360 45159536 45276028 
3142.705 45395192 45517004 45640616 45765184 45889936 46014392 46138664 
3146.080 46263152 46389188 46517920 46650708 46788116 46930104 47075612 
3149.455 47222752 47368876 47511648 47648880 47779980 47905164 48025908 
3152.831 48143980 48261568 48379852 48499836 48621484 48743980 48866624 
3156.206 48988156 49108084 49226264 49342996 49458976 49575620 49694040 
3159.581 49814836 49938376 50063812 50190176 50316092 50440484 50563012 
3162.956 50684312 50804784 50925776 51048068 51171960 51297340 51423956 
3166.332 51551088 51678408 51805504 51931480 52055516 52176632 52293968 
3169.707 52407040 52516624 52623692 52730116 52837540 52946672 53057588 
3173.082 53169436 53280716 53390184 53497052 53600844 53701844 53800468 
3176.457 53896936 53991816 54085628 54179008 54273084 54368756 54466484 
3179.833 54566184 54666808 54767188 54865828 54961860 55054940 55145596 
3183.208 55234200 55321244 55406832 55491308 55574564 55657608 55741380 
3186.583 55827240 55916324 56008780 56103556 56199220 56293548 56384688 
3189.958 56472032 56555664 56636516 56715908 56794716 56873644 56952972 
3193.333 57032500 57112004 57191180 57269660 57346860 57422376 57495788 
3196.709 57567432 57638068 57708488 57779864 57852200 57925000 57996568 
3200.084 58065948 58131888 58195116 58257176 58320532 58386896 58456904 
3203.459 58529772 58603404 58675576 58744536 58809856 58872272 58932836 
3206.834 58992688 59051864 59109828 59165872 59220208 59273224 59326816 
3210.210 59382392 59440440 59499792 59558280 59612820 59661584 59704544 
3213.585 59743476 59782332 59825036 59874436 59931828 59995968 60064640 
3216.960 60134768 60204032 60270872 60335020 60396548 60456144 60514228 
3220.335 60571856 60629648 60688628 60749788 60813244 60878880 60945904 
3223.711 61012932 61078864 61143668 61207256 61270664 61334464 61398960 
3227.086 61463960 61528856 61593152 61656652 61719976 61784184 61850272 
3230.461 61918744 61989136 62060532 62131444 62200876 62268212 62333652 
3233.836 62397340 62460344 62523024 62586008 62649808 62715344 62783108 
3237.212 62853864 62927736 63004344 63082696 63161932 63240924 63319384 
3240.587 63397288 63474672 63551448 63627056 63700372 63770592 63837252 
3243.962 63901276 63963892 64027852 64094976 64166800 64243160 64323268 
3247.337 64405540 64488560 64571560 64654528 64737752 64821676 64906388 
3250.713 64991160 65074712 65156088 65234244 65308988 65380664 65450348 
3254.088 65518656 65586588 65654604 65722564 65789832 65855496 65918432 
3257.463 65977672 66032672 66083328 66130392 66174692 66217528 66260092 
3260.838 66303016 66346364 66390104 66434004 66477516 66520340 66561976 
3264.214 66601568 66638300 66671060 66699220 66722712 66742180 66758992 
3267.589 66774912 66791104 66808528 66827156 66846324 66865420 66883892 
3270.964 66901364 66917984 66933872 66948792 66962636 66975312 66986756 
3274.339 66997856 67009956 67024300 67042276 67064160 67089296 67116632 
3277.715 67144752 67172752 67200560 67228760 67258280 67290072 67324344 
3281.090 67361024 67399456 67439200 67480024 67522296 67566496 67613304 
3284.465 67663056 67715760 67771064 67829200 67889864 67953360 68020128 
3287.840 68090392 68164312 68242000 68323824 68409992 68501152 68598112 
3291.216 68701112 68810768 68926672 69048584 69176128 69309152 69447456 
3294.591 69591104 69739816 69893016 70049928 70209936 70372224 70537296 
3297.966 70705560 70878136 71055936 71239416 71428608 71623392 71822992 
3301.341 72027616 72237224 72452104 72672576 72898952 73131096 73369128 
3304.717 73613024 73863152 74119784 74382904 74652544 74927880 75208464 
3308.092 75493528 75782960 76077208 76376752 76681440 76990896 77303896 
3311.467 77618784 77935088 78252624 78572960 78898192 79229984 79568952 
3314.842 79914560 80264632 80616704 80969056 81321456 81674736 82030272 
3318.218 82389232 82751248 83114920 83478104 83838208 84194032 84545312 
3321.593 84892984 85237888 85580984 85922528 86262000 86599384 86934696 
3324.968 87268352 87600648 87931448 88258896 88580776 88894232 89197256 
3328.343 89488920 89769384 90039952 90301272 90553280 90794728 91023072 
3331.719 91236256 91432520 91610752 91771048 91913304 92037216 92142240 
3335.094 92227248 92291704 92335392 92359040 92363672 92349864 92317440 
3338.469 92265608 92192952 92098456 91981480 91842432 91681912 91500792 
3341.844 91299296 91077264 90833728 90568344 90280472 89970248 89637320 
3345.219 89281448 88901672 88497648 88068680 87616128 87142064 86649992 
3348.595 86143160 85625208 85098048 84563432 84022040 83474568 82921808 
3351.970 82365240 81805648 81243712 80679416 80112872 79544240 78975048 
3355.345 78407816 77846248 77294072 76753832 76226736 75712352 75209168 
3358.720 74715512 74230472 73754216 73287808 72832648 72389816 71959880 
3362.096 71542632 71137496 70744512 70363696 69995616 69640816 69299824 
3365.471 68972224 68657136 68353480 68059968 67775752 67499848 67231504 
3368.846 66970020 66714212 66463196 66216180 65972304 65730892 65490796 
3372.221 65250956 65009556 64764900 64515388 64259724 63997328 63727424 
3375.597 63449472 63162664 62865696 62556848 62235440 61901088 61554472 
3378.972 61196956 60829784 60453668 60068480 59672952 59265896 58845752 
3382.347 58412364 57965744 57507436 57039148 56562988 56080820 55594672 
3385.722 55105868 54616036 54126232 53637096 53148876 52662108 52176820 
3389.098 51693896 51214944 50741284 50275168 49818104 49370612 48932748 
3392.473 48502948 48080460 47663856 47251864 46843436 46438192 46034728 
3395.848 45632632 45231200 44830616 44431688 44035948 43644892 43259572 
3399.223 42880040 42505112 42133140 41762176 41390840 41019272 40647912 
3402.599 40278112 39910980 39547352 39186968 38829748 38475424 38124104 
3405.974 37776284 37432608 37093100 36757176 36423704 36091572 35760020 
3409.349 35428932 35099896 34774628 34455628 34144316 33841540 33546846 
3412.724 33259224 32977614 32700870 32428730 32161720 31900294 31644904 
3416.100 31395864 31153086 30915926 30683480 30454428 30227632 30001980 
3419.475 29776838 29551846 29327504 29104908 28885292 28669822 28459168 
3422.850 28253032 28051062 27852186 27655450 27460744 27268138 27078014 
3426.225 26891498 26708728 26530118 26355034 26183364 26014294 25847680 
3429.601 25683312 25520936 25360484 25201706 25044146 24887658 24732138 
3432.976 24577412 24423654 24271104 24119238 23968652 23819168 23671308 
3436.351 23526122 23384798 23247748 23115602 22987336 22861482 22736086 
3439.726 22609048 22479012 22346086 22210828 22075162 21940998 21809838 
3443.102 21682620 21558956 21437902 21317544 21195688 21070526 20940776 
3446.477 20806514 20668884 20530120 20393204 20260776 20134668 20015052 
3449.852 19900880 19789860 19679386 19567694 19453778 19338264 19222364 
3453.227 19107950 18996300 18887864 18781980 18677230 18572364 18466072 
3456.603 18357940 18248142 18137474 18026904 17917224 17808952 17701950 
3459.978 17595732 17489714 17382930 17274998 17165750 17055978 16946576 
3463.353 16838856 16733678 16631346 16531553 16433435 16336095 16238810 
3466.728 16141444 16044755 15949288 15855940 15764158 15673323 15581819 
3470.104 15488516 15393275 15296511 15199768 15104935 15013173 14924553 
3473.479 14838316 14752781 14665961 14577549 14487955 14398551 14312041 
3476.854 14230000 14153691 14083282 14017333 13953961 13891042 13826696 
3480.229 13759384 13688561 13614466 13537992 13461325 13386792 13316712 
3483.604 13253066 13195952 13144653 13096774 13049140 12998847 12944226 
3486.980 12884627 12821386 12757164 12695237 12638300 12588703 12547741 
3490.355 12515649 12491914 12475478 12464396 12456859 12450484 12443630 
3493.730 12434833 12424468 12413489 12404148 12398931 12399987 12408921 
3497.105 12425729 12449460 12478683 12511557 12546616 12582837 12619710 
3500.481 12657233 12695681 12735975 12779173 12827221 12881863 12945250 
3503.856 13018923 13103331 13198344 13302397 13413514 13529377 13647870 
3507.231 13767216 13886766 14006759 14128394 14253864 14384953 14523653 
3510.606 14671171 14826727 14989302 15156740 15326647 15497134 15667139 
3513.982 15836077 16003361 16168682 16330967 16488256 16638715 16780582 
3517.357 16912470 17034610 17146862 17250174 17344376 17429112 17502548 
3520.732 17563024 17608086 17635588 17644524 17633862 17603462 17553744 
3524.107 17485058 17397794 17292238 17168714 17027030 16867964 16692426 
3527.483 16502365 16300384 16089521 15872093 15649999 15423624 15193043 
3530.858 14957955 14718436 14475347 14230034 13983524 13736504 13488463 
3534.233 13238240 12984816 12728196 12470192 12214455 11965340 11726750 
3537.608 11500641 11287265 11084499 10889436 10699216 10512542 10328526 
3540.984 10148115 9971646 9799992 9632809 9469382 9308895 9150159 8993036 
3544.841 8837188 8682612 8529613 8379065 8232453 8091528 7958140 7833699 
3548.698 7717625 7607416 7499493 7389237 7273485 7150823 7023381 6895876 
3552.556 6773691 6662005 6563433 6477394 6400821 6329237 6258572 6185768 
3556.413 6109717 6030488 5949122 5866832 5784356 5702902 5622975 5545512 
3560.271 5470982 5399887 5331721 5265746 5200654 5135269 5068419 4999467 
3564.128 4927343 4850641 4767352 4675573 4573801 4463114 4347268 4232289 
3567.986 4125570 4033223 3957916 3899203 3853035 3813757 3775954 3735046 
3571.843 3688093 3634763 3575961 3513793 3450432 3388015 3327410 3269418 
3575.700 3213535 3159129 3105297 3050804 2994984 2938203 2880663 2824064 
3579.558 2769540 2718257 2670980 2627676 2587842 2551512 2518450 2488857 
3583.415 2462498 2438707 2415150 2387962 2352248 2303346 2238563 2158537 
3587.273 2068006 1975664 1891094 1822346 1773470 1744227 1730555 1726031 
3591.130 1723536 1717248 1702612 1677398 1641876 1598142 1550156 1501709 
3594.988 1456959 1418761 1388711 1367372 1354409 1348991 1350188 1356802 
3598.845 1368037 1383127 1401110 1421620 1444159 1468395 1493963 1520728 
3602.702 1547529 1573001 1594716 1609416 1613772 1604261 1578022 1532732 
3606.560 1468063 1384789 1286244 1177721 1065704 957169 858389 772311 699824 
3610.899 639095 587267 540918 498058 457623 420044 386183 357000 332295 
3615.239 310775 289986 266877 238663 202827 157846 104384 44302 -18521 
3619.579 -79315 -132515 -174647 -203428 -218894 -222703 -217702 -206740 
3623.436 -191836 -173985 -153482 -130230 -105353 -81535 -63943 -59703 -76599 
3627.776 -120259 -189650 -276018 -364718 -439532 -490272 -515855 -521746 
3631.633 -517212 -510990 -509600 -515954 -528993 -545441 -560696 -571715 
3635.490 -577076 -578069 -576977 -576778 -578830 -584058 -591966 -601694 
3639.348 -612845 -625319 -639182 -654831 -671538 -687715 -700418 -707564 
3643.205 -706836 -698103 -682687 -663631 -644641 -629620 -621944 -624525 
3647.063 -638818 -665384 -703991 -753443 -811026 -871676 -929507 -976653 
3650.920 -1006769 -1015860 -1004389 -975992 -937046 -895616 -859738 -835763 
3654.778 -828653 -839136 -864666 -898757 -933839 -962669 -981414 -988753 
3658.635 -986835 -978570 -967264 -955428 -944683 -935293 -927226 -919621 
3662.492 -911488 -902064 -890855 -876901 -858879 -835631 -804874 -765384 
3666.350 -717024 -660620 -598683 -533064 -463562 -384846 -286117 -150203 
3670.207 40889 299867 631198 1031062 1490338 1998198 2541113 3100859 3642682 
3674.547 4112993 4444736 4571859 4460536 4122994 3608836 2981672 2299948 
3678.404 1615169 966202 386249 -98761 -476570 -748449 -930003 -1043594 
3682.262 -1113234 -1158344 -1189637 -1211478 -1224430 -1228263 -1225256 
3685.637 -1219639 -1217624 -1224959 -1245543 -1279638 -1323706 -1372494 
3689.012 -1419954 -1461532 -1495082 -1520011 -1536421 -1544510 -1545368 
3692.387 -1540317 -1531601 -1521695 -1512945 -1506573 -1503073 -1501323 
3695.763 -1500200 -1498318 -1494983 -1490228 -1484713 -1479661 -1475897 
3699.138 -1475071 -1477746 -1485341 -1498450 -1516478 -1538171 -1560391 
3702.513 -1579440 -1592183 -1596508 -1591358 -1577690 -1557188 -1531865 
3705.888 -1503865 -1475335 -1447827 -1423785 -1405621 -1395250 -1394821 
3709.264 -1405918 -1428277 -1460805 -1501422 -1546656 -1592744 -1635758 
3712.639 -1671770 -1697811 -1712069 -1714511 -1706722 -1691804 -1672892 
3716.014 -1654078 -1637606 -1624469 -1614235 -1604926 -1594131 -1580761 
3719.389 -1564815 -1548010 -1532690 -1521398 -1515158 -1514233 -1517634 
3722.765 -1523907 -1532162 -1542331 -1554514 -1569008 -1585614 -1602087 
3726.140 -1615886 -1623445 -1621366 -1608260 -1584161 -1551377 -1513606 
3729.515 -1475467 -1441949 -1417015 -1404069 -1403375 -1413448 -1430291 
3732.890 -1449743 -1469061 -1488213 -1509214 -1534638 -1565541 -1600007 
3736.266 -1633018 -1658138 -1670714 -1669063 -1655035 -1631929 -1603506 
3739.641 -1572276 -1539128 -1504360 -1468929 -1436104 -1412259 -1406480 
3743.016 -1427583 -1480321 -1558740 -1645925 -1717152 -1753949 -1750715 
3746.391 -1714709 -1659689 -1600634 -1550849 -1519384 -1510139 -1522157 
3749.767 -1550453 -1587925 -1627803 -1665003 -1695699 -1716426 -1724445 
3753.142 -1717977 -1697910 -1667776 -1633084 -1600172 -1574026 -1557882 
3756.517 -1552236 -1555537 -1565079 -1578384 -1594197 -1612222 -1631566 
3759.892 -1650777 -1666357 -1674377 -1672067 -1659260 -1638432 -1614763 
3763.268 -1594065 -1580761 -1576337 -1579110 -1584623 -1587528 -1583600 
3766.643 -1572672 -1557056 -1541506 -1531105 -1529586 -1538072 -1554580 
3770.018 -1575082 -1594494 -1608887 -1616150 -1616414 -1611990 -1605388 
3773.393 -1599182 -1594890 -1592678 -1591094 -1588552 -1583336 -1575214 
3776.769 -1565871 -1558443 -1556693 -1563527 -1579374 -1601856 -1625756 
3780.144 -1645463 -1657379 -1660316 -1656685 -1650150 -1644472 -1642096 
3783.519 -1643185 -1645595 -1647047 -1645595 -1641469 -1636220 -1632391 
3786.894 -1632028 -1635593 -1641832 -1648235 -1652460 -1652658 -1648433 
3790.270 -1641270 -1632490 -1623181 -1614004 -1604794 -1594956 -1584524 
3793.645 -1574224 -1565541 -1559929 -1558542 -1561117 -1565970 -1569998 
3797.020 -1570559 -1565805 -1556231 -1543982 -1533615 -1530742 -1540284 
3800.395 -1565046 -1604101 -1650645 -1693983 -1723257 -1732102 -1719957 
3803.771 -1692431 -1658237 -1627671 -1609184 -1607996 -1623907 -1651437 
3807.146 -1680516 -1701475 -1708274 -1701508 -1685566 -1666588 -1649589 
3810.521 -1636682 -1627142 -1617998 -1606081 -1590202 -1571682 -1554217 
3813.896 -1543057 -1542430 -1553953 -1575082 -1598555 -1615787 -1620012 
3817.271 -1609382 -1587264 -1560754 -1538402 -1528728 -1537379 -1566168 
3820.647 -1611627 -1664211 -1711574 -1743322 -1754972 -1748141 -1728373 
3824.022 -1704181 -1682365 -1667479 -1660877 -1660778 -1662924 -1662693 
3827.397 -1656223 -1642888 -1624237 -1603738 -1584491 -1569074 -1558113 
3830.772 -1550651 -1543982 -1535430 -1522983 -1505912 -1484779 -1460938 
3834.148 -1436929 -1415000 -1398223 -1389107 -1389801 -1401856 -1424545 
3837.523 -1455918 -1491978 -1527572 -1559268 -1584029 -1601625 -1612585 
3840.898 -1619055 -1622719 -1625558 -1628793 -1633546 -1639950 -1647608 
3844.273 -1655365 -1661339 -1663716 -1660811 -1651437 -1636055 -1615225 
3847.649 -1589707 -1560292 -1526813 -1489006 -1447035 -1402318 -1358918 
3851.024 -1323805 -1306529 -1316934 -1362320 -1440892 -1540548 -1640544 
3854.399 -1721145 -1770548 -1787839 -1779061 -1752827 -1716921 -1677018 
3857.774 -1636880 -1598984 -1564947 -1535893 -1513077 -1496997 -1487388 
3861.150 -1483524 -1483921 -1487718 -1494553 -1504988 -1519450 -1537015 
3864.525 -1554679 -1567357 -1569569 -1557518 -1531138 -1494917 -1457173 
3867.900 -1427121 -1413911 -1423158 -1453904 -1498384 -1544048 -1579473 
3871.275 -1598092 -1600436 -1591490 -1578978 -1569173 -1565244 -1566895 
3874.651 -1570823 -1572111 -1567093 -1554877 -1536652 -1516445 -1498318 
3878.026 -1486893 -1485110 -1493959 -1511889 -1535067 -1557287 -1572672 
3881.401 -1576502 -1567324 -1546920 -1520143 -1493365 -1473354 -1465363 
3884.776 -1471241 -1488313 -1509875 -1527341 -1533516 -1525459 -1505384 
3888.152 -1479034 -1453045 -1434155 -1427088 -1433065 -1450436 -1474741 
3891.527 -1500101 -1521134 -1534704 -1539591 -1536256 -1525624 -1508752 
3894.902 -1486529 -1460112 -1430490 -1399775 -1370314 -1344351 -1323871 
3898.277 -1309865 -1302135 -1299558 -1300946 -1305009 -1311715 -1321757 
3901.653 -1336556 -1357729 -1386102 -1420978 -1459650 -1498285 -1532228 
3905.028 -1557254 -1570955 -1573432 -1566003 -1551576 -1533350 -1513969 
3908.403 -1495016 -1477548 -1461598 -1446572 -1432174 -1418369 -1404795 
3911.778 -1391518 -1378472 -1365392 -1352180 -1339298 -1327538 -1318289 
3915.154 -1313334 -1314060 -1320766 -1332625 -1347853 -1363642 -1377778 
3918.529 -1388645 -1395481 -1398058 -1396671 -1391518 -1382997 -1371965 
3921.904 -1359843 -1348844 -1341214 -1338769 -1342138 -1350165 -1360239 
3925.279 -1368695 -1372824 -1371139 -1364170 -1354360 -1344649 -1337448 
3928.655 -1334244 -1334541 -1337018 -1339661 -1340751 -1339595 -1336490 
3932.030 -1332526 -1328926 -1326745 -1326250 -1326844 -1327736 -1327736 
3935.405 -1325622 -1320568 -1312244 -1300880 -1287732 -1274154 -1262326 
3938.780 -1254034 -1250366 -1251952 -1258395 -1268835 -1282215 -1297543 
3942.156 -1313796 -1330049 -1344880 -1356540 -1363807 -1365359 -1361230 
3945.531 -1352510 -1341214 -1329950 -1321031 -1315448 -1313334 -1312871 
3948.906 -1312442 -1310328 -1306000 -1299558 -1291762 -1283536 -1275343 
3952.281 -1267579 -1259947 -1252613 -1246369 -1241578 -1238836 -1237844 
3955.656 -1237514 -1236192 -1232228 -1224496 -1213394 -1200211 -1187423 
3959.032 -1177245 -1171297 -1170339 -1173478 -1179790 -1187720 -1195783 
3962.407 -1202920 -1207810 -1209462 -1207414 -1201202 -1191653 -1179724 
3965.782 -1167431 -1156559 -1147967 -1141886 -1137062 -1132071 -1125098 
3969.157 -1115349 -1103055 -1089306 -1075820 -1063955 -1054667 -1047824 
3972.533 -1043230 -1040288 -1038536 -1037611 -1037049 -1036520 -1035396 
3975.908 -1032751 -1028256 -1022008 -1014306 -1005844 -997910 -990835 
3979.283 -985017 -980422 -977017 -974405 -972520 -971760 -972025 -973215 
3983.141 -975099 -977347 -979727 -982207 -985381 -989579 -995166 -1001976 
3986.998 -1009612 -1017413 -1024289 -1029248 -1032090 -1032355 -1030504 
3990.373 -1026669 -1021975 -1017314 -1014108 -1013744 -1017215 -1024488 
3993.749 -1035098 -1047262 -1058831 -1067888 -1073341 -1074895 -1073308 
3997.124 -1070268 -1066797 -1063955 -1061773 -1060021 -1058336 -1056319 
4000.499 -1054039 
##END=
