##TITLE=Z327c_1_b
##JCAMP-DX=5.01  $$ Nicolet v. 1
##DATATYPE=INFRARED SPECTRUM
##ORIGIN=UniL
##OWNER=Nicolet
##LONGDATE=2011/09/28
##TIME=13:51:39
##SPECTROMETER/DATA SYSTEM=Nicolet iS5
##DATA PROCESSING=
Ratio against background
%Transmittance->Absorbance
Truncated
ElementMultiply or ElementDivide
##COMMENTS=
Number of sample scans: 32
Collection length: 51.17 sec
Sample gain: 2.0
Background collected on: Mer Sep 28 13:46:46 2011 (GMT+02:00);
Number of background scans: 32
Background gain: 2.0
Sample spacing:  1.000
Number of scan points: 12415
Resolution points: 8192
Number of FFT points: 65536
Apodization: N-B fort;
Phase correction: Mertz;
Laser frequency: 15798.0 cm-1
Number of rejected sample scans: 0
Number of rejected background scans: 0
Bench serial number: ASB1000141;
##RESOLUTION=4.000
##XUNITS=1/CM
##YUNITS=ABSORBANCE
##FIRSTX=649.893372
##LASTX=4000.122314
##FIRSTY=0.115138
##MAXX=4000.122314
##MINX=649.893372
##MAXY=0.288899
##MINY=-0.005813
##XFACTOR=1.000000
##YFACTOR=1.000000E-009
##NPOINTS=6950
##DELTAX=0.482117
##ZPD=6100
##XYDATA=(X++(Y..Y))
649.893 115138480 114390888 113740800 113235216 112886368 112678144 
652.786 112580928 112571264 112640656 112797480 113053552 113413712 
655.679 113867016 114391368 114964616 115578920 116245672 116990864 
658.571 117841808 118810800 119892080 121066160 122317760 123648560 
661.464 125083088 126655232 128389776 130279552 132281912 134322896 
664.357 136327008 138236016 140005168 141603408 142989792 144098576 
667.250 144850768 145192000 145139984 144781952 144228672 143550176 
670.142 142754032 141801824 140643552 139251328 137639824 135872448 
673.035 134036552 132225264 130501272 128885344 127368328 125930352 
675.928 124560424 123263840 122056424 120950184 119940952 119006696 
678.820 118113320 117228416 116335448 115436136 114545752 113680832 
681.713 112849848 112047080 111258816 110469576 109672056 108869608 
684.606 108073480 107295392 106541440 105810224 105095776 104394504 
687.498 103707952 103043776 102410360 101810456 101237264 100675448 
690.391 100105672 99514312 98898456 98267024 97636048 97022928 96440216 
693.766 95893448 95385464 94921184 94511448 94174200 93930864 93798344 
697.141 93786008 93891576 94104032 94407008 94785936 95229848 95732288 
700.516 96288488 96893032 97536368 98207240 98894168 99587776 100283120 
703.890 100977024 101665424 102340112 102987880 103593952 104147696 
706.783 104646264 105097424 105516136 105920112 106323920 106737040 
709.676 107167352 107626656 108134936 108723432 109426872 110272216 
712.569 111267552 112391984 113594008 114796608 115919760 116891280 
715.461 117663256 118221704 118582480 118787464 118891392 118961848 
718.354 119071936 119291880 119691776 120327456 121226888 122379240 
721.247 123721816 125142888 126479104 127549800 128187480 128260568 
724.139 127716272 126589208 125005144 123145208 121217904 119418936 
727.032 117881184 116673280 115796760 115207976 114840760 114630608 
729.925 114532344 114516560 114566336 114669088 114808000 114963968 
732.817 115120720 115269584 115414008 115565952 115740008 115944248 
735.710 116176080 116422600 116667208 116896744 117106912 117302472 
738.603 117494080 117691152 117896704 118107408 118315808 118515872 
741.496 118706096 118890616 119075288 119265152 119461112 119660568 
744.388 119860904 120062768 120270808 120492368 120731672 120985912 
747.281 121243224 121486232 121698280 121868984 121999208 122098912 
750.174 122182224 122259624 122334360 122402480 122457600 122495688 
753.066 122519984 122540592 122570992 122621608 122696232 122790960 
755.959 122897360 123006992 123115160 123222392 123332192 123449024 
758.852 123574920 123709528 123851088 123998656 124152496 124312864 
761.744 124478864 124645752 124806136 124953448 125086632 125215024 
764.637 125359520 125553968 125839320 126255136 126834736 127593008 
767.530 128517256 129556416 130619464 131583064 132296472 132622720 
770.423 132467840 131809040 130712672 129325088 127848400 126473736 
773.315 125348688 124540648 124027928 123717720 123480112 123196648 
776.208 122776624 122175416 121385960 120417120 119273824 117947392 
779.101 116413368 114643600 112619400 110339440 107824352 105113120 
781.993 102260608 99327480 96377384 93476112 90679952 88036416 85579976 
785.368 83327864 81285016 79446800 77804312 76348072 75070472 73965208 
788.743 73026024 72244896 71612960 71120248 70759024 70524752 70417968 
792.118 70442680 70605592 70915072 71378152 72000280 72783984 73728328 
795.493 74828312 76074128 77453688 78953144 80562496 82282016 84128040 
798.867 86140488 88377544 90916400 93833592 97179064 100949680 105056144 
802.242 109313280 113413840 116972080 119587472 120883128 120623136 
805.135 118763152 115477328 111117016 106138536 101018208 96113496 91631864 
808.510 87607864 83938744 80445640 76950032 73345824 69616272 65836756 
811.885 62130948 58641028 55481976 52717320 50365132 48402188 46783204 
815.259 45452324 44357444 43454424 42704528 42078196 41552332 41109268 
818.634 40738264 40432788 40188508 40001472 39866920 39779436 39735064 
822.009 39732488 39773336 39861512 40000380 40191012 40432024 40719416 
825.384 41049132 41419052 41828500 42278436 42768396 43295996 43856820 
828.759 44447804 45070796 45737096 46470052 47307576 48296856 49493472 
832.133 50955804 52729704 54840188 57269772 59946968 62724912 65381864 
835.508 67657096 69257304 69928672 69517920 67997808 65490336 62229552 
838.883 58534396 54724152 51068116 47772656 44946980 42622752 40773788 
842.258 39341368 38254748 37442936 36848308 36421508 36121820 35919576 
845.633 35791176 35720484 35698248 35718288 35775348 35863396 35974572 
849.008 36101080 36237744 36382776 36538664 36709900 36901472 37116268 
852.382 37355252 37618176 37905776 38220772 38568332 38954116 39383524 
855.757 39860060 40386312 40965308 41602976 42309004 43097296 43985532 
859.132 44992140 46138844 47450476 48954220 50682448 52664616 54917524 
862.507 57431944 60159200 63004464 65818712 68427064 70646256 72309856 
865.882 73312760 73622848 73295456 72457472 71298448 70040544 68889472 
869.256 68031560 67606024 67693304 68328552 69501936 71171224 73261488 
872.631 75670864 78275512 80913888 83404544 85558792 87184224 88129520 
876.006 88302336 87683840 86334016 84379304 81996824 79369976 76677328 
879.381 74068024 71637072 69432136 67452088 65662012 64007884 62436932 
882.756 60914908 59432312 58006336 56672188 55474256 54451044 53626820 
886.131 53009744 52592352 52358444 52287728 52363416 52572680 52907036 
889.505 53360844 53929872 54610888 55403144 56310108 57340924 58508880 
892.880 59831960 61330304 63022852 64927324 67055964 69410064 71970992 
896.255 74689968 77482800 80215408 82719928 84813056 86309248 87069664 
899.630 87020152 86166192 84589720 82435976 79895560 77158864 74411248 
903.005 71811152 69468608 67458232 65816744 64550720 63649228 63091280 
906.379 62854292 62916636 63261004 63874752 64748480 65876008 67254368 
909.754 68883024 70763624 72897776 75281512 77900832 80724104 83695880 
913.129 86744088 89780544 92713384 95470208 98003400 100305328 102406960 
916.504 104376256 106305304 108286224 110401472 112694120 115150880 
919.397 117684984 120136256 122291464 123893360 124707432 124570088 
922.289 123428160 121375144 118650056 115630168 112745408 110449160 
925.182 109155328 109143144 110542024 113282176 117110912 121587536 
928.075 126143800 130208136 133232864 134823744 134799728 133181440 
930.967 130163152 126027208 121098608 115666440 109961424 104173424 98446544 
934.342 92902808 87661048 82825736 78490544 74733104 71601552 69120448 
937.717 67293048 66105664 65532064 65531252 66046872 66992284 68247584 
941.092 69671432 71093048 72342616 73278712 73793048 73837112 73422096 
944.467 72615552 71523024 70267696 68978592 67760648 66690996 65816320 
947.841 65151236 64688064 64404076 64271824 64262792 64350284 64511896 
951.216 64726480 64974420 65239796 65509832 65778040 66044480 66314400 
954.591 66595660 66895688 67219592 67569528 67945456 68346968 68774160 
957.966 69228192 69709704 70218000 70750448 71302752 71871240 72454064 
961.341 73051936 73667592 74304416 74964024 75645736 76347120 77065632 
964.716 77800624 78553984 79329528 80131080 80960392 81816488 82696200 
968.090 83596416 84516296 85457648 86425544 87424856 88459096 89529160 
971.465 90633448 91770512 92940440 94146008 95392272 96684680 98026576 
974.840 99418824 100860904 102352568 103896008 105496232 107160224 108895152 
978.215 110706720 112599088 114577504 116651392 118835376 121151424 
981.108 123624120 126276760 129127848 132186128 135449648 138903040 
984.000 142517456 146242848 150000384 153685424 157155520 160241632 
986.893 162777664 164605024 165609216 165738864 165010560 163510640 
989.786 161378048 158802784 155993216 153154112 150484720 148142432 
992.678 146239872 144846144 143982848 143637616 143775360 144353856 
995.571 145330480 146667696 148336288 150309664 152561248 155065904 
998.464 157796048 160723648 163821120 167052624 170369472 173707712 
1001.356 176976256 180069424 182879184 185302352 187265808 188735264 
1004.249 189718720 190265360 190459552 190418704 190271264 190156000 
1007.142 190210320 190545312 191247232 192366736 193917888 195887168 
1010.035 198242448 200947488 203964000 207256816 210792784 214531840 
1012.927 218429376 222439312 226514896 230617216 234712880 238761616 
1015.820 242704816 246449600 249854960 252752752 254960656 256314160 
1018.713 256712880 256139152 254677408 252498352 249859152 247072608 
1021.605 244449328 242300624 240885392 240376784 240870352 242368240 
1024.498 244798928 248027808 251889584 256213696 260819472 265539552 
1027.391 270211200 274661984 278727808 282252992 285101696 287183360 
1030.284 288450880 288898880 288550880 287446784 285633216 283157984 
1033.177 280076096 276448160 272334496 267792640 262867152 257588448 
1036.070 251981200 246075888 239920208 233591424 227188992 220824816 
1038.963 214618752 208675744 203083920 197915360 193214560 188999264 
1041.856 185251072 181910512 178869536 175975136 173060672 169954960 
1044.750 166522416 162695504 158480384 153962336 149278848 144609712 
1047.643 140138784 136024672 132402760 129361288 126943856 125157384 
1050.536 123976176 123353632 123227584 123535112 124214192 125205696 
1053.429 126458224 127917336 129519712 131193416 132846312 134370560 
1056.322 135658848 136601936 137108288 137116864 136598528 135566032 
1059.215 134072272 132216184 130131096 127970504 125908480 124107208 
1062.108 122705952 121819504 121520240 121843672 122789824 124327208 
1065.001 126394752 128899560 131729288 134742352 137775904 140671120 
1067.894 143270272 145439712 147088288 148160144 148638288 148534592 
1070.787 147881856 146724656 145111520 143095968 140730256 138064816 
1073.680 135153968 132054760 128833440 125574008 122371032 119332608 
1076.573 116576416 114208840 112325464 111000888 110276656 110163008 
1079.466 110631560 111618472 113016032 114677552 116435472 118094536 
1082.359 119466872 120402424 120799456 120635912 119968856 118933400 
1085.252 117711832 116507992 115533616 114964360 114934824 115530848 
1088.146 116777632 118646216 121052328 123874624 126952824 130104944 
1091.039 133158248 135946032 138329712 140211456 141522944 142228432 
1093.932 142318768 141806784 140724544 139119760 137058256 134616880 
1096.825 131881000 128948600 125917824 122885576 119943048 117157336 
1099.718 114565424 112165984 109919256 107752112 105572704 103299344 
1102.611 100871640 98272176 95530144 92721096 89952760 87340904 85005800 
1105.986 83048400 81539840 80527312 80028328 80037888 80533056 81478832 
1109.361 82831512 84536584 86535368 88760560 91132272 93564960 95959448 
1112.737 98204208 100191592 101816064 102989472 103656288 103793280 
1115.630 103413136 102557032 101290648 99692392 97840584 95814952 93683672 
1119.005 91499152 89301064 87112624 84944912 82803520 80693064 78622680 
1122.380 76610128 74679656 72861376 71187616 69686008 68378696 67280320 
1125.755 66398324 65736092 65295592 65079488 65092192 65338260 65819332 
1129.131 66530652 67457504 68574168 69838880 71197688 72586528 73929536 
1132.506 75153784 76195024 77006912 77573416 77911736 78072880 78128368 
1135.881 78163952 78264160 78492640 78888808 79457856 80172088 80971496 
1139.256 81772008 82481440 83000024 83238320 83128968 82624864 81706256 
1142.632 80377056 78660792 76595224 74227760 71617104 68824280 65914340 
1146.007 62955164 60007720 57128820 54368120 51762688 49340656 47119816 
1149.382 45108436 43308000 41714796 40322172 39120832 38099688 37247112 
1152.757 36550196 35997248 35578764 35287960 35121204 35077484 35156840 
1156.133 35359056 35683864 36130784 36700168 37394072 38216212 39170868 
1159.508 40261748 41490280 42854732 44349444 45963780 47682900 49483744 
1162.883 51334632 53196664 55019324 56746760 58323300 59691884 60803676 
1166.258 61620644 62114316 62271424 62092604 61593416 60801236 59753320 
1169.634 58494928 57070924 55527080 53907400 52249760 50590000 48960372 
1173.009 47387760 45897044 44508844 43238632 42098200 41094480 40230776 
1176.384 39508268 38927260 38488092 38192116 38040948 38036284 38179308 
1179.759 38471332 38914108 39511100 40267096 41188712 42282852 43554996 
1183.135 45008720 46644068 48456492 50433896 52552712 54776548 57047840 
1186.510 59288648 61409836 63307272 64880960 66047756 66744812 66943460 
1189.885 66650272 65906972 64782060 63362168 61746636 60028152 58291808 
1193.260 56612092 55044636 53633380 52410664 51396392 50602248 50030720 
1196.635 49675724 49521288 49540820 49699168 49948712 50233844 50496608 
1200.011 50673660 50706876 50548232 50161164 49528864 48655728 47568428 
1203.386 46310628 44938564 43516792 42103676 40751664 39502136 38380836 
1206.761 37402592 36571612 35884988 35334932 34910804 34600280 34389200 
1210.136 34262908 34208732 34215940 34278432 34395192 34568524 34802844 
1213.512 35102232 35468768 35901904 36397908 36950320 37550544 38187088 
1216.887 38845148 39508376 40158376 40776992 41349476 41864876 42316384 
1220.262 42701672 43021196 43278020 43477204 43627420 43741336 43835008 
1223.637 43928812 44043760 44198648 44408748 44681928 45019340 45415280 
1227.013 45858744 46335548 46828708 47322392 47802696 48260048 48692164 
1230.388 49104596 49511036 49930756 50387716 50908116 51516316 52237988 
1233.763 53098588 54123308 55339948 56775836 58455428 60399824 62622860 
1237.138 65130644 67921128 70985336 74306064 77855600 81597928 85485440 
1240.514 89459616 93461648 97430944 101311272 105056904 108626024 111980576 
1243.889 115085608 117903224 120394256 122519544 124235984 125499280 
1246.782 126266344 126495112 126153320 125224440 123710368 121632608 
1249.675 119027088 115940840 112422888 108526040 104309648 99838056 95188512 
1253.050 90450800 85715536 81078424 76630368 72445720 68587560 65099544 
1256.426 62002508 59298408 56968572 54978404 53277080 51804424 50496012 
1259.801 49282564 48101892 46903080 45648568 44320896 42920820 41465308 
1263.176 39980944 38499900 37054848 35671668 34370912 33165618 32062538 
1266.551 31063316 30165612 29364514 28652268 28020382 27461450 26969444 
1269.927 26541460 26176782 25875956 25639548 25467528 25358728 25312048 
1273.302 25327150 25404852 25546062 25750950 26016194 26334368 26692380 
1276.677 27071172 27448002 27795346 28083048 28283232 28370412 28327792 
1280.052 28150710 27847522 27439108 26953262 26422074 25874056 25329786 
1283.427 24803350 24302254 23830964 23395394 23003544 22666016 22394542 
1286.803 22198274 22083876 22054872 22113372 22261850 22504418 22845872 
1290.178 23290608 23839750 24489940 25231588 26048630 26919630 27814458 
1293.553 28696478 29525176 30255410 30847476 31273636 31522148 31602494 
1296.928 31543202 31389274 31190074 30995558 30850500 30788002 30831504 
1300.304 30993670 31274814 31662438 32128788 32634034 33125174 33544414 
1303.679 33840788 33971868 33913968 33663340 33234614 32656290 31964804 
1307.054 31202820 30411250 29627646 28886070 28211414 27620422 27121322 
1310.429 26714576 26396194 26160910 26005464 25928816 25931702 26014892 
1313.805 26176994 26414468 26722752 27098364 27540276 28050106 28630252 
1317.180 29280962 29998998 30775908 31600214 32459758 33343152 34240856 
1320.555 35143908 36040128 36913088 37739560 38489508 39131928 39636280 
1323.930 39979416 40151944 40161684 40037040 39822540 39579800 39376448 
1327.306 39273828 39323484 39554396 39970228 40550448 41258228 42050524 
1330.681 42884832 43730596 44569752 45395928 46211036 47020996 47833176 
1334.056 48653320 49486192 50333876 51194964 52063096 52925412 53764200 
1337.431 54556148 55275968 55900384 56408004 56783312 57016968 57106560 
1340.807 57056188 56876136 56582952 56197976 55746276 55257192 54759108 
1344.182 54278376 53837184 53449576 53123000 52858716 52652796 52496360 
1347.557 52374068 52264928 52139192 51961992 51700912 51329152 50834992 
1350.932 50225960 49531128 48797812 48084088 47457648 46981972 46709920 
1354.308 46680480 46908840 47383732 48063916 48886132 49768644 50620940 
1357.683 51362748 51926028 52264220 52356948 52208016 51846312 51319716 
1361.058 50698420 50068536 49518760 49137656 48990380 49104372 49464136 
1364.433 50013284 50667664 51321580 51869608 52214368 52272180 51993100 
1367.809 51365956 50425452 49243152 47918376 46559780 45258780 44087732 
1371.184 43091772 42289136 41682588 41267084 41037956 40993092 41131232 
1374.559 41446096 41920376 42525976 43229704 43997888 44806040 45641132 
1377.934 46500068 47389240 48321668 49316940 50399548 51599932 52950300 
1381.310 54472868 56167808 57995432 59874400 61673228 63226820 64369648 
1384.685 64939024 64813024 63936248 62344936 60181920 57673520 55101240 
1388.060 52714328 50680176 49074992 47888700 47061392 46509324 46151448 
1391.435 45914096 45731612 45551484 45327808 45025992 44628428 44137316 
1394.811 43574004 42969212 42352144 41739888 41136256 40538008 39945232 
1398.186 39369156 38837644 38388980 38059936 37876344 37845072 37956792 
1401.561 38192732 38533644 38963864 39472668 40054844 40707080 41425688 
1404.936 42204560 43034656 43904544 44803652 45723328 46658712 47608948 
1408.312 48574828 49557384 50556836 51571048 52596840 53631508 54672368 
1411.687 55716556 56757444 57781228 58767408 59690480 60525308 61257312 
1415.062 61886264 62429548 62916636 63386284 63879624 64433560 65078832 
1418.437 65833592 66695476 67639088 68618136 69576368 70456936 71214440 
1421.813 71821632 72270680 72579952 72792640 72974208 73192040 73496688 
1425.188 73909104 74416328 74983632 75569896 76144680 76691920 77211776 
1428.563 77716928 78228768 78775424 79387288 80101912 80958072 81986848 
1431.938 83205848 84610056 86175808 87864312 89638456 91476040 93370352 
1435.313 95333872 97386040 99540944 101787832 104094336 106419032 108721472 
1438.689 110967816 113121952 115142496 116966872 118513432 119697936 
1441.582 120431200 120637136 120263464 119282032 117698360 115553976 
1444.475 112934544 109959888 106765848 103504464 100315336 97319248 94619792 
1447.850 92284824 90340600 88766248 87505880 86486520 85643376 84943824 
1451.225 84392816 84027704 83893832 84021352 84399864 84976096 85650192 
1454.601 86292112 86766904 86946424 86762544 86249224 85566296 84936976 
1457.976 84552600 84525760 84881296 85599872 86650512 88000824 89613408 
1461.351 91431952 93381648 95353480 97201528 98770280 99904488 100498256 
1464.726 100534680 100096744 99336808 98411296 97452712 96542920 95719896 
1468.102 94997184 94368176 93807552 93262696 92649608 91855984 90752504 
1471.477 89241240 87299872 85016152 82563264 80136304 77882520 75868224 
1474.852 74103784 72579984 71295832 70268640 69520128 69054216 68843344 
1478.227 68826992 68930280 69074728 69201384 69279960 69307592 69305104 
1481.603 69305496 69347824 69468888 69706280 70105024 70715312 71592840 
1484.978 72788408 74331384 76213904 78374080 80700640 83021488 85115264 
1488.353 86744736 87659352 87648648 86600152 84530544 81600768 78062248 
1491.728 74197328 70235688 66319420 62525504 58873600 55366484 52028432 
1495.104 48913536 46110916 43726712 41846124 40507708 39695344 39359980 
1498.479 39439248 39876328 40626632 41649440 42901724 44337112 45899696 
1501.854 47529760 49170420 50753240 52198976 53410600 54246764 54529136 
1505.229 54060636 52686608 50401188 47417472 44119016 40875964 37910148 
1508.604 35274484 32921710 30781492 28805126 26974450 25300634 23805340 
1511.980 22502148 21391432 20457418 19677168 19026832 18487268 18043310 
1515.355 17680450 17384482 17143482 16950470 16807444 16721211 16697418 
1518.730 16733574 16815884 16920910 17026308 17120976 17217250 17346066 
1522.105 17544014 17830562 18199560 18626454 19081498 19544680 20010056 
1525.481 20488680 21001178 21568740 22201344 22894698 23634956 24407494 
1528.856 25204234 26024706 26874966 27763132 28694706 29672628 30697882 
1532.231 31771794 32896832 34074532 35301188 36562092 37834880 39092660 
1535.606 40311156 41465672 42533104 43494452 44327828 45015480 45545228 
1538.982 45915016 46131996 46209084 46166888 46027028 45811280 45537868 
1542.357 45215424 44839912 44395904 43867592 43248516 42554444 41821240 
1545.732 41095608 40415076 39791780 39212608 38646988 38064744 37451172 
1549.107 36818768 36204176 35655988 35210056 34876840 34642084 34479732 
1552.483 34366608 34292844 34265452 34300268 34409576 34590412 34820756 
1555.858 35062144 35271180 35400284 35406828 35264676 34985644 34638604 
1559.233 34328308 34151520 34145392 34289548 34538496 34846248 35178576 
1562.608 35511124 35832304 36142092 36450624 36775060 37132040 37530676 
1565.984 37967716 38427820 38888520 39329144 39734448 40100592 40435804 
1569.359 40758064 41087524 41436108 41805916 42188964 42573416 42944960 
1572.734 43289148 43591116 43830460 43984724 44033896 43969948 43808728 
1576.109 43591884 43375292 43199544 43074832 42978464 42871516 42710852 
1579.485 42461340 42104592 41638864 41076924 40437768 39740512 38997324 
1582.860 38213860 37394072 36545872 35681956 34819288 33971904 33146560 
1586.235 32341946 31553108 30777260 30018952 29290568 28607710 27983558 
1589.610 27423014 26922978 26475706 26075052 25718500 25407030 25140578 
1592.986 24912642 24708604 24509326 24295632 24056404 23791970 23512622 
1596.361 23232788 22963754 22710876 22473256 22249086 22040648 21857156 
1599.736 21712784 21622646 21596388 21635532 21734938 21886914 22085062 
1603.111 22325506 22604370 22912092 23228524 23525144 23764954 23911828 
1606.487 23939976 23836844 23606652 23266068 22839374 22350866 21820710 
1609.862 21268234 20712532 20175034 19679108 19242868 18874056 18567556 
1613.237 18306372 18067454 17826766 17567992 17284584 16983616 16683612 
1616.612 16410997 16190244 16037052 15955819 15941141 15981670 16060948 
1619.988 16159464 16258623 16341185 16398713 16435705 16470807 16530417 
1623.363 16637510 16803140 17021208 17275034 17546016 17822794 18102100 
1626.738 18387010 18680790 18982560 19285436 19579236 19855754 20113566 
1630.113 20357714 20596578 20835748 21073726 21300178 21498024 21648278 
1633.489 21733720 21745318 21686208 21574102 21437136 21304736 21199096 
1636.864 21126702 21082562 21054354 21028164 20989528 20924574 20824136 
1640.239 20684176 20509834 20313304 20110964 19916176 19733336 19556256 
1643.614 19369340 19152132 18885372 18559846 18182146 17778092 17385860 
1646.990 17044432 16781786 16606078 16509319 16473697 16478103 16498476 
1650.365 16505430 16463786 16329454 16062599 15652986 15154099 14679670 
1653.740 14338273 14172450 14150404 14209013 14287557 14346697 14368136 
1657.115 14350156 14301631 14234827 14159407 14077737 13984722 13871337 
1660.490 13729870 13557887 13360275 13147864 12934873 12734234 12554664 
1663.866 12399715 12268542 12157786 12061466 11970381 11873321 11755720 
1667.241 11603369 11407088 11166628 10893955 10611064 10343761 10111758 
1670.616 9922692 9772439 9649545 9539082 9425903 9296268 9137841 8942299 
1674.474 8709960 8453657 8198314 7970423 7789000 7656413 7560885 7481964 
1678.331 7399551 7300036 7180534 7048671 6917388 6797721 6690235 6582338 
1682.188 6449884 6266539 6016310 5710356 5390628 5114214 4920641 4812613 
1686.046 4764204 4740420 4713890 4667836 4597643 4507138 4403832 4294794 
1689.903 4185082 4078006 3976440 3884126 3804264 3736382 3674459 3604860 
1693.761 3509852 3372921 3187934 2968261 2747199 2564010 2440973 2374569 
1697.618 2338457 2297917 2218880 2080291 1884672 1664160 1468528 1335697 
1701.476 1274148 1263647 1274978 1281093 1265807 1222310 1151907 1061951 
1705.333 962881 865262 776693 701151 638995 588461 546458 509237 473345 
1709.673 436263 397425 358127 320524 286206 255041 224508 190695 150123 
1714.012 101368 45859 -13651 -74545 -135927 -199321 -265984 -333333 -393354 
1718.352 -434567 -447840 -430694 -388587 -332339 -274726 -226643 -193426 
1722.209 -174680 -165075 -156596 -142353 -119431 -89088 -55330 -22199 7919 
1726.549 34029 56000 72569 80920 78203 62627 35421 530 -38168 -79878 -129866 
1731.853 -200149 -305719 -457307 -652151 -865988 -1060583 -1199352 -1267579 
1735.710 -1276103 -1250664 -1218879 -1200442 -1207447 -1240917 -1293678 
1739.085 -1352510 -1404432 -1441057 -1460310 -1465065 -1460046 -1448653 
1742.461 -1432702 -1413052 -1391254 -1369587 -1350660 -1336391 -1327274 
1745.836 -1321955 -1318652 -1316736 -1317496 -1324103 -1340057 -1367869 
1749.211 -1407569 -1456215 -1508389 -1557981 -1599710 -1629882 -1647311 
1752.586 -1652427 -1647674 -1636484 -1624006 -1616249 -1618956 -1635395 
1755.962 -1664838 -1701508 -1735798 -1758866 -1766423 -1761275 -1751672 
1759.337 -1748009 -1760186 -1792459 -1842777 -1902492 -1959592 -2003921 
1762.712 -2030207 -2039177 -2035649 -2026117 -2015729 -2008638 -2008143 
1766.087 -2016850 -2036440 -2066780 -2105229 -2146082 -2183403 -2212974 
1769.463 -2234830 -2253882 -2277153 -2311497 -2358229 -2411810 -2459915 
1772.838 -2489435 -2493421 -2473489 -2438499 -2399816 -2366336 -2341851 
1776.213 -2325306 -2313046 -2301313 -2289777 -2281339 -2280548 -2291062 
1779.588 -2312486 -2339840 -2365216 -2381495 -2386009 -2381857 -2375761 
1782.964 -2374476 -2382318 -2398696 -2419224 -2437445 -2449043 -2452733 
1786.339 -2450888 -2446934 -2443013 -2439554 -2435501 -2430130 -2424529 
1789.714 -2422618 -2429636 -2450031 -2484493 -2527682 -2569812 -2600609 
1793.089 -2613849 -2609534 -2592704 -2570833 -2550444 -2534501 -2524190 
1796.465 -2519249 -2519677 -2526199 -2540562 -2563422 -2593330 -2626298 
1799.840 -2656662 -2678529 -2688605 -2686761 -2675861 -2659495 -2640558 
1803.215 -2620732 -2600049 -2578738 -2558218 -2540858 -2529560 -2526002 
1806.590 -2530054 -2539442 -2550279 -2560425 -2568363 -2575412 -2583218 
1809.966 -2593000 -2603968 -2613322 -2617768 -2615331 -2606702 -2595537 
1813.341 -2585655 -2580616 -2580715 -2583778 -2585688 -2582263 -2571690 
1816.716 -2554298 -2532689 -2509267 -2485481 -2461101 -2434875 -2406307 
1820.091 -2376552 -2348639 -2326394 -2312815 -2308564 -2312123 -2320330 
1823.467 -2329327 -2335984 -2338094 -2334897 -2325834 -2311036 -2291425 
1826.842 -2269539 -2249235 -2235291 -2231698 -2239313 -2253817 -2266441 
1830.217 -2267232 -2248542 -2209677 -2156566 -2099393 -2048115 -2008605 
1833.592 -1981494 -1962891 -1945870 -1924396 -1895465 -1860065 -1821133 
1836.968 -1781173 -1740253 -1695105 -1641634 -1576337 -1499011 -1413415 
1840.343 -1325556 -1242140 -1167662 -1103881 -1049345 -1000224 -950733 
1843.718 -894955 -828025 -746431 -650397 -542893 -431058 -323234 -229690 
1847.575 -159378 -117709 -105750 -119994 -153780 -200679 -256547 -320884 
1851.433 -395506 -482561 -582006 -690494 -802295 -911983 -1016124 -1114457 
1855.290 -1209000 -1302333 -1395085 -1484878 -1567819 -1640643 -1702663 
1858.666 -1756391 -1806614 -1858317 -1913840 -1972588 -2031262 -2086664 
1862.041 -2137212 -2183831 -2228896 -2274484 -2320165 -2363271 -2400277 
1865.416 -2428845 -2450262 -2469173 -2491675 -2521785 -2558942 -2596360 
1868.791 -2624190 -2633873 -2622247 -2593462 -2556472 -2520896 -2492795 
1872.167 -2473917 -2461859 -2453095 -2445847 -2440970 -2441267 -2450426 
1875.542 -2469371 -2496254 -2526628 -2555912 -2581736 -2605088 -2628933 
1878.917 -2656004 -2686728 -2718669 -2747414 -2768880 -2782774 -2792288 
1882.292 -2803810 -2822575 -2850819 -2885315 -2920203 -2947947 -2964369 
1885.667 -2969766 -2968778 -2968680 -2974504 -2988852 -3010274 -3035281 
1889.043 -3059793 -3080817 -3097431 -3108814 -3114373 -3112959 -3103418 
1892.418 -3086673 -3066044 -3047389 -3036334 -3036663 -3047356 -3063281 
1895.793 -3077000 -3082198 -3076507 -3062359 -3045645 -3031398 -3023041 
1899.168 -3019981 -3019059 -3016921 -3012445 -3006687 -3003067 -3004022 
1902.544 -3009352 -3016591 -3021494 -3021132 -3015736 -3008958 -3006621 
1905.919 -3013663 -3031727 -3058510 -3088745 -3117400 -3141217 -3159670 
1909.294 -3174834 -3188254 -3199635 -3207496 -3208811 -3202101 -3189175 
1912.669 -3174143 -3162137 -3156644 -3158684 -3166150 -3176413 -3187761 
1916.045 -3201180 -3219730 -3245942 -3278927 -3313784 -3342029 -3356824 
1919.420 -3355970 -3344231 -3330487 -3325292 -3335288 -3360540 -3394239 
1922.795 -3426292 -3447955 -3455647 -3452426 -3444964 -3440296 -3441446 
1926.170 -3446607 -3451144 -3450519 -3443583 -3433064 -3423925 -3420276 
1929.546 -3422939 -3429415 -3435464 -3438258 -3438981 -3442104 -3453609 
1932.921 -3476257 -3508403 -3544095 -3575316 -3596675 -3607618 -3612087 
1936.296 -3616457 -3625066 -3637750 -3649512 -3654638 -3650268 -3639458 
1939.671 -3630159 -3632722 -3654539 -3695509 -3748926 -3802894 -3846740 
1943.047 -3874983 -3889334 -3895803 -3900071 -3904209 -3906179 -3901648 
1946.422 -3888841 -3869498 -3851206 -3841518 -3845886 -3862930 -3885852 
1949.797 -3905293 -3914060 -3911203 -3901779 -3894062 -3893898 -3902469 
1953.172 -3915505 -3927326 -3934090 -3938818 -3949030 -3974706 -4021850 
1956.548 -4089406 -4168470 -4246537 -4313894 -4367332 -4411974 -4456874 
1959.923 -4509869 -4571283 -4633935 -4686219 -4718505 -4728272 -4721521 
1963.298 -4709492 -4702870 -4707230 -4720865 -4738072 -4752558 -4761866 
1966.673 -4769043 -4779399 -4797357 -4822196 -4848868 -4870887 -4884811 
1970.049 -4892642 -4901455 -4919506 -4951709 -4996389 -5045126 -5087930 
1973.424 -5117926 -5132858 -5135740 -5129191 -5111639 -5076173 -5011784 
1976.799 -4911218 -4776711 -4622362 -4471599 -4345617 -4259038 -4213494 
1980.174 -4199909 -4204930 -4216546 -4229704 -4244995 -4265862 -4294406 
1983.550 -4327475 -4358115 -4379600 -4388161 -4386259 -4380420 -4378059 
1986.925 -4381798 -4388883 -4391802 -4383241 -4361002 -4329509 -4298310 
1990.300 -4277936 -4273441 -4282858 -4297228 -4305528 -4300574 -4281283 
1993.675 -4253558 -4225307 -4203354 -4188588 -4179169 -4170538 -4161054 
1997.051 -4152029 -4147369 -4150224 -4160332 -4171260 -4176084 -4167781 
2000.426 -4147106 -4121014 -4102995 -4106277 -4138080 -4196857 -4273474 
2003.801 -4354998 -4429161 -4488324 -4530723 -4558037 -4571021 -4569644 
2007.176 -4552233 -4518624 -4474354 -4428734 -4391999 -4371334 -4365135 
2010.552 -4365135 -4358640 -4335775 -4294209 -4240991 -4189933 -4153866 
2013.927 -4140017 -4146449 -4163548 -4179825 -4186323 -4181761 -4170440 
2017.302 -4159577 -4153210 -4150224 -4146384 -4135914 -4117042 -4092196 
2020.677 -4067348 -4047882 -4035539 -4026741 -4015251 -3996210 -3968303 
2024.052 -3936126 -3906081 -3883817 -3869958 -3860927 -3849991 -3832946 
2027.428 -3810317 -3788047 -3773890 -3771558 -3779573 -3788869 -3788671 
2030.803 -3769160 -3727639 -3668142 -3598384 -3524474 -3449073 -3370534 
2034.178 -3284912 -3192300 -3097529 -3009649 -2937514 -2885578 -2850720 
2037.553 -2824682 -2797128 -2762197 -2720348 -2677508 -2641678 -2617603 
2040.929 -2603079 -2591255 -2572842 -2542934 -2502843 -2460871 -2426176 
2044.304 -2405549 -2397806 -2396257 -2389634 -2368412 -2327943 -2269078 
2047.679 -2196821 -2115978 -2029679 -1939636 -1848089 -1760516 -1685005 
2051.054 -1629453 -1598191 -1587925 -1588519 -1584392 -1562107 -1515884 
2054.430 -1449974 -1377547 -1314523 -1273625 -1258097 -1262591 -1274715 
2057.805 -1282578 -1278812 -1262789 -1239298 -1214518 -1192578 -1173776 
2061.180 -1156196 -1137590 -1118224 -1101501 -1091421 -1090396 -1096610 
2064.555 -1105335 -1110160 -1106921 -1096544 -1083422 -1073870 -1072383 
2067.931 -1078531 -1087983 -1094957 -1095156 -1089140 -1081770 -1079654 
2071.306 -1087653 -1105665 -1128701 -1148529 -1158707 -1156229 -1143836 
2074.681 -1126486 -1109400 -1094362 -1079093 -1058435 -1027793 -985810 
2078.056 -935128 -881232 -829843 -784666 -746332 -712625 -681463 -651688 
2081.914 -624028 -599941 -580550 -565097 -551331 -536704 -520157 -503411 
2085.771 -489842 -484116 -488617 -503080 -524294 -548287 -572377 -595904 
2089.629 -620753 -649206 -681926 -717157 -750102 -775571 -789892 -792670 
2093.486 -786485 -775207 -762043 -747886 -731017 -709482 -682389 -651423 
2097.344 -620620 -593885 -573238 -557552 -542959 -525320 -502220 -473757 
2101.201 -443008 -413084 -385310 -357998 -327075 -288733 -241347 -187166 
2105.058 -131157 -79415 -35319 1590 34924 69984 109952 154531 199811 241349 
2109.880 275265 301956 325034 350135 381739 421006 464887 507512 542842 
2114.220 566563 577213 576417 567492 553624 537766 521876 508242 498953 
2118.559 495802 499617 509370 521975 533852 542809 549212 556013 568753 
2122.899 591779 626618 670885 719438 765573 804410 833955 855103 870607 
2127.239 882194 890329 894479 893483 888104 881298 877446 881132 894346 
2131.578 915994 942193 968726 993201 1015452 1038202 1063545 1091580 1119716 
2135.918 1142737 1156491 1159282 1154564 1148319 1147056 1154299 1169049 
2139.775 1186392 1199749 1204135 1198021 1183535 1164033 1141940 1116693 
2143.633 1086165 1047303 999245 944518 887075 832030 781373 734042 686250 
2147.972 633885 574626 509569 441204 371923 300729 223579 134412 28463 
2152.312 -95084 -232638 -377034 -522805 -666873 -810728 -956718 -1103682 
2156.169 -1241941 -1355351 -1421242 -1421771 -1351123 -1220036 -1054039 
2159.544 -882687 -731844 -614962 -532303 -476967 -439698 -414739 -400074 
2163.402 -395043 -399611 -410204 -422882 -433177 -440260 -447443 -460120 
2167.259 -483322 -518867 -564502 -615194 -666972 -718248 -771436 -830703 
2171.117 -899915 -977810 -1060087 -1137954 -1203217 -1251688 -1283437 
2174.492 -1302531 -1315085 -1325160 -1334508 -1343063 -1351684 -1363609 
2177.867 -1384549 -1420053 -1472330 -1538006 -1607963 -1669855 -1712564 
2181.242 -1730485 -1725402 -1704082 -1676292 -1648895 -1625756 -1606808 
2184.618 -1590896 -1577690 -1569008 -1567357 -1573432 -1585349 -1598092 
2187.993 -1605124 -1602384 -1589641 -1571088 -1553160 -1541473 -1537643 
2191.368 -1540119 -1543520 -1542958 -1535893 -1523082 -1506440 -1488114 
2194.743 -1467905 -1443501 -1411863 -1371899 -1326118 -1279671 -1239199 
2198.119 -1209000 -1190000 -1178799 -1170636 -1161846 -1151900 -1143440 
2201.494 -1140036 -1144299 -1155138 -1167960 -1176518 -1176485 -1166341 
2204.869 -1148892 -1128568 -1109136 -1091751 -1073870 -1052584 -1025413 
2208.244 -993447 -960850 -932913 -913835 -903618 -899551 -895980 -889301 
2212.102 -878356 -865691 -854943 -849123 -847701 -847304 -843105 -831629 
2215.959 -812415 -789264 -768294 -754435 -750367 -754336 -762705 -771238 
2219.817 -777225 -780367 -782252 -784104 -785956 -786419 -783575 -777225 
2223.674 -769154 -763168 -763168 -771238 -785956 -803221 -817541 -824552 
2227.531 -822998 -814267 -801865 -788338 -774744 -760125 -742759 -721821 
2231.389 -698764 -676302 -657279 -642722 -630844 -617676 -599246 -573767 
2235.246 -542959 -510891 -483222 -463099 -451150 -444166 -437778 -428609 
2239.104 -415798 -401399 -388786 -380212 -375643 -372035 -364718 -350085 
2242.961 -326512 -295422 -259362 -221212 -182198 -141724 -98131 -51089 -1491 
2247.301 47251 91061 126689 152609 169878 180319 186253 188573 187413 182109 
2252.123 172994 162155 152675 148200 150620 159735 173358 187778 199744 
2256.462 207568 211115 210849 207667 201435 191689 178231 161624 143958 
2260.802 127916 115653 108527 105511 104616 103987 102893 102230 103854 
2265.141 109654 120061 133815 148001 159934 168386 174021 178662 184595 
2269.481 192750 202231 211214 217347 219634 218839 217181 217645 222187 
2273.821 231569 245194 262235 282194 305006 331068 360117 390494 419945 
2278.160 445317 465219 480178 492883 507081 526056 550871 580432 611156 
2282.500 639493 662290 678518 689237 695941 700355 703209 704603 704304 
2286.839 702943 701550 701915 705433 712336 721662 731984 741609 750239 
2291.179 758570 768660 782103 799929 821905 846703 872566 898264 922967 
2295.519 946610 968892 988883 1005422 1017013 1022991 1023921 1021596 
2299.376 1018673 1017279 1018242 1021895 1026877 1032457 1038368 1045210 
2303.233 1053979 1065206 1078758 1093307 1107159 1119151 1129449 1139449 
2307.091 1151309 1166823 1186226 1208288 1230550 1250587 1266870 1279664 
2310.948 1290298 1300867 1312930 1327022 1342178 1357400 1371294 1383127 
2314.806 1392866 1400744 1407227 1412578 1416700 1420058 1423249 1427105 
2318.663 1432690 1440536 1450775 1463142 1477738 1494494 1513679 1534560 
2322.521 1555044 1571039 1577390 1568511 1541178 1495193 1434585 1366109 
2326.378 1297809 1237063 1188120 1151807 1125994 1107092 1091779 1078093 
2330.235 1065903 1055839 1048964 1045277 1044480 1046140 1050458 1058330 
2334.093 1070985 1089254 1112607 1139581 1167588 1194632 1219685 1243177 
2337.950 1266305 1290099 1314625 1338854 1361023 1379770 1395127 1408556 
2341.808 1422584 1439273 1459153 1481129 1503006 1522989 1540512 1557637 
2345.665 1577856 1605159 1642807 1691369 1749583 1814261 1881610 1947272 
2349.522 2007585 2058984 2098903 2125240 2137626 2137126 2126471 2109624 
2353.380 2090612 2072734 2057719 2045968 2036846 2030055 2025827 2024962 
2357.237 2028224 2035714 2045801 2056121 2063845 2067207 2065942 2061415 
2361.095 2055921 2051926 2050895 2053225 2058818 2068006 2080757 2098004 
2364.952 2119679 2145085 2171724 2197632 2220345 2239528 2256614 2274434 
2368.810 2296151 2324266 2358845 2399457 2444038 2491090 2539880 2590042 
2372.667 2641177 2692184 2740830 2784646 2821629 2851712 2876727 2900143 
2376.524 2925694 2956284 2992415 3033287 3076165 3118813 3159563 3198248 
2380.382 3235533 3272322 3309046 3345607 3381136 3415031 3447025 3477653 
2384.239 3507814 3538312 3569580 3601452 3633694 3666205 3699421 3734010 
2388.097 3770539 3809245 3849124 3888572 3925984 3959955 3990217 4017037 
2391.954 4041383 4063858 4084327 4102389 4117909 4131122 4143265 4156111 
2395.812 4171566 4190234 4211779 4234598 4256781 4277159 4295765 4314270 
2399.669 4334818 4359450 4389405 4424584 4464252 4507439 4553978 4604407 
2403.526 4659430 4719618 4784739 4853489 4924227 4994842 5064095 5131346 
2407.384 5197032 5261319 5325080 5388648 5453031 5518934 5587565 5659731 
2411.241 5735872 5814980 5895279 5974585 6050545 6122016 6189096 6252522 
2415.099 6313133 6371332 6426310 6477192 6522463 6562020 6596501 6627957 
2418.956 6658506 6689730 6722337 6755552 6788533 6820811 6852383 6884497 
2422.813 6918600 6955870 6996914 7041498 7089354 7140247 7194851 7254178 
2426.671 7319377 7391024 7469154 7552692 7640799 7732702 7828302 7928139 
2430.528 8032659 8141828 8255247 8371430 8489471 8608691 8729500 8852744 
2434.386 8979336 9109993 9244243 9381683 9521300 9663130 9807617 9955711 
2438.243 10107925 10264536 10424359 10585871 10747375 10907511 11065668 
2441.618 11221774 11375760 11527520 11676406 11821871 11963807 12103133 
2444.994 12241924 12382157 12525471 12672312 12821386 12970170 13115795 
2448.369 13256209 13390141 13517994 13640724 13759623 13875819 13990300 
2451.744 14103613 14216750 14330499 14445751 14563157 14682412 14802523 
2455.119 14922393 15040408 15156123 15269157 15379922 15488481 15595317 
2458.495 15699705 15801232 15899828 15995627 16089279 16181475 16272314 
2461.870 16361520 16448060 16530899 16609624 16684817 16758714 16834036 
2465.245 16914088 17002048 17099952 17209494 17332064 17468432 17619128 
2468.620 17784200 17963012 18154368 18356766 18569182 18791528 19024930 
2471.996 19270818 19530574 19804216 20089900 20383618 20680944 20977080 
2475.371 21268162 21552166 21827816 22094370 22350620 22594736 22824046 
2478.746 23035724 23227404 23397246 23544522 23668824 23769748 23847346 
2482.121 23901430 23932658 23942532 23933464 23908466 23870904 23823578 
2485.497 23768312 23705914 23636286 23558828 23473380 23380008 23279002 
2488.872 23171376 23057840 22938848 22814370 22684206 22547028 22401414 
2492.247 22245494 22077358 21895416 21699026 21488032 21263710 21027574 
2495.622 20781174 20525602 20261122 19987330 19703240 19408212 19101994 
2498.998 18785854 18461924 18133018 17802636 17473780 17149066 16830418 
2502.373 16518818 16214665 15917528 15626986 15342093 15062602 14788570 
2505.748 14520741 14260643 14009873 13770260 13542948 13328909 13128841 
2509.123 12943304 12772826 12617935 12478751 12353963 12241719 12138977 
2512.499 12042389 11949672 11860245 11775090 11696829 11628348 11571993 
2515.874 11528575 11497545 11477370 11465972 11462129 11465224 11475635 
2519.249 11493734 11520035 11554503 11596426 11644855 11698565 11756094 
2522.624 11815538 11875058 11932644 11987343 12038404 12087154 12135092 
2526.000 12184024 12234529 12285482 12334396 12377214 12410182 12430503 
2529.375 12437117 12430434 12411784 12382703 12344146 12296935 12241446 
2532.750 12178537 12109981 12038234 11965646 11893957 11824152 11756197 
2536.125 11689919 11625524 11563656 11506016 11453997 11407870 11367290 
2539.500 11330048 11294203 11257648 11219632 11180499 11141403 11103296 
2542.876 11066756 11031442 10996472 10961266 10925962 10891339 10858825 
2546.251 10829270 10803147 10779099 10755458 10729985 10701288 10668517 
2549.626 10632387 10594121 10555655 10518414 10483757 10452496 10425106 
2553.001 10401485 10381462 10364020 10348648 10334600 10321808 10310848 
2556.377 10302637 10298158 10297650 10300363 10304367 10307048 10305963 
2559.752 10299380 10286691 10268031 10244215 10215820 10183391 10147166 
2563.127 10107824 10066315 10024809 9985547 9950592 9921098 9896827 9876692 
2566.985 9858795 9842086 9826291 9811921 9800296 9792773 9790062 9792468 
2570.842 9799856 9812260 9829409 9851406 9877709 9907539 9938828 9969577 
2574.699 9997786 10022029 10042273 10059329 10074691 10089578 10105043 
2578.075 10121457 10138823 10157681 10178744 10202964 10231595 10265045 
2581.450 10302942 10344372 10388080 10432946 10478665 10525306 10573377 
2584.825 10623287 10674799 10727404 10780491 10833992 10888145 10944072 
2588.200 11003098 11066246 11134026 11206100 11280941 11357087 11432736 
2591.576 11506425 11576655 11642745 11704011 11760894 11813869 11864637 
2594.951 11914390 11964898 12016467 12069166 12121940 12173665 12223316 
2598.326 12270723 12316466 12361566 12407182 12453859 12501224 12548696 
2601.701 12595559 12641643 12687561 12734815 12784735 12838859 12897768 
2605.077 12961567 13029951 13102408 13178533 13258155 13341141 13427321 
2608.452 13516764 13609406 13705350 13805113 13909448 14018702 14132775 
2611.827 14250749 14370876 14491141 14609691 14725394 14837699 14947049 
2615.202 15053821 15158490 15261333 15362208 15461150 15558363 15653778 
2618.578 15747769 15840167 15930625 16018247 16102519 16183263 16261030 
2621.953 16336989 16412649 16488874 16566182 16643500 16719388 16792326 
2625.328 16861074 16925182 16985440 17042778 17098436 17153168 17207494 
2628.703 17261208 17314548 17367582 17420592 17473882 17527558 17581138 
2632.079 17633724 17684108 17731182 17774364 17813992 17850516 17885388 
2635.454 17919848 17954898 17991192 18028872 18067660 18106694 18145456 
2638.829 18183458 18220706 18257714 18295488 18334922 18376986 18422306 
2642.204 18470464 18521222 18573332 18626350 18679546 18733302 18788138 
2645.580 18845022 18904754 18967848 19034138 19103484 19175196 19248582 
2648.955 19323160 19398304 19473494 19548526 19623294 19697692 19772034 
2652.330 19846702 19921796 19997356 20073382 20149280 20225088 20300908 
2655.705 20377264 20454744 20534114 20615652 20698944 20782842 20865748 
2659.081 20946514 21024306 21098944 21171508 21242938 21314410 21386768 
2662.456 21460320 21534720 21609622 21684570 21758904 21832346 21904476 
2665.831 21975084 22043752 22110372 22175086 22238380 22300774 22363250 
2669.206 22426186 22489970 22554112 22618576 22683088 22747328 22811682 
2672.582 22876394 22941852 23008506 23076742 23146634 23218352 23292006 
2675.957 23367560 23445226 23524864 23606372 23689784 23775418 23863378 
2679.332 23953982 24047546 24143758 24242408 24342658 24444124 24546312 
2682.707 24649580 24754134 24861026 24970894 25084092 25201180 25322268 
2686.083 25447500 25577128 25711610 25850988 25995016 26143174 26294272 
2689.458 26447110 26601200 26756368 26913248 27072866 27236034 27403286 
2692.833 27574592 27749356 27926736 28106520 28288608 28473212 28661046 
2696.208 28852252 29046980 29245022 29446060 29650136 29857468 30068698 
2699.583 30284150 30504118 30728074 30954884 31183346 31412176 31640806 
2702.959 31868808 32096502 32324060 32551530 32778580 33004750 33229106 
2706.334 33451144 33670360 33886676 34100480 34311780 34520952 34728180 
2709.709 34933356 35136724 35338604 35538992 35738180 35936636 36134172 
2713.084 36330824 36526052 36719420 36910060 37096888 37279064 37455108 
2716.460 37624248 37785716 37938968 38083844 38220880 38350904 38475132 
2719.835 38595168 38712656 38829784 38948428 39070580 39198284 39332876 
2723.210 39475828 39627896 39789204 39960020 40139952 40328828 40526624 
2726.585 40733320 40949436 41175196 41410848 41656040 41909720 42170052 
2729.961 42434596 42700724 42965844 43228128 43486136 43739024 43986228 
2733.336 44227080 44460760 44686412 44902740 45109396 45305664 45491800 
2736.711 45667816 45833744 45989604 46135272 46271148 46398148 46518216 
2740.086 46633920 46748556 46865100 46986220 47113720 47248764 47392012 
2743.462 47544140 47705828 47877676 48060584 48254456 48459012 48673148 
2746.837 48894844 49122036 49351940 49581824 49808292 50027708 50236224 
2750.212 50430064 50605972 50761692 50895932 51008268 51099012 51168232 
2753.587 51216172 51242604 51246856 51228324 51186236 51120072 51029212 
2756.963 50912844 50769960 50599644 50400892 50173104 49916000 49630220 
2760.338 49316940 48977992 48615592 48233092 47833396 47420760 46999472 
2763.713 46574352 46150272 45731976 45323944 44930296 44554660 44200040 
2767.088 43869136 43563824 43285744 43036084 42815240 42623156 42459548 
2770.464 42323652 42214416 42130512 42070640 42032892 42014900 42014064 
2773.839 42027276 42051400 42083380 42120472 42159976 42199520 42236548 
2777.214 42268684 42293116 42307104 42308092 42294140 42264340 42218688 
2780.589 42158696 42086520 42005376 41918952 41830688 41743936 41661400 
2783.965 41584928 41515616 41453716 41398568 41348888 41302464 41256224 
2787.340 41206892 41150680 41084536 41005688 40912696 40805092 40683828 
2790.715 40550704 40407948 40258044 40103680 39946796 39789896 39635300 
2794.090 39485804 39344200 39213588 39096648 38996380 38915120 38854456 
2797.466 38815652 38799748 38807316 38838732 38893956 38972528 39073664 
2800.841 39196252 39338792 39499812 39677808 39871024 40078024 40297012 
2804.216 40526480 40764108 41008604 41257500 41509124 41761520 42012420 
2807.591 42259844 42501276 42733844 42954320 43159796 43346772 43512288 
2810.967 43653724 43769000 43856744 43916532 43948684 43954256 43934608 
2814.342 43891640 43827528 43745032 43647348 43538108 43421760 43303316 
2817.717 43187868 43081488 42989584 42917528 42870200 42851548 42864348 
2821.092 42910432 42989916 43102020 43244344 43413408 43605656 43816244 
2824.468 44040384 44273192 44509872 44745944 44977296 45200424 45412188 
2827.843 45610732 45794420 45963448 46118212 46260424 46392728 46518324 
2831.218 46641300 46765124 46893852 47030708 47178504 47339944 47517192 
2834.593 47712596 47928624 48167748 48432744 48726520 49052400 49414048 
2837.969 49816768 50266804 50772268 51343880 51993212 52734196 53582324 
2841.344 54553292 55664912 56936768 58388868 60043560 61923636 64048932 
2844.719 66434272 69082848 71981552 75090520 78341224 81635680 84837952 
2848.094 87793408 90339376 92313424 93587768 94079664 93763512 92674584 
2851.469 90902432 88580040 85852512 82873648 79787848 76710928 73740232 
2854.845 70946944 68375160 66051268 63982972 62164284 60578104 59200312 
2858.220 58004368 56961432 56045156 55232656 54503820 53842772 53236848 
2861.595 52675388 52150476 51656052 51187652 50742140 50318252 49915924 
2864.970 49536476 49183108 48861176 48576684 48337372 48150608 48022280 
2868.346 47956080 47952376 48008108 48116220 48266936 48447896 48644496 
2871.721 48841892 49025616 49182292 49302240 49379820 49414012 49408592 
2875.096 49370948 49310852 49237920 49161548 49089240 49026320 48976692 
2878.471 48943164 48927108 48929664 48951512 48992828 49053288 49132944 
2881.847 49231200 49347860 49482112 49632672 49797112 49971832 50153060 
2885.222 50336112 50517676 50695368 50868740 51039196 51209836 51385016 
2888.597 51569484 51768400 51986600 52228980 52500248 52805732 53151500 
2891.972 53545740 53998796 54522752 55133104 55846196 56677740 57641816 
2895.348 58746432 59990716 61360984 62829936 64354280 65873308 67319792 
2898.723 68619344 69700448 70509400 71011800 71202016 71102096 70760576 
2902.098 70243976 69623584 68974128 68362168 67839768 67450264 67223768 
2905.473 67180912 67337040 67702360 68285040 69092872 70133336 71415600 
2908.849 72950608 74749080 76820696 79170304 81793728 84672624 87769200 
2912.224 91028224 94369576 97691896 100885520 103827488 106400024 108506640 
2915.599 110073304 111064208 111482168 111367184 110785816 109818248 
2918.492 108552800 107067448 105425912 103677664 101852592 99967336 98028984 
2921.867 96039584 94001496 91921080 89810088 87687648 85578440 83508544 
2925.243 81505216 79592640 77788336 76104376 74545576 73110512 71792120 
2928.618 70579480 69458704 68414304 67430880 66494428 65592252 64715216 
2931.993 63856556 63011512 62176976 61350568 60530072 59713932 58901188 
2935.368 58092232 57288372 56492448 55707440 54936364 54181820 53446236 
2938.744 52731504 52040612 51377968 50748584 50159232 49616848 49127044 
2942.119 48694240 48320184 48003480 47739148 47519668 47334180 47169416 
2945.494 47011916 46848640 46668968 46467284 46243764 46005000 45762424 
2948.869 45532088 45331008 45173952 45072564 45032936 45055064 45133364 
2952.245 45257528 45414948 45590528 45769972 45939840 46088812 46207792 
2955.620 46290720 46333228 46333632 46291644 46209304 46089768 45938220 
2958.995 45761248 45565468 45357968 45145200 44932316 44723468 44521912 
2962.370 44330104 44150156 43983880 43832444 43696520 43575984 43469876 
2965.746 43376828 43295664 43225128 43164888 43114716 43075340 43047720 
2969.121 43033012 43033156 43050464 43087928 43148636 43235484 43350136 
2972.496 43493060 43661784 43852456 44057880 44269084 44475256 44663972 
2975.871 44822280 44938564 45002800 45008940 44955836 44848064 44694272 
2979.247 44507156 44301628 44091508 43889476 43705864 43547340 43417620 
2982.622 43317412 43244124 43192224 43153212 43116688 43071060 43004876 
2985.997 42908932 42776552 42605028 42395288 42151396 41879800 41587736 
2989.372 41282820 40971752 40659376 40349368 40043180 39741204 39443276 
2992.748 39149152 38859024 38574016 38295384 38024600 37761828 37505928 
2996.123 37253900 37001768 36745020 36479812 36203708 35916408 35619372 
2999.498 35315384 35008056 34701152 34397704 34100408 33811236 33531278 
3002.873 33261404 33001888 32752678 32513570 32284014 32063428 31851764 
3006.249 31648822 31454812 31270004 31094566 30928236 30770502 30620472 
3009.624 30476714 30337622 30201664 30067668 29934812 29803026 29672948 
3012.999 29545426 29421632 29302052 29186476 29074188 28964412 28856114 
3016.374 28749292 28644764 28543978 28448448 28359378 28277008 28200560 
3019.750 28128650 28059968 27993842 27930694 27871406 27817566 27770408 
3023.125 27730426 27697686 27672082 27653614 27643514 27643620 27656686 
3026.500 27684690 27729118 27789022 27862042 27943060 28026250 28104858 
3029.875 28172062 28222200 28251228 28256676 28238464 28198226 28139078 
3033.250 28064632 27978752 27885184 27786762 27686066 27585466 27487076 
3036.626 27392944 27304726 27223722 27149608 27081752 27018244 26957036 
3040.001 26897034 26837428 26778466 26721272 26666800 26616314 26570028 
3043.376 26528042 26490076 26455914 26425348 26398624 26375912 26357534 
3046.751 26343488 26333840 26328596 26327644 26330848 26338136 26349050 
3050.127 26362956 26379012 26396476 26414856 26434222 26454610 26476938 
3053.502 26501486 26528358 26557276 26587780 26618992 26650206 26681034 
3056.877 26711546 26742096 26773496 26806554 26842116 26881346 26924706 
3060.252 26972828 27025612 27083022 27144706 27210316 27280028 27354302 
3063.628 27433672 27518672 27608840 27703302 27800080 27897020 27991862 
3067.003 28083154 28169728 28251406 28328182 28399806 28465890 28525506 
3070.378 28577878 28622680 28660196 28691628 28718848 28744054 28769366 
3073.753 28796416 28826582 28860256 28897756 28938344 28981200 29024912 
3077.129 29068096 29109300 29147674 29183002 29215642 29246582 29277098 
3080.504 29308292 29340904 29375540 29412198 29450528 29490420 29531418 
3083.879 29572984 29614698 29655884 29696400 29736846 29778398 29822900 
3087.254 29872410 29928566 29992112 30062944 30139544 30219780 30301524 
3090.630 30383034 30462816 30540484 30615992 30689524 30761684 30832964 
3094.005 30904148 30976128 31049864 31126388 31206558 31290836 31379334 
3097.380 31471662 31567290 31665184 31764414 31864278 31963948 32063216 
3100.755 32162112 32260996 32360472 32460756 32561816 32663218 32764218 
3104.131 32863810 32961496 33057626 33152922 33248492 33345438 33444162 
3107.506 33544448 33645296 33745876 33845156 33943244 34040776 34138724 
3110.881 34238632 34341112 34446660 34555072 34665948 34778792 34893212 
3114.256 35008660 35124144 35239084 35352116 35462156 35568660 35671776 
3117.632 35772144 35870700 35968528 36065652 36162116 36257376 36350816 
3121.007 36442768 36534232 36626836 36722524 36822664 36927448 37035940 
3124.382 37146656 37257404 37366732 37474000 37579408 37684088 37789548 
3127.757 37896484 38005144 38114880 38224424 38332228 38437124 38538676 
3131.133 38637608 38735296 38833624 38934580 39039624 39149328 39263712 
3134.508 39382000 39503116 39626188 39750604 39876112 40002196 40128464 
3137.883 40253932 40377732 40498652 40615968 40729640 40840400 40949504 
3141.258 41058640 41169404 41283152 41400204 41520612 41643532 41767940 
3144.634 41892644 42016652 42139820 42261852 42383596 42505772 42629404 
3148.009 42755236 42883404 43013548 43145232 43277472 43409748 43541700 
3151.384 43673364 43804584 43935008 44064036 44190868 44314840 44435544 
3154.759 44553708 44670068 44786020 44902444 45019816 45137736 45255692 
3158.135 45373344 45490880 45608856 45728444 45850608 45975604 46102996 
3161.510 46231564 46359844 46486756 46612048 46735860 46858864 46981640 
3164.885 47104488 47227224 47349256 47470248 47590016 47708492 47825776 
3168.260 47942164 48057180 48170708 48282264 48392260 48500872 48608884 
3171.635 48716996 48825172 48933412 49041456 49148972 49255656 49361928 
3175.011 49467924 49573912 49679776 49784772 49888124 49989860 50089876 
3178.386 50189244 50288860 50389464 50491100 50592980 50694028 50793612 
3181.761 50891576 50989040 51087164 51187056 51288988 51391916 51494496 
3185.136 51594852 51691996 51786016 51878268 51970056 52062688 52156080 
3188.512 52249760 52342444 52433356 52522236 52609740 52697084 52785152 
3191.887 52874440 52964712 53054932 53144420 53232544 53318736 53402732 
3195.262 53484128 53562272 53636568 53706752 53773504 53838500 53903952 
3198.637 53971704 54043072 54117792 54194812 54272256 54348780 54423700 
3202.013 54497020 54569336 54641028 54712164 54782376 54851316 54918880 
3205.388 54986040 55053848 55123208 55194432 55266560 55337648 55406116 
3208.763 55471016 55532540 55592376 55652744 55714784 55778752 55843480 
3212.138 55906752 55966864 56023216 56076560 56129424 56184024 56242024 
3215.514 56303616 56367784 56432564 56496220 56557852 56617564 56676492 
3218.889 56735996 56797016 56860088 56925208 56991920 57059140 57126516 
3222.264 57193340 57259072 57323912 57387776 57451724 57516816 57584568 
3225.639 57656116 57731420 57809804 57889528 57968848 58046060 58120452 
3229.015 58192240 58262292 58331412 58400124 58468660 58536328 58603068 
3232.390 58668484 58732700 58796128 58859108 58921644 58984224 59047272 
3235.765 59111768 59179088 59250896 59327956 59409820 59495272 59582068 
3239.140 59667972 59751684 59833440 59914372 59996156 60079552 60164072 
3242.516 60247688 60327672 60401536 60468560 60529652 60587740 60646792 
3245.891 60710160 60780200 60857840 60942584 61032912 61127228 61224044 
3249.266 61321912 61419644 61515764 61608920 61698244 61783152 61863532 
3252.641 61939912 62013248 62084344 62154036 62222976 62291732 62361228 
3256.017 62431956 62504344 62578544 62654092 62730120 62805468 62879176 
3259.392 62950068 63017948 63082308 63143192 63200140 63253724 63304164 
3262.767 63352852 63401392 63451312 63503780 63558856 63615204 63670748 
3266.142 63722892 63769556 63809776 63843852 63872984 63899048 63924156 
3269.518 63949680 63976788 64006276 64038492 64073584 64111568 64151548 
3272.893 64192572 64233752 64274280 64313704 64352892 64392856 64434940 
3276.268 64480104 64528844 64580976 64636036 64693296 64752212 64812636 
3279.643 64874308 64936748 64999512 65062052 65123908 65185772 65248876 
3283.019 65314808 65385556 65462752 65546820 65637456 65733628 65833820 
3286.394 65936900 66041736 66148104 66256084 66366248 66479260 66596316 
3289.769 66718616 66847332 66983276 67126536 67277112 67433784 67595920 
3293.144 67762736 67934152 68110464 68292216 68479704 68672896 68871376 
3296.520 69074608 69282840 69496880 69718424 69949296 70190544 70442016 
3299.895 70702008 70968296 71237784 71509040 71782064 72057968 72339368 
3303.270 72628552 72927136 73235528 73552816 73876736 74206016 74538728 
3306.645 74874296 75213040 75556024 75904408 76259912 76623960 76997184 
3310.021 77379592 77770584 78168712 78572920 78982112 79395792 79814208 
3313.396 80237688 80666168 81099104 81535600 81974048 82413904 82855080 
3316.771 83298600 83746304 84199424 84658448 85122392 85589584 86057504 
3320.146 86524120 86988768 87451440 87912504 88372504 88831208 89287592 
3323.521 89740704 90189800 90634840 91076400 91515232 91951056 92383056 
3326.897 92809176 93227088 93634672 94030416 94413512 94783016 95138184 
3330.272 95477632 95799616 96102704 96386312 96650400 96895392 97121256 
3333.647 97326912 97510280 97668824 97801032 97906464 97987328 98046792 
3337.022 98088112 98113280 98121544 98110088 98074624 98010792 97915392 
3340.398 97787088 97626136 97433560 97210392 96957400 96675192 96363976 
3343.773 96024336 95656456 95260384 94834992 94378880 93890592 93369536 
3347.148 92816808 92235736 91630720 91006736 90367888 89716584 89053888 
3350.523 88380184 87695632 87001320 86298864 85590504 84877672 84161368 
3353.899 83442000 82720296 81997856 81277544 80563688 79860960 79172328 
3357.274 78500192 77844464 77204176 76578032 75965696 75367584 74785136 
3360.649 74219576 73671248 73139408 72622128 72117304 71623352 71139840 
3364.024 70667544 70208064 69762848 69333248 68919680 68522064 68139928 
3367.400 67772384 67419304 67079820 66752852 66437320 66131400 65832748 
3370.775 65539500 65249072 64959148 64667336 64371036 64068748 63759036 
3374.150 63442036 63118404 62789500 62456480 62119592 61777996 61429416 
3377.525 61071544 60701888 60318992 59922168 59512144 59089748 58655664 
3380.901 58210496 57754128 57286256 56806608 56315424 55812696 55299716 
3384.276 54777940 54249432 53716768 53182548 52649876 52121148 51598400 
3387.651 51082356 50573100 50069836 49571572 49076884 48585464 48097080 
3391.026 47612200 47131928 46657388 46189812 45729992 45278564 44834584 
3394.402 44397188 43964048 43532944 43101868 42669800 42236984 41805296 
3397.777 41377248 40955512 40542048 40137476 39740840 39350148 38963212 
3401.152 38577856 38192912 37808380 37424156 37041244 36660256 36281544 
3404.527 35905572 35532988 35164132 34799576 34439772 34084424 33732912 
3407.903 33384546 33038680 32695406 32355688 32021016 31693160 31373314 
3411.278 31062000 30758232 30460578 30166964 29875534 29585398 29296346 
3414.653 29009042 28725042 28445582 28171814 27904404 27643196 27387122 
3418.028 27135430 26886774 26640376 26396404 26155702 25919812 25690448 
3421.404 25469390 25256804 25052078 24852852 24656698 24460774 24263116 
3424.779 24062920 23860822 23658118 23456348 23257188 23061824 22870668 
3428.154 22683994 22501520 22323518 22149806 21980242 21814786 21652634 
3431.529 21493150 21335570 21179126 21023296 20867834 20712496 20557492 
3434.905 20403170 20249874 20098646 19950070 19804596 19662432 19523122 
3438.280 19384998 19246712 19106356 18962552 18815162 18664776 18512990 
3441.655 18362192 18214624 18071598 17933902 17800908 17670580 17540738 
3445.030 17409212 17274138 17135348 16993848 16851912 16712362 16578263 
3448.406 16450847 16330210 16214939 16102519 15990505 15877144 15761685 
3451.781 15644571 15527387 15410715 15295139 15180313 15065107 14948387 
3455.156 14829573 14709043 14587931 14468051 14350601 14236266 14124868 
3458.531 14015622 13907600 13799880 13692356 13584996 13478381 13372679 
3461.906 13267994 13164326 13061090 12958052 12854831 12751158 12647238 
3465.282 12542864 12438515 12334703 12231972 12131106 12032307 11935573 
3468.657 11839985 11744588 11647816 11549093 11448248 11346169 11244216 
3472.032 11143986 11046363 10951989 10860355 10771184 10683934 10598704 
3475.407 10515766 10435899 10359642 10286453 10215820 10146047 10075945 
3478.783 10004093 9929844 9853100 9774304 9694301 9614245 9535593 9459935 
3482.640 9388860 9323790 9265195 9212461 9164405 9118588 9072301 9023888 
3486.498 8972267 8917607 8861029 8804558 8749379 8697182 8648676 8604094 
3490.355 8563473 8527619 8496431 8470414 8449703 8433960 8422440 8414468 
3494.212 8408623 8404975 8403387 8403995 8407678 8414771 8426021 8441257 
3498.070 8460853 8484368 8511568 8541946 8575031 8610347 8647527 8686669 
3501.927 8728418 8773789 8824440 8882266 8948657 9024767 9111008 9206810 
3505.785 9310790 9420790 9534577 9649681 9764612 9878929 9993413 10110300 
3509.642 10232273 10362018 10501000 10649535 10806238 10968843 11134909 
3513.017 11302263 11469238 11634747 11797799 11957336 12111889 12259987 
3516.393 12400465 12532974 12658086 12776819 12890260 12998574 13100429 
3519.768 13193903 13275919 13343704 13395027 13428345 13443246 13439042 
3523.143 13415804 13373055 13310459 13227890 13125562 13003866 12863602 
3526.518 12705575 12531030 12341282 12138397 11924607 11702820 11475567 
3529.894 11245168 11013090 10780457 10547304 10313970 10080253 9845508 
3533.269 9609062 9370070 9127115 8880304 8630491 8380010 8132511 7891967 
3537.126 7661573 7443266 7236962 7040690 6852148 6668936 6488829 6311082 
3540.984 6135357 5961484 5789527 5619115 5450347 5283388 5118908 4957338 
3544.841 4799547 4645967 4496625 4351953 4212416 4078842 3952399 3833580 
3548.698 3721544 3613680 3506512 3395829 3278698 3154423 3024945 2894739 
3552.556 2769507 2654245 2551645 2462065 2383098 2310841 2241993 2173489 
3556.413 2103830 2032252 1958755 1883241 1805909 1726995 1646732 1565785 
3560.271 1485185 1405930 1328451 1253179 1179615 1106993 1033752 957834 
3564.128 877214 789107 691560 584280 469298 351396 238232 137561 55237 -6726 
3568.950 -50791 -82529 -109262 -137186 -170904 -212668 -261978 -317506 
3572.807 -376901 -438042 -499671 -560994 -621017 -679478 -736144 -790917 
3576.665 -844394 -897832 -951857 -1007827 -1065409 -1124074 -1182301 
3580.040 -1239001 -1292621 -1342799 -1389338 -1432504 -1472066 -1508290 
3583.415 -1541374 -1572045 -1602846 -1637111 -1678569 -1731376 -1797177 
3586.791 -1874714 -1959757 -2044982 -2122837 -2187755 -2237302 -2272473 
3590.166 -2296534 -2314101 -2329591 -2346333 -2366402 -2390919 -2419191 
3593.541 -2450328 -2482286 -2513550 -2542209 -2566749 -2586512 -2601202 
3596.916 -2610621 -2615496 -2616846 -2615232 -2611280 -2605780 -2598501 
3600.292 -2589773 -2579002 -2566452 -2552354 -2537564 -2523267 -2511441 
3603.667 -2503864 -2502777 -2510453 -2529032 -2560491 -2606702 -2668946 
3607.042 -2746689 -2837323 -2936066 -3036136 -3130164 -3212955 -3282216 
3610.417 -3339562 -3389505 -3436515 -3484770 -3535583 -3586817 -3634299 
3613.792 -3673793 -3702474 -3720773 -3732468 -3742980 -3758386 -3782923 
3617.168 -3818790 -3864868 -3916851 -3968730 -4014201 -4048539 -4069613 
3620.543 -4077655 -4075883 -4068858 -4060652 -4054776 -4053824 -4057402 
3623.918 -4064623 -4073257 -4081397 -4089209 -4099680 -4117666 -4150092 
3627.293 -4202993 -4277116 -4366217 -4456152 -4529445 -4572070 -4580496 
3630.669 -4560824 -4525116 -4486225 -4454053 -4434080 -4427423 -4430473 
3634.044 -4438475 -4446576 -4451954 -4454218 -4455529 -4458153 -4463794 
3637.419 -4472517 -4482618 -4492095 -4499605 -4504491 -4507868 -4511180 
3640.794 -4516197 -4523346 -4531904 -4540397 -4546758 -4550135 -4550988 
3644.170 -4550955 -4552856 -4559906 -4574562 -4598069 -4630361 -4670092 
3647.545 -4714769 -4762128 -4809482 -4854504 -4893494 -4922684 -4937426 
3650.920 -4934609 -4913577 -4876883 -4829470 -4778710 -4731877 -4695725 
3654.295 -4675075 -4671633 -4684449 -4708115 -4734893 -4757376 -4769960 
3657.671 -4770616 -4760686 -4743807 -4724372 -4706509 -4693562 -4687367 
3661.046 -4688481 -4696053 -4708050 -4722078 -4735450 -4745839 -4751018 
3664.421 -4749379 -4739383 -4720439 -4692546 -4656620 -4615511 -4572365 
3667.796 -4529936 -4487570 -4438442 -4368218 -4256216 -4080642 -3827363 
3671.172 -3493448 -3087594 -2623268 -2116176 -1582279 -1038867 -515458 
3674.547 -58080 275331 424687 355441 72138 -386038 -964884 -1609746 -2269902 
3678.886 -2902825 -3471326 -3945254 -4310449 -4568365 -4736564 -4840480 
3682.262 -4906206 -4954264 -4995407 -5032975 -5066414 -5095003 -5120644 
3685.637 -5147822 -5182202 -5227513 -5283982 -5347185 -5408809 -5460051 
3689.012 -5494995 -5512531 -5514625 -5505268 -5488451 -5465876 -5439437 
3692.387 -5410805 -5382367 -5356709 -5336450 -5322278 -5313997 -5309709 
3695.763 -5306927 -5303523 -5298449 -5292001 -5285716 -5281723 -5281887 
3699.138 -5287877 -5301199 -5322343 -5350262 -5382891 -5416073 -5444902 
3702.513 -5465090 -5473826 -5471012 -5458906 -5441237 -5422258 -5404456 
3705.888 -5389534 -5377000 -5366167 -5356185 -5347382 -5341720 -5341883 
3709.264 -5350098 -5367705 -5393330 -5423370 -5453344 -5477785 -5491985 
3712.639 -5493785 -5482431 -5459364 -5427363 -5390548 -5353109 -5320248 
3716.014 -5296420 -5284342 -5285160 -5297238 -5316877 -5339363 -5360440 
3719.389 -5377752 -5390647 -5400333 -5408056 -5414536 -5420295 -5424516 
3722.765 -5426839 -5427886 -5428901 -5432435 -5439895 -5451740 -5465712 
3726.140 -5478407 -5485245 -5482693 -5469802 -5447977 -5421832 -5396995 
3729.515 -5379094 -5372843 -5380993 -5403082 -5435642 -5473499 -5510404 
3732.890 -5541877 -5566935 -5587052 -5605664 -5624994 -5645240 -5662542 
3736.266 -5672418 -5670063 -5654169 -5626630 -5592122 -5555289 -5519892 
3739.641 -5487634 -5459069 -5434267 -5415092 -5405700 -5413161 -5445196 
3743.016 -5506315 -5593005 -5689228 -5770781 -5812958 -5805471 -5754923 
3746.391 -5680038 -5601739 -5537068 -5497874 -5488517 -5505792 -5541517 
3749.767 -5584141 -5623654 -5653057 -5669965 -5673890 -5664177 -5640727 
3753.142 -5603112 -5553948 -5497907 -5442153 -5393461 -5356971 -5335206 
3756.517 -5327285 -5329806 -5337923 -5347087 -5355105 -5360636 -5363549 
3759.892 -5362796 -5357527 -5346007 -5328431 -5306632 -5284440 -5266731 
3763.268 -5257958 -5259987 -5271903 -5289448 -5307091 -5319627 -5324994 
3766.643 -5324111 -5320969 -5319922 -5324275 -5334650 -5349247 -5363876 
3770.018 -5374022 -5376443 -5370095 -5356251 -5337464 -5316910 -5297075 
3773.393 -5279726 -5265192 -5252982 -5242048 -5231180 -5220180 -5209900 
3776.769 -5202501 -5200700 -5206855 -5221686 -5243227 -5267058 -5287418 
3780.144 -5298809 -5298973 -5288695 -5271805 -5253277 -5238054 -5228626 
3783.519 -5225876 -5228364 -5234061 -5240608 -5246958 -5252425 -5257434 
3786.894 -5261919 -5265094 -5266338 -5264832 -5260806 -5254881 -5248268 
3790.270 -5241885 -5235632 -5229182 -5221358 -5211700 -5201060 -5191402 
3793.645 -5185967 -5187964 -5198572 -5217037 -5239626 -5260904 -5275013 
3797.020 -5278777 -5271903 -5258056 -5243325 -5234814 -5239495 -5261166 
3800.395 -5299922 -5349378 -5398533 -5433744 -5445098 -5430013 -5393657 
3803.771 -5346367 -5300283 -5266731 -5253244 -5261820 -5288335 -5321885 
3807.146 -5349738 -5360538 -5349803 -5320019 -5278613 -5233045 -5189503 
3810.521 -5151588 -5119760 -5093464 -5072276 -5057244 -5050792 -5056523 
3813.896 -5077156 -5112851 -5159872 -5209867 -5251607 -5274980 -5275700 
3817.271 -5256354 -5225156 -5192580 -5169236 -5163506 -5179157 -5214811 
3820.647 -5263097 -5311084 -5345516 -5357789 -5346891 -5318546 -5282181 
3824.022 -5247515 -5221227 -5206429 -5202239 -5204399 -5207313 -5206135 
3827.397 -5198343 -5184854 -5168745 -5153847 -5143140 -5137835 -5137115 
3830.772 -5139276 -5141863 -5143369 -5142747 -5139833 -5134757 -5127914 
3834.148 -5120022 -5112458 -5107448 -5108102 -5117304 -5136820 -5165831 
3837.523 -5200765 -5235959 -5264996 -5283785 -5290790 -5287713 -5277992 
3840.898 -5265323 -5252884 -5242277 -5234322 -5228626 -5224174 -5219688 
3844.273 -5213435 -5204268 -5191140 -5173885 -5153520 -5131548 -5110100 
3847.649 -5090812 -5074994 -5062812 -5054362 -5049679 -5050596 -5060519 
3851.024 -5084262 -5127488 -5193301 -5279366 -5375200 -5463192 -5525683 
3854.399 -5552509 -5544395 -5509783 -5459103 -5401806 -5343290 -5286960 
3857.774 -5234879 -5188259 -5148837 -5118581 -5098475 -5088618 -5087242 
3861.150 -5091893 -5099261 -5107579 -5116289 -5126408 -5139145 -5154044 
3864.525 -5168516 -5178797 -5180335 -5171331 -5153880 -5133022 -5116191 
3867.900 -5110558 -5120218 -5144875 -5179059 -5212453 -5234814 -5240640 
3871.275 -5230230 -5209442 -5185705 -5166322 -5154698 -5150933 -5151752 
3874.651 -5151948 -5146971 -5134659 -5115568 -5093071 -5071523 -5055410 
3878.026 -5048041 -5050956 -5063532 -5082265 -5102437 -5118549 -5126211 
3881.401 -5123657 -5111934 -5094840 -5078007 -5066250 -5064253 -5073554 
3884.776 -5092613 -5116125 -5136755 -5147593 -5144646 -5128503 -5103387 
3888.152 -5076435 -5053609 -5040311 -5038805 -5048729 -5065890 -5083902 
3891.527 -5096445 -5098704 -5089175 -5069165 -5041785 -5010932 -4980012 
3894.902 -4951316 -4926780 -4907483 -4894477 -4888645 -4890643 -4900308 
3898.277 -4916230 -4936575 -4958261 -4978931 -4997307 -5013651 -5029143 
3901.653 -5045978 -5065071 -5086064 -5106269 -5122216 -5130009 -5126931 
3905.028 -5112818 -5089469 -5060191 -5029241 -4999665 -4973985 -4952528 
3908.403 -4935133 -4920850 -4908204 -4895918 -4882911 -4868921 -4853783 
3911.778 -4837924 -4822393 -4808564 -4798176 -4793097 -4794506 -4802928 
3915.154 -4818002 -4837662 -4858731 -4878259 -4892904 -4900832 -4901914 
3918.529 -4897097 -4887760 -4875605 -4861549 -4846313 -4830322 -4814987 
3921.904 -4801715 -4792900 -4790541 -4795423 -4806729 -4821574 -4835958 
3925.279 -4845592 -4847885 -4842479 -4831305 -4818297 -4807024 -4800077 
3928.655 -4798013 -4799913 -4803813 -4807384 -4809449 -4810268 -4810923 
3932.030 -4812398 -4815347 -4819018 -4822360 -4824195 -4823867 -4821836 
3935.405 -4818919 -4816134 -4814102 -4812103 -4809449 -4804894 -4798176 
3938.780 -4789984 -4782348 -4777596 -4777498 -4783331 -4794277 -4808728 
3942.156 -4823540 -4835401 -4842512 -4843757 -4839399 -4831011 -4820492 
3945.531 -4810072 -4801552 -4796276 -4794965 -4797062 -4801093 -4805517 
3948.906 -4808073 -4807548 -4802928 -4794637 -4783593 -4771108 -4758392 
3952.281 -4746823 -4737351 -4730468 -4726601 -4725912 -4727781 -4730829 
3955.656 -4733614 -4733910 -4730534 -4722602 -4711130 -4698314 -4686809 
3959.032 -4679172 -4676845 -4680254 -4687367 -4696217 -4703788 -4707886 
3962.407 -4707296 -4701854 -4692382 -4680483 -4668420 -4657800 -4650424 
3965.782 -4647310 -4648031 -4651604 -4655669 -4657800 -4656062 -4649342 
3969.157 -4638197 -4624297 -4609806 -4596660 -4585677 -4577087 -4569644 
3972.533 -4562463 -4554627 -4546594 -4538823 -4532462 -4528264 -4525936 
3975.908 -4524821 -4523706 -4521608 -4518362 -4513705 -4508721 -4503933 
3979.283 -4499867 -4496686 -4494489 -4493407 -4493735 -4495735 -4499572 
3982.658 -4504786 -4510623 -4515738 -4519017 -4520001 -4518427 -4515148 
3986.034 -4511410 -4508130 -4505868 -4505212 -4505671 -4506950 -4508983 
3989.409 -4511246 -4513443 -4514886 -4514689 -4512131 -4507048 -4500129 
3992.784 -4492915 -4486815 -4483569 -4483897 -4487012 -4491931 -4496686 
3996.159 -4499572 -4500031 -4497834 -4493866 -4489767 -4486487 -4484946 
3999.535 -4486094 -4490029 -4497014 
##END=
