##TITLE=Z327c_2_a
##JCAMP-DX=5.01  $$ Nicolet v. 1
##DATATYPE=INFRARED SPECTRUM
##ORIGIN=UniL
##OWNER=Nicolet
##LONGDATE=2011/09/28
##TIME=14:02:33
##SPECTROMETER/DATA SYSTEM=Nicolet iS5
##DATA PROCESSING=
Ratio against background
%Transmittance->Absorbance
Truncated
ElementMultiply or ElementDivide
##COMMENTS=
Number of sample scans: 32
Collection length: 51.17 sec
Sample gain: 2.0
Background collected on: Mer Sep 28 13:59:45 2011 (GMT+02:00);
Number of background scans: 32
Background gain: 2.0
Sample spacing:  1.000
Number of scan points: 12415
Resolution points: 8192
Number of FFT points: 65536
Apodization: N-B fort;
Phase correction: Mertz;
Laser frequency: 15798.0 cm-1
Number of rejected sample scans: 0
Number of rejected background scans: 0
Bench serial number: ASB1000141;
##RESOLUTION=4.000
##XUNITS=1/CM
##YUNITS=ABSORBANCE
##FIRSTX=649.893372
##LASTX=4000.122314
##FIRSTY=0.125896
##MAXX=4000.122314
##MINX=649.893372
##MAXY=0.292374
##MINY=-0.001606
##XFACTOR=1.000000
##YFACTOR=1.000000E-009
##NPOINTS=6950
##DELTAX=0.482117
##ZPD=6100
##XYDATA=(X++(Y..Y))
649.893 125895544 125215736 124625488 124158360 123819760 123595528 
652.786 123463992 123412312 123443520 123572184 123812360 124167664 
655.679 124624912 125161808 125759600 126416416 127149400 127988696 
658.571 128961000 130072800 131308792 132638336 134035336 135493328 
661.464 137031232 138679680 140466048 142390368 144423104 146510928 
664.357 148601440 150658592 152654896 154564656 156332256 157845312 
667.250 158950384 159507360 159478128 158957552 158115936 157098608 
670.142 155969616 154725952 153333344 151767552 150040576 148209920 
673.035 146353520 144552960 142857696 141278288 139797392 138392240 
675.928 137052624 135787824 134617232 133554192 132593096 131707888 
678.820 130860120 130014016 129151760 128274904 127399024 126538696 
681.713 125698168 124867704 124030000 123170600 122287816 121393680 
684.606 120509512 119654936 118838072 118056088 117297696 116553280 
687.498 115818776 115098784 114399768 113723840 113064560 112407440 
690.391 111735968 111041312 110326160 109605312 108898040 108221048 
693.284 107583096 106984952 106424920 105906536 105442464 105054416 
696.177 104766440 104596440 104551328 104625520 104805880 105077920 
699.069 105433128 105869376 106388552 106988936 107661672 108386960 
701.962 109139648 109894632 110632936 111346280 112034480 112700272 
704.855 113342952 113956120 114530400 115058624 115541824 115991600 
707.747 116425680 116863616 117319224 117797616 118299584 118828576 
710.640 119396856 120030176 120760944 121618096 122615552 123740536 
713.533 124952744 126185832 127367392 128429056 129319744 130016432 
716.425 130522448 130866128 131093336 131267456 131464016 131757248 
719.318 132220360 132906112 133833320 134977424 136262480 137571136 
722.211 138744848 139619344 140050768 139934096 139236432 138002624 
725.104 136357312 134471664 132539896 130743024 129202784 127981352 
727.996 127078056 126449752 126032872 125766680 125609936 125537904 
730.889 125538960 125604000 125719544 125867352 126030040 126195712 
733.782 126362920 126537416 126727552 126936184 127157704 127379432 
736.674 127588960 127779960 127956096 128129128 128311544 128510568 
739.567 128722992 128936888 129138184 129318224 129477888 129627464 
742.460 129780176 129946392 130128544 130322280 130520704 130719976 
745.352 130922464 131135152 131363304 131605312 131848992 132075904 
748.245 132267400 132412640 132513328 132582128 132636848 132690728 
751.138 132748424 132805912 132855088 132890496 132914392 132935224 
754.031 132965144 133012416 133077952 133155688 133237096 133316728 
756.923 133395504 133480144 133578168 133694264 133826224 133966800 
759.816 134107160 134242176 134372640 134504000 134640320 134781520 
762.709 134920240 135046880 135153648 135243536 135332432 135450608 
765.601 135635440 135922560 136340128 136899056 137588656 138369216 
768.494 139172752 139908896 140468112 140751744 140695680 140293376 
771.387 139609952 138773504 137952544 137295008 136895152 136758896 
774.279 136803616 136878208 136807984 136455744 135743536 134671184 
777.172 133294480 131697472 129952208 128095360 126126872 124019464 
780.065 121739944 119265232 116596264 113757288 110794712 107765072 
782.958 104729760 101752240 98886896 96179608 93665584 91364592 89284536 
786.332 87423488 85773544 84323976 83064336 81986096 81081384 80342688 
789.707 79763000 79335376 79055168 78921200 78937328 79111456 79454440 
793.082 79977576 80688592 81588576 82668904 83910232 85281120 86736968 
796.457 88226984 89694872 91086488 92363832 93512560 94553296 95540840 
799.832 96564352 97728912 99125240 100810368 102772584 104918544 107057352 
803.206 108927040 110242616 110725320 110189400 108581776 106004184 
806.099 102690192 98954920 95135008 91485696 88154560 85160888 82420632 
809.474 79791792 77132664 74358008 71452984 68475008 65521388 62704548 
812.849 60117336 57812984 55810664 54097972 52646548 51420148 50384668 
816.224 49510404 48770452 48141872 47605880 47147144 46756120 46427756 
819.598 46159740 45950040 45796112 45693952 45640068 45632592 45673484 
822.973 45766216 45916712 46129376 46406368 46747228 47149028 47606988 
826.348 48113996 48659992 49230832 49807144 50368332 50896156 51380764 
829.723 51827084 52257492 52714144 53250748 53929384 54812596 55948360 
833.098 57362516 59042980 60933052 62916636 64821100 66446432 67568984 
836.473 67996024 67610792 66390680 64425260 61889132 59022520 56067664 
839.847 53230668 50670232 48470716 46657420 45210940 44087692 43234936 
843.222 42600752 42142560 41823464 41612128 41484156 41419816 41405308 
846.597 41433084 41498408 41597728 41726140 41876372 42040052 42209996 
849.972 42382352 42557260 42737868 42929376 43136232 43361964 43609428 
853.347 43881964 44183972 44521400 44900352 45326044 45802040 46330464 
856.721 46913864 47556896 48267528 49057704 49942388 50937584 52061752 
860.096 53335708 54781848 56426456 58292416 60392132 62714576 65215840 
863.471 67812936 70378264 72763064 74813472 76390976 77408936 77842408 
866.846 77739160 77207344 76407808 75531024 74754704 74243288 74122736 
870.221 74469416 75321200 76675872 78499432 80725864 83259784 85980520 
873.596 88726464 91312744 93544080 95219496 96179440 96323936 95629616 
876.970 94154856 92027720 89429448 86549200 83573200 80660784 77919232 
880.345 75412160 73157528 71139448 69321904 67665536 66141048 64734324 
883.720 63449240 62302096 61314736 60505352 59882004 59441960 59173276 
887.095 59060100 59086600 59241932 59520884 59922324 60446092 61091148 
890.470 61854744 62733948 63727960 64840952 66082904 67469656 69021200 
893.844 70757464 72696784 74850240 77216016 79770216 82457688 85188912 
897.219 87825328 90196936 92120816 93412992 93937608 93624600 92484312 
900.594 90605120 88139584 85286968 82246616 79211808 76347360 73767680 
903.969 71548888 69727528 68308504 67277232 66608132 66273524 66245816 
907.344 66501960 67025496 67803952 68829984 70100352 71614488 73373288 
910.719 75376448 77617512 80079088 82727104 85503152 88332512 91122912 
914.093 93776920 96214176 98377928 100250184 101853600 103250336 104531048 
917.468 105792264 107127536 108600328 110225912 111959560 113693696 
920.361 115272352 116498976 117187720 117200688 116479920 115079696 
923.254 113168560 111028056 108989208 107409224 106621232 106857120 
926.146 108232400 110706208 114091496 118051704 122144160 125914368 
929.039 128910168 130779248 131321208 130477472 128329304 125046760 
931.932 120860240 116008864 110719032 105213840 99689480 94322672 89277256 
935.306 84680592 80631024 77194880 74401776 72256752 70746192 69846744 
938.681 69525968 69740784 70433160 71515136 72865840 74343536 75780592 
942.056 77014152 77913168 78384280 78394880 77970296 77189256 76162056 
945.431 75010296 73855688 72792640 71886680 71173760 70660960 70336304 
948.806 70175472 70151560 70236808 70405536 70636080 70907824 71202064 
952.181 71503960 71802440 72092000 72373888 72653696 72940176 73241760 
955.555 73565848 73917160 74298560 74712048 75158432 75637928 76149384 
958.930 76689424 77253184 77835424 78432072 79041856 79666072 80308240 
962.305 80971648 81658304 82367800 83098392 83848144 84616568 85405656 
965.680 86217992 87056136 87921144 88811528 89725384 90660800 91618200 
969.055 92600552 93611944 94656168 95734808 96847440 97992976 99171360 
972.429 100385400 101640760 102944448 104302360 105717232 107188256 
975.322 108712792 110288952 111918408 113606704 115362008 117193008 
978.215 119107416 121110736 123209272 125412328 127734688 130197496 
981.108 132824320 135637968 138656288 141887536 145329024 148964160 
984.000 152761584 156666848 160594528 164432560 168030144 171210720 
986.893 173802608 175644000 176619472 176679040 175842592 174200544 
989.786 171896464 169126496 166106000 163046656 160156096 157599008 
992.678 155494384 153917056 152892352 152411040 152439760 152937440 
995.571 153861232 155172384 156839504 158832576 161121040 163675760 
998.464 166465104 169458352 172625952 175930768 179323808 182739712 
1001.356 186086288 189254768 192133824 194615664 196622400 198115616 
1004.249 199100720 199625776 199776480 199673856 199451024 199252592 
1007.142 199221472 199472800 200096192 201144288 202632320 204548048 
1010.035 206860624 209535904 212537776 215833984 219394304 223181792 
1012.927 227154112 231266112 235470048 239723520 243986672 248209616 
1015.820 252322912 256222192 259755648 262747616 265011584 266382192 
1018.713 266762016 266137088 264596992 262317152 259558624 256637696 
1021.605 253868256 251564288 249987104 249311120 249632032 250950608 
1024.498 253192192 256216832 259853280 263923344 268238576 272624928 
1027.391 276915872 280939168 284536800 287565696 289909120 291499232 
1030.284 292313888 292373888 291724768 290425984 288539424 286120992 
1033.177 283228096 279915808 276230976 272210144 267869712 263208864 
1036.070 258216080 252885456 247231536 241299968 235165680 228922432 
1038.963 222678224 216532976 210576304 204887984 199526800 194532080 
1041.856 189916560 185658224 181696992 177936368 174266256 170571648 
1044.750 166762304 162795968 158682624 154486752 150308160 146275376 
1047.643 142518064 139148144 136260720 133916888 132145432 130946976 
1050.536 130296472 130150768 130452944 131144640 132168072 133467224 
1053.429 134992480 136690752 138498288 140341616 142126928 143744640 
1056.322 145086480 146044160 146528720 146483168 145883536 144748512 
1059.215 143136560 141152208 138934208 136640880 134450608 132529376 
1062.108 131019368 130037712 129658640 129918592 130817760 132324160 
1065.001 134374720 136874352 139708160 142732448 145783744 148703904 
1067.894 151336272 153549072 155250720 156382544 156922192 156874592 
1070.787 156264816 155131360 153520112 151485808 149085488 146376928 
1073.680 143423616 140290400 137049984 133791192 130610120 127614472 
1076.573 124919384 122627152 120828248 119591264 118951824 118914144 
1079.466 119443704 120471728 121885568 123535112 125251416 126840144 
1082.359 128117784 128941432 129219648 128942144 128176216 127066328 
1085.252 125800640 124585536 123633104 123117624 123172056 123879648 
1088.146 125263216 127288536 129862784 132852752 136081328 139345520 
1091.039 142452464 145216128 147484608 149155968 150168000 150501408 
1093.932 150171664 149223056 147719584 145736080 143359360 140675376 
1096.825 137767168 134719168 131607744 128504024 125472128 122557944 
1099.718 119785976 117153864 114632896 112172464 109711808 107200128 
1102.611 104605872 101931240 99212504 96520040 93945912 91584608 89531968 
1105.986 87866664 86642784 85894544 85632392 85848232 86519312 87612160 
1109.361 89085616 90888176 92963960 95248128 97662848 100124288 102534536 
1112.737 104783232 106764496 108374536 109527656 110170528 110281312 
1115.630 109873464 108987856 107689104 106053888 104159864 102086120 
1118.523 99900816 97657088 95395488 93140400 90904352 88694352 86516568 
1121.898 84381312 82306888 80316928 78440320 76707456 75143896 73771288 
1125.273 72605520 71656568 70932080 70438696 70182400 70169704 70404952 
1128.648 70887608 71609480 72551832 73685104 74964816 76335120 77731272 
1132.024 79077232 80300192 81336400 82139632 82694080 83016752 83158576 
1135.399 83191280 83200472 83270824 83465896 83825264 84354032 85024336 
1138.774 85776168 86525984 87182848 87648560 87836528 87681816 87139672 
1142.149 86192336 84844392 83119568 81054624 78696304 76101128 73328960 
1145.525 70442592 67507816 64583324 61724136 58978072 56380948 53960300 
1148.900 51733872 49710092 47890844 46273068 44850640 43615180 42557188 
1152.275 41667016 40934212 40349444 39904916 39594976 39416504 39367960 
1155.650 39448648 39657844 39994132 40456532 41044692 41759772 42604260 
1159.026 43581628 44694308 45943192 47326420 48838112 50467836 52200844 
1162.401 54013316 55872836 57739028 59560480 61280012 62841840 64189308 
1165.776 65274408 66059908 66518872 66638612 66420368 65880024 65044768 
1169.151 63952028 62646552 61173344 59577620 57902816 56185908 54461296 
1172.527 52759936 51107624 49528492 48043412 46669008 45418772 44301484 
1175.902 43321872 42481432 41779760 41215416 40787364 40494652 40336752 
1179.277 40313192 40424092 40670108 41053688 41578584 42249620 43071976 
1182.652 44049552 45184060 46474660 47917372 49502720 51213412 53023224 
1186.028 54889892 56756124 58554948 60207192 61634660 62771080 63562876 
1189.403 63980780 64021060 63705780 63078096 62197164 61135124 59963176 
1192.778 58750832 57562816 56451016 55458180 54616828 53946944 53459280 
1196.153 53154908 53025916 53055456 53217600 53479552 53797916 54122592 
1199.529 54401128 54576212 54594736 54412732 53996508 53331584 52423340 
1202.904 51299020 50002912 48591800 47130708 45679188 44290512 43006668 
1206.279 41853528 40844548 39982216 39261424 38672632 38203908 37843372 
1209.654 37578252 37395952 37285708 37238448 37248776 37315424 37440224 
1213.030 37626956 37879272 38199028 38585388 39034872 39541292 40096412 
1216.405 40690156 41309500 41940080 42565992 43170960 43741148 44265708 
1219.780 44737168 45152408 45510564 45813896 46066336 46275612 46453052 
1223.155 46613340 46775420 46959636 47184780 47467104 47816636 48236424 
1226.531 48722556 49265012 49848504 50453400 51059580 51646464 52195984 
1229.906 52696300 53141612 53534496 53883960 54205848 54521248 54854024 
1233.281 55233864 55693916 56269292 57000192 57925420 59080032 60494688 
1236.656 62190512 64179240 66463500 69037672 71888088 74991312 78315632 
1240.031 81817936 85443040 89131424 92817016 96431696 99913200 103198936 
1243.407 106229592 108953056 111320720 113293008 114841112 115944560 
1246.300 116591712 116778496 116507392 115789408 114644760 113104320 
1249.193 111204968 108984656 106478688 103713840 100710584 97487752 94068272 
1252.568 90486224 86791624 83044992 79319704 75694720 72241720 69027960 
1255.943 66105312 63505084 61239304 59297992 57652824 56257600 55054940 
1259.319 53982436 52972500 51965128 50911692 49777228 48546668 47222348 
1262.694 45822696 44375352 42913580 41471504 40077008 38753268 37516372 
1266.069 36375388 35334648 34393828 33548850 32793194 32118834 31518620 
1269.444 30987194 30521998 30122958 29791102 29527410 29331262 29200898 
1272.820 29133784 29127690 29181124 29293084 29461166 29680114 29941628 
1276.195 30232178 30534226 30828126 31091576 31301592 31437822 31482388 
1279.570 31424392 31261816 31002568 30663390 30265960 29834540 29389472 
1282.945 28945216 28510326 28088986 27684088 27301444 26950054 26642526 
1286.321 26393482 26215214 26117312 26106156 26185158 26357500 26626706 
1289.696 26996488 27469816 28047102 28724442 29492158 30334672 31230128 
1293.071 32148338 33051942 33899140 34643700 35244872 35673720 35918136 
1296.446 35987420 35910004 35730880 35499584 35265680 35073460 34954724 
1299.822 34931704 35015664 35207216 35495448 35856452 36256904 36651852 
1303.197 36993036 37237260 37348244 37305168 37102988 36751080 36269872 
1306.572 35686560 35033840 34344160 33649696 32981262 32363508 31815112 
1309.947 31347886 30965808 30668296 30452902 30317440 30261732 30286886 
1313.323 30393552 30580938 30846160 31185696 31596902 32079588 32635856 
1316.698 33268240 33977316 34759408 35605596 36503528 37439468 38399836 
1320.073 39373036 40347076 41307640 42236328 43108532 43893288 44559472 
1323.448 45076716 45422600 45588944 45585964 45445040 45214248 44959400 
1326.823 44751824 44655712 44724348 44986484 45443604 46071640 46828596 
1330.199 47666220 48536960 49406328 50255156 51077696 51879464 52671644 
1333.574 53467300 54278112 55113128 55976816 56868244 57779372 58694272 
1336.949 59591420 60443084 61219844 61894900 62444508 62851684 63107640 
1340.324 63211144 63168564 62992208 62699488 62310932 61848556 61336944 
1343.700 60798724 60253820 59717964 59200352 58704324 58229064 57770328 
1347.075 57321908 56875232 56419548 55940180 55420872 54848088 54213728 
1350.450 53521676 52788896 52048156 51343284 50723220 50241320 49944508 
1353.825 49869872 50041504 50462812 51114852 51951460 52906812 53898552 
1357.201 54835868 55638736 56239800 56593296 56680308 56506564 56103064 
1360.576 55519024 54826092 54110812 53462652 52972272 52708608 52704604 
1363.951 52952772 53405280 53986976 54601460 55151916 55547940 55710528 
1367.326 55589288 55166172 54461824 53529436 52447340 51304836 50180060 
1370.702 49138060 48223728 47460380 46860080 46428164 46169692 46090764 
1374.077 46195816 46481556 46932024 47519040 48208988 48966864 49766788 
1377.452 50593352 51441488 52315644 53227000 54193532 55237624 56385516 
1380.827 57663532 59086936 60648852 62305920 63978128 65543160 66852436 
1384.203 67761032 68130240 67861008 66915208 65337872 63268788 60918720 
1387.578 58544028 56367292 54534508 53107760 52072696 51370768 50923468 
1390.953 50655080 50496572 50385188 50269812 50104528 49853708 49498932 
1394.328 49041456 48502836 47914708 47308204 46702544 46103548 45509092 
1397.704 44919564 44345516 43813752 43360868 43023168 42827048 42780792 
1401.079 42877476 43101104 43434536 43863560 44378068 44972628 45643672 
1404.454 46387380 47198300 48068504 48988192 49947632 50937584 51951496 
1407.829 52985336 54036352 55102220 56180288 57266632 58357560 59450360 
1411.205 60543252 61634468 62718480 63782832 64808136 65769976 66643708 
1414.580 67414584 68081168 68658296 69172048 69655440 70143184 70664816 
1417.955 71245240 71900720 72633792 73432656 74268520 75102848 75891856 
1421.330 76596848 77191400 77663512 78023352 78303520 78556760 78839344 
1424.706 79195032 79642864 80172448 80754512 81352944 81940640 82501880 
1428.081 83034960 83548536 84058224 84584928 85151176 85785776 86519800 
1431.456 87380328 88386072 89538928 90825808 92220496 93696216 95236656 
1434.831 96836872 98507736 100267008 102130176 104093072 106132528 108215312 
1438.207 110304368 112364480 114354240 116226096 117912008 119327640 
1441.100 120389920 121016552 121143936 120735304 119779472 118295056 
1443.993 116328512 113959656 111291608 108436120 105515712 102643560 
1446.886 99921504 97444088 95283488 93481984 92043032 90934544 90104168 
1450.261 89499264 89089360 88871504 88866584 89099856 89582176 90290464 
1453.636 91169664 92127904 93050648 93820136 94321984 94489616 94341448 
1457.011 94006600 93675616 93517488 93638168 94066176 94789112 95783672 
1460.387 97025336 98485448 100117984 101858920 103608216 105227904 106567744 
1463.762 107476312 107851240 107679296 107045528 106101432 105000320 
1466.655 103868904 102782576 101774640 100855632 100018520 99238440 98462800 
1470.030 97605224 96548752 95157568 93328160 91036968 88375600 85525384 
1473.406 82688784 80015744 77570216 75358560 73368696 71601472 70082248 
1476.781 68845592 67908656 67256960 66840300 66590980 66438252 66330040 
1480.156 66241608 66172912 66141776 66172568 66290080 66515984 66872568 
1483.531 67390400 68106432 69061832 70291304 71808848 73594192 75580432 
1486.906 77661968 79684984 81459008 82784320 83453480 83296352 82229152 
1490.282 80280784 77604160 74426080 70995640 67511064 64090332 60792436 
1493.657 57626340 54586692 51687852 48971352 46510580 44394324 42693924 
1497.032 41440956 40620664 40191488 40101612 40305776 40769748 41463816 
1500.407 42356088 43412056 44589980 45845860 47137948 48415632 49619148 
1503.783 50672544 51461216 51836788 51629184 50693584 48999208 46692360 
1507.158 44068916 41429916 38967560 36739648 34719676 32859236 31125462 
1510.533 29509288 28024694 26694070 25531196 24538390 23703640 23008786 
1513.908 22434770 21966300 21590294 21292522 21057588 20871658 20726224 
1517.284 20622428 20568854 20573856 20638204 20751006 20890086 21031574 
1520.659 21160584 21283336 21425718 21622612 21896182 22244900 22649644 
1524.034 23084256 23530042 23980488 24444788 24941346 25490050 26100914 
1527.409 26771276 27490148 28245572 29031572 29849162 30705100 31607698 
1530.785 32562316 33571832 34636380 35754408 36923984 38140344 39393684 
1534.160 40666656 41938804 43189444 44402364 45561088 46649712 47654688 
1537.535 48557156 49338320 49979752 50466832 50789772 50946900 50950884 
1540.910 50824448 50598008 50300616 49950196 49549584 49088124 48551708 
1544.286 47934988 47252528 46538280 45836872 45184868 44594608 44054868 
1547.661 43537600 43014756 42472412 41921948 41396600 40940840 40587848 
1551.036 40346900 40205224 40138676 40125852 40157536 40239576 40386168 
1554.411 40609092 40907052 41262528 41643312 42012056 42326064 42542644 
1557.787 42629080 42580612 42443072 42303348 42256852 42354552 42594612 
1561.162 42947336 43377380 43856600 44365260 44893884 45442832 46017892 
1564.537 46628132 47280348 47974024 48699832 49441748 50179168 50893772 
1567.912 51571048 52203308 52791180 53344024 53876380 54399740 54921172 
1571.288 55440676 55952504 56447056 56911380 57330224 57680940 57937040 
1574.663 58072156 58069276 57935340 57706292 57439208 57182792 56957692 
1578.038 56750232 56525620 56240136 55855656 55350296 54720096 53978460 
1581.413 53147304 52249308 51299916 50305972 49270840 48201400 47109804 
1584.789 46013544 44928420 43862536 42816044 41784284 40765016 39764840 
1588.164 38799928 37891460 37059540 36315116 35658972 35085492 34587468 
1591.539 34159908 33798988 33497918 33241340 33002998 32752390 32458972 
1594.914 32103956 31685210 31217132 30723202 30226174 29742736 29280040 
1598.290 28839930 28424816 28041658 27701430 27416274 27193242 27031996 
1601.665 26925834 26866824 26849940 26875212 26944730 27056820 27199558 
1605.040 27350562 27477122 27544972 27528060 27411084 27194372 26888784 
1608.415 26511312 26077834 25601096 25093394 24569734 24050138 23559914 
1611.791 23120598 22745616 22434630 22175086 21946122 21725046 21494544 
1615.166 21245302 20979026 20707422 20449500 20225886 20052388 19938240 
1618.541 19885306 19888808 19937998 20016788 20106696 20188084 20247618 
1621.916 20282994 20305632 20336602 20397510 20501704 20647966 20824970 
1625.292 21018114 21217536 21419870 21626756 21840604 22060520 22280546 
1628.667 22493390 22694364 22885478 23074018 23269808 23478556 23698252 
1632.042 23917044 24116576 24276850 24379282 24413032 24378300 24288448 
1635.417 24166036 24036444 23920440 23827078 23756378 23702102 23654864 
1638.792 23603606 23536616 23444456 23322702 23174838 23011686 22848838 
1642.168 22699984 22570028 22453784 22335760 22194892 22009206 21765350 
1645.543 21464220 21124998 20780686 20468428 20218214 20044302 19946462 
1648.918 19915206 19936436 19992224 20057834 20100934 20075844 19931510 
1652.293 19635808 19210866 18747382 18354970 18099958 17978552 17947230 
1655.669 17954380 17962286 17950926 17914736 17858906 17792106 17721624 
1659.044 17647940 17565890 17466052 17340720 17186502 17006184 16807824 
1662.419 16602498 16401708 16214080 16046336 15902234 15782436 15684625 
1665.794 15601808 15522648 15431314 15311304 15149913 14943174 14699447 
1669.170 14437461 14181385 13950573 13754288 13591799 13454968 13333282 
1672.545 13214841 13087861 12939822 12759211 12541090 12291754 12031148 
1675.920 11785440 11576995 11414163 11290700 11189883 11092963 10986650 
1679.295 10867251 10741873 10623694 10525067 10447914 10380580 10297243 
1682.671 10166500 9963271 9686203 9367903 9064181 8823222 8660675 8561310 
1686.528 8496059 8438386 8369910 8283277 8179001 8062463 7939748 7816021 
1690.385 7696141 7585499 7489784 7414347 7360322 7322242 7285985 7232481 
1694.243 7141425 7001426 6820272 6627048 6461116 6349107 6294240 6275784 
1698.100 6262169 6217564 6114321 5944386 5728116 5509068 5330011 5211485 
1701.958 5146199 5113510 5090276 5059971 5013143 4946312 4861430 4763869 
1705.815 4661975 4563420 4474998 4401087 4342917 4298843 4264544 4234765 
1709.673 4204586 4171968 4137746 4105701 4080080 4063156 4054627 4050982 
1713.530 4047805 4041216 4029110 4011452 3987810 3956110 3912109 3851698 
1717.387 3775486 3691568 3614382 3558155 3530963 3531898 3553144 3582877 
1721.245 3609604 3626644 3632458 3630687 3627847 3630052 3640310 3657685 
1725.102 3678803 3700290 3720742 3740259 3759343 3777458 3792298 3800621 
1728.960 3800487 3793034 3782271 3773481 3769403 3766763 3755098 3717701 
1732.817 3638539 3510085 3343637 3167373 3017071 2915620 2865053 2851479 
1736.675 2855715 2860184 2852779 2828666 2789481 2741563 2693418 2651544 
1740.532 2619509 2598042 2586409 2583776 2589409 2601942 2618909 2636943 
1744.389 2653311 2666680 2677948 2689250 2702353 2717456 2731560 2739863 
1748.247 2737295 2720391 2688316 2643677 2590642 2533747 2477260 2424479 
1752.104 2378434 2341755 2316271 2301947 2296151 2293720 2287557 2271203 
1755.962 2241527 2200629 2155707 2116416 2089048 2074898 2069005 2063545 
1759.819 2049729 2021899 1980157 1929633 1878316 1833759 1800420 1778727 
1763.677 1766717 1761826 1762259 1767049 1774535 1782187 1786412 1784250 
1767.534 1775034 1761560 1749018 1742730 1744128 1750216 1753409 1744394 
1771.391 1716783 1670746 1614903 1562526 1524585 1505899 1503804 1511119 
1775.249 1521027 1529407 1536157 1543771 1554212 1567414 1580017 1586968 
1779.106 1584208 1571205 1551486 1531801 1519032 1515774 1520362 1527578 
1782.964 1531568 1528974 1520263 1508791 1499781 1496523 1499548 1506796 
1786.821 1515973 1526081 1538185 1554445 1576692 1602931 1628506 1645900 
1790.678 1647563 1629869 1594816 1550322 1506431 1471521 1448647 1435981 
1794.536 1429233 1424313 1419493 1414606 1410584 1407526 1403936 1397819 
1798.393 1387382 1372856 1356470 1342277 1334068 1332971 1337890 1345501 
1802.251 1352548 1357965 1363217 1370662 1382994 1400512 1421388 1442098 
1806.108 1459220 1470955 1477638 1481195 1483024 1483855 1482259 1476341 
1809.966 1464805 1448548 1430962 1416002 1406828 1403936 1405166 1407260 
1813.823 1407625 1406096 1405697 1410850 1425842 1452371 1489008 1531202 
1817.680 1574298 1614437 1650191 1682388 1712824 1742963 1773104 1803214 
1821.538 1832461 1860945 1888698 1915289 1939983 1960553 1975198 1983985 
1825.395 1989843 1996967 2010581 2032951 2062680 2093476 2117515 2127137 
1829.253 2119746 2098969 2073899 2055622 2051793 2064011 2088615 2119280 
1833.110 2150579 2179916 2208322 2238596 2273468 2313339 2356246 2398757 
1836.968 2438507 2476027 2514751 2559511 2614908 2682882 2762871 2851712 
1840.825 2945709 3042096 3138770 3233898 3325306 3409788 3484934 3549937 
1844.682 3607433 3662797 3721243 3785647 3854306 3921470 3978915 4019278 
1848.540 4038206 4036133 4016636 3985268 3946046 3900073 3846048 3781937 
1852.397 3707074 3623971 3537276 3451467 3369716 3291485 3214437 3135466 
1856.255 3054275 2972931 2896340 2829100 2772908 2725592 2682449 2637810 
1860.112 2588042 2533814 2478760 2428011 2385264 2351382 2324332 2301847 
1863.969 2282428 2266673 2257380 2255948 2261577 2270270 2275433 2270803 
1867.827 2254183 2228271 2200230 2178850 2170492 2175887 2192071 2213584 
1871.684 2235732 2256548 2275933 2294252 2310908 2323399 2327930 2322034 
1875.542 2305645 2281595 2255249 2231369 2211686 2194635 2176120 2151877 
1879.399 2120745 2084919 2049463 2019702 1998698 1985649 1976163 1966144 
1883.257 1952930 1937554 1924208 1917452 1919915 1930199 1944044 1955294 
1887.114 1959854 1956259 1946407 1934192 1923243 1915522 1911362 1910130 
1890.971 1911794 1917352 1928302 1945076 1965812 1986848 2003491 2012179 
1894.829 2013111 2009183 2006187 2008750 2019036 2035481 2054390 2071835 
1898.686 2086351 2099003 2112287 2129102 2149580 2171458 2191005 2205525 
1902.544 2214484 2220312 2227072 2238096 2253384 2270803 2285925 2295119 
1906.401 2297817 2295851 2293553 2294519 2299948 2308542 2317337 2324099 
1910.259 2328729 2333759 2342354 2356279 2374803 2394059 2409652 2418915 
1914.116 2422013 2422113 2422746 2426312 2431243 2433275 2427145 2410019 
1917.973 2383764 2354747 2330062 2314938 2309708 2310175 2310341 2305878 
1921.831 2296384 2285292 2278431 2278930 2287191 2298183 2306244 2307177 
1925.688 2301214 2292620 2288124 2292687 2307144 2327797 2349317 2366740 
1929.546 2379000 2388695 2399923 2415116 2432976 2448536 2455667 2451802 
1933.403 2439040 2424179 2416216 2421014 2439340 2465831 2492256 2512485 
1937.260 2525016 2534147 2546279 2566843 2595909 2627709 2653811 2666713 
1941.118 2663513 2648711 2631143 2619609 2620142 2632376 2652078 2673681 
1944.975 2694351 2713489 2733194 2754201 2775209 2791982 2801820 2803321 
1948.833 2800853 2803087 2818061 2850745 2900076 2958453 3015036 3062250 
1952.690 3096687 3120281 3138036 3154023 3168675 3179055 3181158 3173581 
1956.548 3160331 3149050 3148950 3165170 3196345 3234499 3269885 3295525 
1960.405 3310916 3322001 3337827 3364206 3401439 3443385 3480892 3508616 
1964.262 3525485 3536909 3550973 3573823 3605461 3640778 3671719 3693673 
1968.120 3706740 3716765 3730668 3752057 3778695 3803195 3816967 3814627 
1971.977 3798281 3776288 3760513 3759477 3776790 3810615 3856712 3912944 
1975.835 3981690 4068039 4175146 4299881 4429940 4545909 4630896 4672927 
1979.692 4670415 4631599 4568242 4492139 4410894 4327958 4243766 4160359 
1983.550 4081986 4013459 3959922 3921437 3893620 3869416 3843374 3813223 
1987.407 3784176 3763186 3756636 3765961 3786014 3806805 3819641 3820944 
1991.264 3813323 3806270 3808744 3824989 3851698 3880248 3900073 3904854 
1995.122 3896195 3880415 3868179 3867644 3880883 3904419 3933139 3960390 
1998.979 3983596 4003861 4021819 4037571 4048005 4047972 4033859 4007539 
2002.837 3975337 3948252 3937386 3949657 3984299 4036902 4098241 4162032 
2006.694 4226200 4292418 4361592 4433455 4502986 4562818 4607856 4636522 
2010.552 4652397 4662612 4674870 4691449 4711211 4729299 4741693 4747990 
2014.409 4752646 4761524 4779915 4808559 4843605 4878352 4908108 4933041 
2018.266 4957874 4989479 5030942 5079716 5127893 5164674 5182815 5182211 
2022.124 5170207 5158806 5157700 5170676 5192271 5213665 5225771 5223491 
2025.981 5211049 5194919 5184122 5182613 5188582 5196730 5202364 5205248 
2029.839 5209574 5224094 5255920 5305961 5370566 5441120 5508564 5568568 
2033.696 5620626 5665975 5706898 5740941 5763236 5768877 5756923 5731406 
2037.553 5702835 5682357 5677288 5688232 5709852 5731608 5744500 5744634 
2041.411 5732548 5713545 5692831 5671178 5646606 5616262 5577261 5532692 
2045.268 5489538 5456554 5441925 5449340 5476552 5517524 5564910 5610824 
2049.126 5648385 5671615 5673897 5649526 5597097 5519739 5428169 5338329 
2052.983 5268597 5231841 5232478 5262862 5306799 5346380 5367748 5366708 
2056.841 5348661 5325080 5306095 5297341 5297341 5300292 5299353 5291572 
2060.698 5278592 5265981 5259508 5261386 5270308 5281879 5291639 5297945 
2064.555 5302171 5307034 5314346 5322866 5327830 5323369 5305927 5276378 
2068.413 5239453 5202699 5171950 5149384 5132888 5117399 5098189 5073783 
2072.270 5045724 5018305 4994608 4975503 4958846 4940849 4919100 4894235 
2076.128 4870276 4853054 4846721 4852853 4868768 4889376 4910554 4929488 
2079.985 4946312 4962801 4979491 4995546 5007914 5013378 5010126 5000037 
2083.843 4987167 4976073 4970107 4969605 4971280 4971079 4966353 4956332 
2087.700 4943262 4930292 4918396 4905896 4889074 4863407 4827087 4782930 
2091.557 4737572 4700224 4678319 4675975 4692119 4723001 4762596 4806013 
2095.415 4850708 4894704 4935889 4971783 4998931 5014349 5018204 5013545 
2099.272 5005802 5000674 5002049 5009489 5020651 5031746 5040261 5047601 
2103.130 5057021 5072408 5096177 5126920 5161053 5193880 5222618 5247334 
2106.987 5271415 5298649 5330682 5366104 5400356 5428169 5446287 5455212 
2110.844 5458433 5461587 5468432 5479505 5491585 5500141 5501551 5495041 
2114.702 5483296 5470747 5461553 5457292 5457057 5457795 5457795 5456487 
2118.559 5456420 5460278 5470412 5486551 5505947 5525007 5540914 5553902 
2122.417 5566790 5583201 5606427 5637073 5672219 5708543 5742016 5771193 
2126.274 5796881 5820891 5844734 5867705 5887588 5900619 5905389 5902668 
2130.132 5895985 5890711 5893230 5906296 5931823 5969882 6020039 6081928 
2133.989 6155857 6239916 6329842 6419483 6500500 6566864 6616350 6651272 
2137.846 6678055 6703190 6731355 6763090 6796207 6826701 6852788 6875442 
2141.704 6898434 6925232 6957654 6993480 7027119 7053454 7069012 7074367 
2145.561 7073323 7070730 7068743 7067935 7064432 7054430 7036683 7011595 
2149.419 6981661 6948665 6911193 6865175 6805294 6728428 6636973 6538776 
2153.276 6445243 6366255 6307687 6268186 6243580 6231648 6238303 6276624 
2157.134 6366490 6523068 6747374 7020890 7308393 7567865 7763464 7876986 
2160.991 7909378 7876952 7803269 7710947 7617397 7532969 7461806 7405044 
2164.848 7361872 7328914 7300137 7268498 7226114 7166689 7089759 6999238 
2168.706 6901767 6805092 6713891 6627653 6543250 6455870 6362858 6266237 
2172.563 6172123 6087472 6018594 5968135 5934007 5912308 5897899 5886479 
2176.421 5874926 5860921 5840939 5812159 5773241 5725430 5674871 5631299 
2180.278 5603205 5596694 5612066 5640866 5671547 5693335 5699042 5687795 
2184.135 5664968 5637241 5610824 5588504 5568937 5550177 5530813 5511416 
2187.993 5493732 5481283 5474069 5470881 5469036 5465882 5459741 5452092 
2191.850 5444475 5438234 5434041 5429947 5424915 5418976 5414984 5416661 
2195.708 5427532 5448267 5475042 5501517 5520343 5526819 5520611 5506114 
2199.565 5488229 5471586 5456923 5442160 5423975 5401296 5376336 5355236 
2203.423 5344803 5348762 5365836 5389386 5410622 5421492 5419043 5405624 
2207.280 5386736 5369224 5356644 5348158 5341080 5331587 5319176 5306464 
2211.137 5297475 5296536 5304049 5316962 5328971 5334807 5331520 5319780 
2214.995 5304317 5289928 5279866 5274701 5272689 5270878 5268497 5265378 
2218.852 5262896 5261755 5260213 5254478 5240594 5215911 5181540 5141874 
2222.710 5104223 5074118 5054809 5045758 5042707 5041065 5037747 5031378 
2226.567 5022629 5012606 5001110 4986798 4968432 4945608 4920541 4897955 
2230.425 4882607 4877782 4883646 4896379 4910353 4921110 4926405 4927746 
2234.282 4929220 4934917 4947418 4966823 4990921 5016528 5041937 5066106 
2238.139 5088600 5109453 5126518 5136811 5137884 5128496 5110291 5088131 
2241.997 5067882 5054541 5051457 5058563 5074017 5095171 5120115 5147406 
2245.854 5176745 5206321 5233752 5255484 5268363 5271247 5265948 5256758 
2249.712 5247938 5243411 5244015 5249078 5256255 5264975 5276278 5292645 
2253.569 5317130 5349902 5387508 5423606 5449642 5459104 5449139 5421828 
2257.427 5383146 5340577 5300360 5266115 5238380 5215710 5196060 5178254 
2261.284 5161958 5147641 5135839 5127054 5121254 5119276 5122260 5131748 
2265.141 5148714 5172587 5200620 5228755 5252063 5266686 5270744 5265143 
2268.999 5251996 5234490 5215610 5196697 5178925 5163433 5150625 5141639 
2272.856 5137281 5137113 5140064 5144456 5148445 5151698 5154716 5158270 
2276.714 5163433 5170039 5176175 5179528 5178187 5171850 5162360 5152805 
2280.571 5147104 5147708 5155788 5170140 5188414 5208433 5228386 5246898 
2284.428 5263332 5276513 5284696 5286708 5281543 5269805 5253539 5235764 
2288.286 5219030 5205013 5193578 5183820 5174331 5164909 5156526 5151631 
2292.143 5151899 5158572 5170710 5185933 5200922 5213631 5222921 5229493 
2296.001 5235261 5242035 5250721 5261454 5273158 5284931 5296167 5306564 
2299.858 5316292 5325247 5332929 5338564 5341851 5343160 5343596 5345374 
2303.716 5350439 5359999 5374223 5392070 5412031 5432430 5452830 5472760 
2307.573 5491987 5510578 5527726 5542290 5554204 5563702 5572696 5583369 
2311.430 5598003 5617235 5640698 5665908 5690380 5711295 5727713 5739531 
2315.288 5748362 5756151 5764881 5775626 5789258 5805678 5825021 5847387 
2319.145 5872676 5901224 5932932 5967631 6004685 6042112 6077392 6105752 
2323.003 6121479 6118891 6093252 6043221 5971192 5883793 5790198 5700620 
2326.860 5623949 5565447 5526551 5504235 5494437 5491752 5491920 5493464 
2330.718 5495410 5498229 5502121 5507255 5513597 5521853 5532692 5547794 
2334.575 5567763 5592599 5620860 5650500 5679436 5706394 5731708 5756756 
2338.432 5782878 5811186 5841275 5871534 5900048 5925206 5946267 5963668 
2342.290 5977944 5988829 5995548 5995749 5987955 5971427 5947947 5921545 
2346.147 5898571 5885270 5887286 5908143 5949525 6010363 6088111 6178912 
2350.005 6277767 6378460 6475679 6564442 6641381 6705815 6758951 6803477 
2353.862 6842050 6876620 6907759 6935669 6960752 6983412 7005770 7029274 
2357.719 7054969 7083056 7111853 7139169 7163084 7182825 7198287 7210651 
2361.577 7220690 7228674 7234233 7237029 7236794 7234604 7232852 7232987 
2365.434 7236491 7243397 7252022 7259670 7264455 7264792 7260681 7252898 
2369.292 7242016 7228708 7213278 7195390 7175616 7155135 7135363 7118387 
2373.149 7105723 7098111 7095416 7097202 7102860 7112189 7125292 7141998 
2377.007 7161805 7183599 7205664 7226720 7246059 7263949 7281841 7301283 
2380.864 7323826 7350077 7379936 7412527 7446873 7482402 7518338 7554580 
2384.721 7590624 7625928 7659819 7691723 7721943 7751051 7780364 7810691 
2388.579 7842269 7874557 7905903 7934822 7959962 7980582 7997254 8010518 
2392.436 8021014 8029149 8034718 8037823 8038600 8038498 8038835 8041772 
2396.294 8048489 8059932 8075797 8095511 8118534 8144462 8173262 8205034 
2400.151 8239713 8276725 8315732 8356265 8398286 8442812 8490653 8542994 
2404.009 8600141 8661993 8727742 8796713 8868637 8943313 9021114 9101669 
2407.866 9184101 9266549 9347285 9425124 9500472 9575459 9652561 9734622 
2411.723 9822969 9916827 10013552 10109520 10201200 10285842 10362357 
2415.099 10430943 10492547 10548016 10597992 10642641 10682474 10717317 
2418.474 10747646 10773834 10795878 10813508 10826723 10835725 10841398 
2421.849 10845712 10850740 10858757 10871056 10887941 10908803 10932893 
2425.224 10959500 10988826 11021722 11059720 11104417 11156972 11218375 
2428.600 11288898 11369229 11459032 11557565 11663676 11774886 11888032 
2431.975 12000388 12109709 12215512 12318750 12421774 12527244 12637823 
2435.350 12755424 12880907 13014587 13156299 13305438 13461223 13622056 
2438.725 13786403 13952319 14118502 14284270 14450307 14617881 14788570 
2442.101 14963099 15141370 15322047 15503315 15683971 15863329 16041970 
2445.476 16220959 16401328 16583426 16767357 16951916 17136450 17320478 
2448.851 17504030 17687110 17869782 18051116 18229760 18404294 18573782 
2452.226 18737766 18897104 19052694 19205186 19354754 19500526 19641008 
2455.602 19774982 19901574 20020396 20131336 20234392 20328442 20412270 
2458.977 20484198 20542486 20586052 20614784 20628648 20628230 20614262 
2462.352 20587440 20548914 20500592 20444776 20384486 20322158 20260322 
2465.727 20200616 20144594 20093890 20051242 20020186 20004748 20008842 
2469.103 20034760 20083134 20152022 20238974 20340700 20454570 20579486 
2472.478 20714688 20859838 21014254 21176412 21343924 21514492 21685754 
2475.853 21856040 22024160 22188790 22348494 22501170 22644618 22776378 
2479.228 22894522 22997676 23084920 23155614 23209718 23247086 23268058 
2482.604 23273756 23265962 23247050 23219996 23187104 23150302 23110672 
2485.979 23068252 23022866 22973814 22920334 22861378 22796212 22723586 
2489.354 22642384 22552506 22453820 22347062 22233254 22113544 21988050 
2492.729 21857156 21719890 21575636 21424188 21266110 21101482 20931354 
2496.104 20755834 20573926 20384626 20186454 19978344 19760312 19533624 
2499.480 19300366 19063182 18824814 18587718 18353794 18125176 17902756 
2502.855 17687422 17479644 17278826 17084166 16895040 16710538 16530761 
2506.230 16357081 16190004 16031208 15881063 15739352 15605277 15478283 
2509.605 15357677 15243693 15136910 15037630 14945335 14859471 14778526 
2512.981 14701400 14627989 14559080 14496622 14442462 14397934 14363171 
2516.356 14337999 14321048 14311561 14309096 14313685 14325225 14343273 
2519.731 14366150 14392008 14419273 14446813 14475006 14505118 14538317 
2523.106 14575390 14615824 14657976 14699996 14740647 14779486 14817230 
2526.482 14854842 14893039 14931240 14967489 14999077 15023223 15037664 
2529.857 15041163 15033617 15015266 14986970 14949244 14903361 14851139 
2533.232 14795118 14738385 14683989 14634124 14589884 14551371 14517692 
2536.607 14488194 14462536 14440544 14422116 14406668 14392830 14378651 
2539.983 14362452 14343307 14321767 14299508 14278997 14262116 14249618 
2543.358 14241058 14234690 14228768 14221646 14212436 14201070 14187684 
2546.733 14172450 14155026 14135582 14113915 14090983 14068086 14046490 
2550.108 14027462 14011550 13998341 13987322 13978118 13970282 13964397 
2553.484 13961180 13960872 13963267 13967647 13972951 13977981 13982224 
2556.859 13985303 13986638 13985885 13981882 13973327 13959230 13939145 
2560.234 13913827 13884747 13853685 13822010 13790542 13758905 13726074 
2563.609 13691740 13655632 13618603 13582295 13548179 13517756 13491676 
2566.985 13470587 13453909 13441708 13433403 13428277 13425475 13424005 
2570.360 13422912 13422400 13423117 13426398 13434156 13447450 13466692 
2573.735 13490787 13517961 13546093 13574159 13601542 13628689 13656315 
2577.110 13684525 13712806 13739856 13764411 13785651 13804086 13821531 
2580.486 13840002 13861622 13887757 13918754 13954097 13992695 14033930 
2583.861 14076916 14121480 14167213 14213635 14260267 14306836 14353239 
2587.236 14400640 14449862 14501967 14557470 14616202 14676894 14738590 
2590.611 14800055 14860739 14920575 14980007 15038659 15096495 15152726 
2593.987 15206014 15255910 15302381 15345972 15387543 15428052 15468154 
2597.362 15508294 15548678 15589307 15630797 15673941 15719116 15766425 
2600.737 15815733 15866181 15917081 15968230 16019931 16073119 16128996 
2604.112 16188182 16251056 16317310 16386120 16456766 16529007 16602566 
2607.488 16677586 16754581 16833586 16914606 16998018 17084064 17173196 
2610.863 17265760 17361722 17460050 17559438 17657844 17753274 17844786 
2614.238 17932174 18016162 18098092 18179174 18259892 18340174 18419022 
2617.613 18495150 18567766 18636206 18700370 18760632 18817790 18872290 
2620.989 18924964 18976398 19027316 19078382 19130214 19183126 19237292 
2624.364 19292606 19348656 19405060 19461470 19517196 19571888 19624888 
2627.739 19675920 19724562 19770960 19815626 19859326 19903204 19947780 
2631.114 19993402 20039930 20086812 20133418 20179512 20224776 20269454 
2634.490 20313930 20358338 20402580 20446652 20490206 20533246 20575768 
2637.865 20618222 20660858 20704086 20748224 20792958 20838354 20884590 
2641.240 20931666 20979860 21029520 21080474 21132754 21186086 21240084 
2644.615 21294576 21349700 21405598 21462618 21521072 21581206 21643194 
2647.990 21707106 21772910 21840988 21911202 21983588 22057626 22132896 
2651.366 22208458 22283580 22357702 22430478 22502044 22573168 22644340 
2654.741 22716430 22789962 22865324 22942272 23020768 23100226 23180150 
2658.116 23260194 23340532 23421026 23502304 23584508 23667984 23752284 
2661.491 23836738 23920230 24002056 24081342 24157910 24232038 24304602 
2664.867 24376336 24448330 24520826 24594244 24668236 24742278 24815804 
2668.242 24888008 24958684 25027330 25094448 25160344 25226428 25293398 
2671.617 25362802 25435100 25510640 25589218 25670130 25752498 25835654 
2674.992 25918898 26001734 26083884 26164852 26244006 26321448 26397110 
2678.368 26471832 26546814 26623678 26703796 26788298 26877504 26971172 
2681.743 27068704 27169574 27273500 27380912 27492230 27607922 27728200 
2685.118 27853140 27982144 28115252 28252644 28394324 28541288 28693998 
2688.493 28852500 29016516 29184988 29356892 29531206 29707540 29885932 
2691.869 30066778 30250934 30438792 30630820 30827058 31027514 31231944 
2695.244 31440388 31652388 31867880 32086618 32308392 32533280 32761286 
2698.619 32992632 33227496 33465960 33707632 33951984 34198412 34446088 
2701.994 34694300 34942836 35190972 35438068 35683608 35926488 36165500 
2705.370 36400068 36629540 36853536 37072168 37285384 37492636 37693736 
2708.745 37887772 38073968 38251856 38421376 38582924 38737112 38884936 
2712.120 39027080 39163872 39295264 39420784 39539876 39651636 39755472 
2715.495 39850760 39937312 40014804 40083368 40142856 40193448 40234996 
2718.871 40267748 40291924 40308648 40319156 40325228 40329408 40334572 
2722.246 40343700 40359624 40384860 40421152 40469520 40530404 40603524 
2725.621 40687904 40782560 40886700 40999536 41120888 41250756 41389384 
2728.996 41536764 41692876 41856816 42027568 42203900 42384068 42566908 
2732.372 42750772 42934532 43117312 43297748 43474856 43647568 43815216 
2735.747 43976768 44131704 44279800 44420860 44555032 44683252 44806188 
2739.122 44925260 45041944 45157408 45272572 45388020 45503720 45619784 
2742.497 45736688 45855504 45978000 46106384 46242660 46388156 46543624 
2745.873 46708228 46880564 47058436 47239708 47422460 47604288 47783348 
2749.248 47957260 48123436 48279416 48422816 48552116 48666404 48765632 
2752.623 48850164 48920876 48978548 49024060 49057888 49079924 49090052 
2755.998 49087344 49070132 49036744 48985188 48913980 48822244 48709956 
2759.374 48577904 48427304 48259344 48074984 47874788 47658976 47428448 
2762.749 47183892 46927296 46661148 46388268 46112392 45836648 45564472 
2766.124 45299156 45043668 44801084 44573644 44363460 44171392 43997996 
2769.499 43843072 43706044 43586936 43485476 43402424 43337768 43291636 
2772.875 43262904 43249836 43249836 43259204 43275016 43294160 43314008 
2776.250 43333116 43350068 43363724 43373168 43376940 43373460 43360720 
2779.625 43336776 43299800 43248660 43183476 43104836 43015488 42918408 
2783.000 42817396 42716336 42618368 42525688 42439528 42360104 42286692 
2786.375 42217996 42152196 42087248 42020668 41950156 41873596 41788844 
2789.751 41694988 41591600 41479232 41359424 41234108 41105548 40976304 
2793.126 40848440 40724368 40606076 40495376 40394240 40304392 40227108 
2796.501 40163320 40113856 40079156 40059168 40054192 40064108 40089108 
2799.876 40129156 40183852 40252808 40335404 40430568 40537064 40653484 
2803.252 40778448 40910368 41047968 41189916 41335264 41482988 41632116 
2806.627 41781620 41930484 42077100 42219896 42356856 42486296 42606236 
2810.002 42714944 42810848 42892804 42959556 43010732 43045928 43065136 
2813.377 43069048 43058036 43033124 42995696 42947596 42891268 42830008 
2816.753 42767736 42708948 42658356 42620564 42599436 42598484 42619976 
2820.128 42665592 42736220 42831840 42952532 43097332 43265136 43454348 
2823.503 43662920 43888268 44127380 44377260 44634412 44895244 45156340 
2826.878 45414468 45666640 45910448 46144372 46367660 46580732 46784756 
2830.254 46981604 47173920 47364408 47556004 47751356 47953192 48164008 
2833.629 48386592 48624044 48879864 49158024 49462876 49798336 50168192 
2837.004 50576564 51026900 51524336 52075348 52688480 53375760 54151308 
2840.379 55031848 56036788 57185776 58500428 60003384 61717340 63666872 
2843.755 65875508 68363728 71144600 74217656 77563040 81129944 84833968 
2847.130 88558832 92146256 95419392 98195944 100297560 101588640 101986632 
2850.505 101475064 100104424 97984392 95270280 92127448 88728488 85232816 
2853.880 81766688 78434288 75310872 72441616 69851920 67547840 65520620 
2857.256 63750596 62211428 60874460 59709296 58688356 57787776 56985760 
2860.631 56265144 55611356 55011764 54457052 53939440 53453768 52996904 
2864.006 52568192 52168524 51800692 51468788 51178040 50934120 50742512 
2867.381 50607796 50533272 50519500 50564688 50664500 50811376 50995376 
2870.757 51204952 51425520 51642360 51840784 52007104 52131460 52208576 
2874.132 52238396 52225916 52180592 52114460 52039116 51965948 51903700 
2877.507 51858520 51834588 51834660 51859640 51910796 51987984 52091300 
2880.882 52220348 52374592 52553232 52755108 52978972 53221980 53480716 
2884.258 53750928 54027008 54303868 54576852 54842936 55100752 55351616 
2887.633 55598172 55845252 56098088 56362656 56645200 56951268 57286632 
2891.008 57657064 58068824 58530148 59051140 59643872 60323448 61106060 
2894.383 62007444 63041352 64215892 65530828 66973068 68516088 70117336 
2897.759 71716832 73246824 74632520 75801184 76697288 77285168 77558248 
2901.134 77538008 77272976 76830856 76283808 75708248 75172576 74730544 
2904.509 74427264 74295176 74356784 74629216 75124984 75854536 76828096 
2907.884 78056224 79551488 81328128 83400248 85780000 88472832 91473912 
2911.260 94760928 98288800 101992496 105777592 109525648 113109144 116385952 
2914.635 119221240 121506224 123159864 124146896 124476920 124202856 
2917.528 123406896 122185432 120643304 118871320 116944056 114918504 
2920.421 112829224 110694792 108522424 106312280 104063768 101779752 
2923.314 99469192 97148560 94840840 92571152 90366376 88249960 86239088 
2926.689 84345536 82574320 80924336 79390224 77962800 76630720 75380120 
2930.064 74197088 73068208 71980888 70925448 69894728 68883296 67887848 
2933.440 66905728 65934280 64971732 64016408 63068100 62127696 61197604 
2936.815 60280808 59380720 58500348 57642420 56809668 56005312 55233372 
2940.190 54498748 53807180 53164232 52574776 52042104 51567880 51151196 
2943.565 50788580 50474276 50199848 49954284 49725992 49503388 49277076 
2946.941 49042384 48800072 48557304 48325740 48120732 47958040 47850336 
2950.316 47806612 47829844 47917080 48059772 48245200 48458416 48682080 
2953.691 48899592 49095692 49256960 49373548 49438256 49446984 49398496 
2957.066 49293592 49135204 48928144 48679080 48396004 48087792 47763636 
2960.442 47431812 47099096 46771028 46451168 46142420 45846592 45565432 
2963.817 45300260 45051976 44820664 44606028 44407096 44222600 44052196 
2967.192 43895712 43753828 43627932 43519392 43429412 43359404 43310488 
2970.567 43283548 43280252 43301632 43348636 43421100 43517528 43634452 
2973.943 43766252 43904876 44040788 44162076 44256576 44312160 44318400 
2977.318 44268024 44158776 43993120 43778932 43527564 43253680 42971588 
2980.693 42694984 42435544 42201640 41998588 41828464 41690104 41579056 
2984.068 41487872 41407204 41326260 41234256 41123068 40986936 40823724 
2987.444 40635324 40425912 40201664 39967940 39729548 39489072 39246956 
2990.819 39001668 38750984 38492548 38225368 37950068 37669344 37388112 
2994.194 37111180 36843620 36588656 36347252 36117680 35896468 35679400 
2997.569 35462048 35241280 35015704 34785828 34553204 34320384 34090232 
3000.945 33865180 33646940 33436612 33234328 33039608 32851264 32668148 
3004.320 32489288 32314748 32145236 31982280 31827838 31683500 31550046 
3007.695 31426958 31313236 31206486 31104604 31005806 30908986 30813682 
3011.070 30720428 30629610 30542010 30458232 30378556 30303016 30231290 
3014.446 30162628 30096004 30030526 29965626 29901196 29838160 29777936 
3017.821 29722122 29671778 29627504 29588698 29554258 29522728 29493186 
3021.196 29465278 29439358 29416028 29396066 29379688 29367032 29357954 
3024.571 29353206 29353842 29361750 29379084 29407626 29448260 29500068 
3027.947 29560784 29626476 29692852 29755122 29808774 29850726 29878372 
3031.322 29890654 29888028 29871806 29844016 29807284 29764026 29716374 
3034.697 29665640 29612996 29559046 29504926 29451344 29399472 29350262 
3038.072 29304782 29263380 29226414 29194130 29166454 29143774 29126200 
3041.448 29113480 29105438 29101150 29099734 29100372 29102532 29105828 
3044.823 29110292 29116174 29123578 29132508 29142890 29154938 29168686 
3048.198 29184846 29203734 29225778 29250870 29278552 29308044 29338670 
3051.573 29370222 29402556 29436096 29470776 29506380 29542378 29578128 
3054.948 29612996 29647122 29681392 29716552 29754056 29794544 29838124 
3058.324 29884726 29933782 29985364 30039686 30097602 30159576 30225854 
3061.699 30295982 30368890 30443626 30519260 30595834 30673914 30754818 
3065.074 30839364 30927630 31019116 31112114 31204564 31294436 31379834 
3068.449 31459800 31533762 31601570 31663328 31719714 31771116 31818640 
3071.825 31863458 31906604 31949576 31993336 32038994 32087476 32139420 
3075.200 32195334 32254964 32317672 32382284 32446940 32509856 32569636 
3078.575 32625142 32676686 32724916 32771148 32816600 32862342 32909092 
3081.950 32957062 33006002 33055946 33106364 33157072 33207714 33258400 
3085.326 33309736 33362578 33418614 33479486 33546276 33619552 33698680 
3088.701 33782192 33867652 33953380 34038052 34121304 34203716 34286284 
3092.076 34369476 34453760 34538528 34623032 34707008 34790384 34873928 
3095.451 34958888 35046340 35136724 35230320 35326164 35423288 35520724 
3098.827 35617716 35714296 35810860 35908128 36006828 36107380 36210084 
3102.202 36314684 36420716 36527456 36634008 36739864 36844520 36947796 
3105.577 37050120 37151816 37253180 37354744 37456156 37557080 37657056 
3108.952 37756008 37853676 37950972 38049012 38148920 38252180 38359624 
3112.328 38471696 38587996 38707660 38829128 38950784 39070656 39187368 
3115.703 39300416 39410008 39517196 39623612 39730964 39840084 39950936 
3119.078 40062584 40172988 40280328 40383584 40482288 40577552 40670948 
3122.453 40764616 40860312 40959084 41061080 41165652 41272256 41379504 
3125.829 41486960 41594008 41700932 41808068 41916400 42026396 42138724 
3129.204 42253276 42369384 42486076 42601920 42715752 42827084 42936108 
3132.579 43043984 43152076 43261620 43373608 43488448 43605804 43725796 
3135.954 43847944 43971928 44097816 44225060 44352492 44478820 44602356 
3139.330 44721892 44837192 44948672 45058004 45167112 45277940 45391440 
3142.705 45508396 45628360 45750680 45875020 46000468 46127092 46254640 
3146.080 46383144 46512500 46642888 46774496 46907436 47042152 47178948 
3149.455 47317368 47456832 47596524 47734896 47871240 48004700 48135020 
3152.831 48262196 48386892 48509212 48629900 48749544 48868480 48987116 
3156.206 49105712 49224336 49343180 49462244 49581488 49701472 49822452 
3159.581 49944436 50067344 50190768 50313672 50435164 50554972 50673252 
3162.956 50791228 50910052 51031040 51154512 51280524 51407616 51534224 
3166.332 51658964 51781056 51900412 52017456 52133104 52247852 52362292 
3169.707 52476352 52589884 52703144 52815760 52927956 53039320 53149476 
3173.082 53257976 53364440 53468984 53571568 53672788 53772676 53871240 
3176.457 53967880 54062284 54154348 54244552 54334620 54425844 54519444 
3179.833 54615852 54713704 54811168 54905984 54996308 55081796 55163616 
3183.208 55243608 55324216 55407396 55494132 55584204 55676776 55770612 
3186.583 55864280 55957028 56048212 56137640 56225240 56311084 56394988 
3189.958 56477356 56558044 56637420 56715496 56792448 56868548 56944508 
3193.333 57021088 57098740 57177880 57257824 57337448 57414776 57488376 
3196.709 57557332 57622556 57685516 57748792 57814196 57883164 57954836 
3200.084 58027996 58100452 58170832 58238532 58304164 58368700 58433292 
3203.459 58498416 58564160 58629876 58695032 58759176 58822036 58883464 
3206.834 58942892 58999520 59052392 59101292 59146924 59191312 59236916 
3210.210 59286440 59341024 59400020 59461112 59521148 59576976 59627260 
3213.585 59672460 59715112 59758380 59805680 59858996 59918176 59982348 
3216.960 60048884 60115476 60180320 60242476 60302048 60359996 60417572 
3220.335 60476140 60536924 60600388 60666336 60733972 60802000 60868932 
3223.711 60933968 60996800 61057892 61118496 61179828 61242620 61307488 
3227.086 61373996 61441668 61509768 61577916 61645616 61712720 61778952 
3230.461 61843704 61906708 61968116 62028384 62088664 62150328 62214296 
3233.836 62280564 62348796 62417764 62486404 62554324 62622020 62690192 
3237.212 62760556 62833800 62910200 62989256 63070124 63151592 63233292 
3240.587 63314668 63395412 63475052 63552372 63625976 63694888 63758656 
3243.962 63818140 63875176 63932412 63991912 64055732 64124084 64196648 
3247.337 64272212 64349740 64428100 64507128 64586356 64665756 64744868 
3250.713 64823560 64900852 64976728 65051040 65123448 65194204 65263628 
3254.088 65331636 65398572 65464600 65529792 65594332 65658076 65720252 
3257.463 65780192 65836832 65889776 65938944 65984456 66027276 66068164 
3260.838 66107704 66146640 66184996 66223160 66261096 66298888 66336520 
3264.214 66373228 66408248 66440760 66469832 66495240 66517176 66536172 
3267.589 66553132 66568272 66581980 66594072 66604888 66614656 66624200 
3270.964 66634164 66645296 66657500 66669980 66681720 66691920 66700496 
3274.339 66707992 66715800 66724992 66736200 66748908 66762120 66774680 
3277.715 66786312 66798024 66811584 66829092 66852240 66881464 66915512 
3281.090 66952504 66990232 67027548 67063964 67100240 67137672 67177392 
3284.465 67220016 67265744 67314328 67365984 67420816 67478984 67540912 
3287.840 67605872 67673672 67743720 67816072 67891376 67970992 68056480 
3291.216 68148336 68247080 68351432 68460496 68573512 68690624 68812904 
3294.591 68941928 69078728 69223184 69374336 69530048 69688160 69847680 
3297.966 70008584 70172008 70339616 70512752 70691912 70877312 71068456 
3301.341 71265144 71467664 71676304 71891728 72113944 72342504 72576616 
3304.717 72815016 73057656 73304400 73555488 73811664 74072432 74337128 
3308.092 74604936 74875008 75147168 75422056 75700992 75984880 76274840 
3311.467 76570920 76873336 77181736 77496376 77817432 78144592 78476848 
3314.842 78812328 79148232 79482048 79812024 80138376 80462784 80787960 
3318.218 81116648 81450216 81788688 82130592 82473552 82815792 83155608 
3321.593 83492640 83826560 84157760 84486064 84811488 85134000 85453736 
3324.968 85770960 86085672 86397288 86704360 87004888 87297072 87579808 
3328.343 87852912 88117056 88373200 88621408 88860480 89088504 89302240 
3331.719 89499872 89679880 89841712 89985816 90112040 90219784 90307840 
3335.094 90375112 90420928 90446520 90453864 90445496 90423424 90388256 
3338.469 90338720 90272520 90186616 90078856 89948032 89793952 89616672 
3341.844 89416544 89193424 88947216 88677856 88385712 88071728 87736312 
3345.219 87380328 87003144 86604600 86184208 85742904 85282608 84806688 
3348.595 84318176 83820368 83315056 82802792 82283496 81756888 81223736 
3351.970 80685208 80143080 79599240 79054616 78510032 77965616 77422000 
3355.345 76880496 76343168 75812664 75291248 74780488 74281296 73793720 
3358.720 73317384 72852480 72399296 71958592 71530760 71115800 70712888 
3362.096 70320952 69938872 69566408 69203672 68851264 68509960 68180128 
3365.471 67861664 67553800 67255992 66967928 66689564 66420912 66161880 
3368.846 65911488 65667980 65429084 65192700 64956912 64720712 64483560 
3372.221 64245352 64005852 63764564 63520728 63273156 63020744 62761968 
3375.597 62495240 62218844 61931280 61630344 61315688 60987120 60645688 
3378.972 60293104 59930844 59559836 59180300 58790888 58390040 57976348 
3382.347 57549240 57108752 56656296 56193640 55722808 55245904 54765008 
3385.722 54281644 53797580 53314428 52833048 52354220 51878084 51404448 
3389.098 50932968 50463968 49997704 49535284 49078704 48629376 48189144 
3392.473 47759192 47340128 46931616 46532376 46140100 45752152 45365028 
3395.848 44976192 44583704 44187204 43788020 43388476 42991528 42599656 
3399.223 42213904 41834668 41460824 41090948 40724076 40359404 39997000 
3402.599 39636860 39279232 38923856 38570432 38218456 37868068 37519692 
3405.974 37174232 36832436 36494984 36161824 35832488 35506416 35183392 
3409.349 34863408 34547068 34235084 33928088 33626284 33329520 33037462 
3412.724 32749962 32467506 32190230 31919122 31654526 31396576 31144862 
3416.100 30898846 30658090 30422372 30191470 29965094 29742986 29523828 
3419.475 29306660 29090098 28873534 28657400 28442504 28230368 28022078 
3422.850 27818236 27618726 27422520 27228978 27037496 26848318 26662148 
3426.225 26480318 26303494 26131950 25965608 25803480 25644258 25487134 
3429.601 25331048 25175372 25019892 24864572 24709550 24555288 24402448 
3432.976 24251624 24103056 23956992 23812412 23668860 23525424 23382000 
3436.351 23239010 23098058 22960226 22826978 22698448 22573658 22450748 
3439.726 22327354 22201414 22072234 21940022 21806634 21674260 21545202 
3443.102 21420706 21300386 21183198 21066492 20947280 20823998 20695538 
3446.477 20563052 20429044 20296604 20168994 20047982 19933972 19825370 
3449.852 19719986 19614662 19507146 19396536 19282908 19167404 19051690 
3453.227 18936940 18823880 18712546 18602866 18494182 18386492 18279832 
3456.603 18173854 18068592 17963426 17857630 17750510 17641868 17531456 
3459.978 17419696 17306720 17192878 17078378 16963562 16849258 16736777 
3463.353 16627904 16524015 16425829 16333101 16244210 16157093 16069749 
3466.728 15980845 15890170 15798312 15706198 15614104 15521996 15428911 
3470.104 15333649 15236349 15137047 15037355 14939093 14843904 14752130 
3473.479 14663460 14576795 14490421 14404408 14319164 14235889 14156429 
3476.854 14081537 14011482 13945099 13880231 13814724 13746661 13675191 
3480.229 13600038 13522336 13443759 13366323 13292250 13223518 13161388 
3483.604 13106404 13057539 13012914 12969590 12924632 12875344 12820465 
3486.980 12760303 12696330 12631307 12568614 12510909 12460576 12419080 
3490.355 12386725 12363168 12347316 12337260 12330885 12326011 12321341 
3493.730 12315273 12308524 12301536 12296082 12293901 12296253 12304468 
3497.105 12319023 12339816 12366645 12399033 12435924 12475955 12517934 
3500.481 12560667 12603609 12647443 12693395 12743857 12801456 12868040 
3503.856 12944601 13030873 13126314 13229188 13338612 13453635 13573543 
3507.231 13697690 13825294 13955637 14088142 14222878 14360533 14502686 
3510.606 14650607 14804648 14964471 15128572 15294966 15461631 15627809 
3513.982 15793158 15958330 16123494 16288584 16451776 16611174 16763913 
3517.357 16907234 17040366 17161994 17272412 17371240 17458394 17532804 
3520.732 17593284 17638660 17667646 17679620 17673720 17649458 17606154 
3524.107 17542912 17459154 17354306 17228524 17081790 16915328 16730923 
3527.483 16530864 16318411 16097188 15870305 15640380 15408964 15176401 
3530.858 14942454 14706713 14468565 14227945 13984790 13738762 13489523 
3534.233 13236669 12980207 12720997 12461701 12206242 11958596 11722528 
3537.608 11499484 11288966 11088373 10894431 10703936 10515529 10329171 
3540.984 10146318 9969273 9799721 9638229 9484148 9335233 9188433 9041615 
3544.841 8892411 8740284 8585980 8431798 8280912 8136258 8000257 7873814 
3548.698 7756077 7644003 7534183 7422908 7308224 7189494 7069080 6950584 
3552.556 6837607 6733072 6637915 6550650 6468683 6388783 6308662 6226841 
3556.413 6142986 6057702 5971461 5885136 5799399 5715022 5633011 5554372 
3560.271 5480176 5411025 5346749 5286708 5229560 5173929 5118170 5060910 
3564.128 4999836 4932203 4854963 4765711 4663047 4548955 4428601 4309753 
3567.986 4200538 4107206 4032454 3974969 3930364 3892918 3856980 3818203 
3571.843 3773614 3722413 3665036 3602789 3537811 3472142 3407751 3346275 
3575.700 3288614 3234732 3183928 3134565 3084974 3034155 2981439 2927595 
3579.558 2873492 2820629 2770274 2723091 2679615 2640343 2605442 2575576 
3583.415 2550278 2528848 2508786 2485891 2455134 2411918 2352748 2277365 
3587.273 2189573 2096272 2006220 1927403 1864539 1819318 1789906 1772073 
3591.130 1760429 1750016 1736443 1716217 1688209 1653051 1612675 1570374 
3594.988 1530005 1494594 1466700 1447384 1437112 1435350 1441068 1453302 
3598.845 1470856 1492699 1517769 1545401 1574929 1606323 1638783 1672043 
3602.702 1704674 1734780 1760196 1777796 1784549 1777762 1754873 1713988 
3606.560 1654215 1575229 1479101 1370330 1254907 1140777 1035080 942326 
3610.417 863934 798070 740912 688142 637038 586702 538662 495669 460044 
3614.757 432282 410890 392119 371492 344962 309681 264854 212010 154365 
3619.096 96099 41585 -5135 -42310 -68648 -84649 -91672 -91175 -84649 -72955 
3623.918 -55959 -33696 -5864 26309 59446 87714 102793 95502 58816 -8382 
3628.740 -98098 -195181 -281647 -345119 -382165 -397227 -398684 -395837 
3632.597 -395837 -402094 -415236 -432746 -450654 -466276 -477894 -485407 
3636.455 -490206 -493813 -497090 -500764 -504801 -509567 -515756 -524096 
3640.312 -534686 -547393 -560597 -571914 -578069 -577241 -567811 -550702 
3644.170 -527637 -501790 -476305 -454526 -439168 -432912 -437976 -456380 
3648.027 -489842 -538657 -600801 -671174 -742395 -804808 -849983 -872734 
3651.885 -872403 -852629 -819492 -781789 -747357 -723210 -714643 -723309 
3655.742 -747258 -780731 -816648 -847867 -870254 -881861 -883977 -879083 
3659.599 -869361 -857225 -843799 -829678 -814994 -799351 -782450 -764160 
3663.457 -744347 -722714 -698301 -670248 -636733 -596169 -548320 -493482 
3667.314 -433177 -368559 -298931 -218993 -118173 19814 212872 473080 805705 
3671.654 1207624 1670813 2184412 2734595 3301601 3848689 4319758 4645698 
3675.511 4760217 4630997 4273612 3740827 3098389 2405887 1714587 1063180 
3679.369 483860 2219 -370115 -635079 -808611 -913438 -974140 -1010174 
3683.226 -1032818 -1046403 -1051725 -1048320 -1038139 -1025413 -1015827 
3686.601 -1015397 -1028256 -1055592 -1095156 -1143175 -1194098 -1243659 
3689.977 -1288723 -1327010 -1356903 -1377382 -1388380 -1390858 -1386828 
3693.352 -1379099 -1370248 -1361726 -1353964 -1345805 -1336622 -1325622 
3696.727 -1313069 -1300285 -1288591 -1279836 -1275079 -1275442 -1281058 
3700.102 -1292885 -1310757 -1334145 -1361230 -1389041 -1413514 -1431315 
3703.478 -1440034 -1438680 -1428376 -1410674 -1387819 -1361792 -1334343 
3706.853 -1306991 -1281422 -1260113 -1245146 -1238935 -1243329 -1258725 
3710.228 -1284461 -1318685 -1358126 -1399049 -1437689 -1470217 -1493497 
3713.603 -1505912 -1507200 -1499143 -1484977 -1468103 -1452814 -1441619 
3716.979 -1435575 -1433726 -1433462 -1431877 -1426857 -1418468 -1408131 
3720.354 -1398388 -1391881 -1389933 -1392080 -1397265 -1403738 -1410707 
3723.729 -1418204 -1427220 -1438779 -1453078 -1468599 -1482501 -1491383 
3727.104 -1491846 -1482039 -1461994 -1433627 -1399709 -1364236 -1330676 
3730.479 -1302399 -1282149 -1271114 -1268471 -1272304 -1280034 -1290143 
3733.855 -1302631 -1319742 -1343228 -1374277 -1411169 -1449148 -1482039 
3737.230 -1504591 -1514134 -1511129 -1497558 -1475996 -1448488 -1415991 
3740.605 -1379231 -1339859 -1301673 -1271313 -1257899 -1270387 -1313169 
3743.980 -1381048 -1457999 -1520738 -1551477 -1544873 -1507827 -1453507 
3747.356 -1396538 -1349306 -1320502 -1312970 -1325391 -1351949 -1386002 
3750.731 -1421870 -1455852 -1486067 -1509775 -1524172 -1526549 -1515719 
3754.106 -1493497 -1464009 -1433164 -1406314 -1387819 -1379661 -1381511 
3757.481 -1391782 -1407735 -1427748 -1450502 -1473915 -1495742 -1512153 
3760.857 -1519450 -1515257 -1500134 -1477217 -1452153 -1430688 -1417642 
3764.232 -1414571 -1419657 -1428409 -1435080 -1435113 -1427550 -1414472 
3767.607 -1400303 -1390329 -1388678 -1397199 -1415199 -1439241 -1464603 
3770.982 -1486893 -1502775 -1510865 -1511658 -1506705 -1497921 -1487388 
3774.358 -1476722 -1466122 -1455819 -1445450 -1434519 -1423984 -1415529 
3777.733 -1410971 -1412424 -1420384 -1433891 -1449875 -1464999 -1476854 
3781.108 -1484416 -1488742 -1491978 -1495742 -1501323 -1508025 -1514068 
3784.483 -1517667 -1517733 -1515092 -1511492 -1509379 -1510403 -1514959 
3787.859 -1521662 -1528002 -1531865 -1531567 -1526747 -1518558 -1508191 
3791.234 -1496931 -1485737 -1475170 -1464999 -1455852 -1448554 -1443633 
3794.609 -1442147 -1443732 -1447398 -1450865 -1451427 -1447035 -1436731 
3797.984 -1421672 -1404630 -1389702 -1382171 -1386498 -1405456 -1438019 
3801.360 -1478406 -1516610 -1542562 -1549760 -1537445 -1510403 -1476821 
3804.735 -1446572 -1428574 -1428409 -1446737 -1478836 -1514695 -1543520 
3808.110 -1558344 -1557915 -1545336 -1526351 -1505978 -1487223 -1470712 
3811.485 -1454894 -1437689 -1418468 -1398322 -1380222 -1368497 -1366945 
3814.861 -1376589 -1395845 -1418369 -1436566 -1444360 -1439670 -1424479 
3818.236 -1404828 -1387687 -1380321 -1388017 -1412589 -1451130 -1495742 
3821.611 -1535629 -1561777 -1570460 -1563329 -1545600 -1524964 -1507761 
3824.986 -1497855 -1496105 -1500200 -1505285 -1506573 -1500497 -1486628 
3828.362 -1466948 -1445350 -1425338 -1409485 -1398553 -1391155 -1385012 
3831.737 -1377316 -1366218 -1351222 -1332955 -1312706 -1292621 -1274319 
3835.112 -1259915 -1251556 -1251225 -1260575 -1280034 -1308841 -1343625 
3838.487 -1380024 -1413712 -1440661 -1459286 -1469292 -1472594 -1471406 
3841.863 -1468764 -1467476 -1469424 -1475170 -1483987 -1493992 -1502247 
3845.238 -1506540 -1505186 -1497657 -1484515 -1466650 -1444360 -1417775 
3848.613 -1385540 -1346267 -1299756 -1247624 -1195254 -1150776 -1125197 
3851.988 -1129593 -1171529 -1249012 -1348745 -1449743 -1531964 -1584128 
3855.364 -1606048 -1604101 -1586769 -1561315 -1532525 -1503040 -1474080 
3858.739 -1446473 -1420879 -1398124 -1379199 -1364434 -1353798 -1346994 
3862.114 -1343922 -1345111 -1351354 -1363146 -1379562 -1397397 -1411335 
3865.489 -1415991 -1407305 -1385276 -1353798 -1320700 -1294339 -1283073 
3868.865 -1291960 -1319742 -1359050 -1398058 -1426923 -1439472 -1437028 
3872.240 -1424380 -1409221 -1397760 -1393236 -1395283 -1400568 -1404168 
3875.615 -1401889 -1392410 -1376556 -1358092 -1341412 -1330709 -1329586 
3878.990 -1338868 -1357135 -1380156 -1401988 -1416454 -1419228 -1409221 
3882.365 -1388414 -1362056 -1336292 -1317727 -1311253 -1318223 -1335994 
3885.741 -1357300 -1373617 -1377844 -1366812 -1342700 -1311153 -1279473 
3889.116 -1254529 -1242041 -1244518 -1261104 -1287533 -1318024 -1346300 
3892.491 -1367737 -1380255 -1383327 -1377580 -1364005 -1343790 -1318223 
3895.866 -1288954 -1258196 -1228825 -1203383 -1184052 -1172190 -1167035 
3899.242 -1166969 -1169810 -1173313 -1176585 -1180021 -1185672 -1196080 
3902.617 -1213758 -1239662 -1272865 -1310129 -1347225 -1379099 -1402351 
3905.992 -1415628 -1418931 -1413911 -1403375 -1389570 -1374277 -1359050 
3909.367 -1344252 -1330214 -1317001 -1304613 -1292885 -1281488 -1269595 
3912.743 -1256611 -1242107 -1226413 -1211015 -1198162 -1190298 -1189373 
3916.118 -1195849 -1208471 -1224331 -1239827 -1252117 -1259221 -1261302 
3919.493 -1259089 -1253868 -1246963 -1238935 -1230212 -1221490 -1213758 
3922.868 -1208108 -1206423 -1208471 -1213692 -1219672 -1223406 -1222415 
3926.244 -1215773 -1204308 -1190562 -1177708 -1168224 -1163499 -1163102 
3929.619 -1165382 -1168455 -1171165 -1173082 -1174965 -1177972 -1182665 
3932.994 -1189075 -1196047 -1201995 -1205497 -1205861 -1202689 -1196609 
3936.369 -1188084 -1177873 -1166506 -1154444 -1142514 -1131642 -1122884 
3939.745 -1117662 -1116539 -1120306 -1128866 -1141523 -1156857 -1173214 
3943.120 -1188414 -1200376 -1207612 -1209165 -1205431 -1197732 -1188051 
3946.495 -1178435 -1170967 -1166308 -1164127 -1163036 -1161549 -1158244 
3949.870 -1152660 -1145389 -1137392 -1129857 -1123644 -1119216 -1116274 
3953.246 -1115018 -1115250 -1116935 -1120141 -1124173 -1128139 -1130683 
3956.621 -1130320 -1126685 -1120042 -1111482 -1102691 -1095453 -1090561 
3959.996 -1088446 -1088380 -1089272 -1089933 -1089405 -1086893 -1082299 
3963.371 -1074796 -1064946 -1053113 -1040619 -1028686 -1018802 -1012257 
3966.747 -1008885 -1007926 -1007695 -1006207 -1001976 -994472 -984455 
3970.122 -973115 -962106 -952552 -945146 -939625 -935591 -932648 -930433 
3973.979 -928515 -926664 -924217 -920679 -915356 -908776 -901601 -894790 
3977.837 -889731 -887019 -886259 -886688 -886920 -885895 -883216 -879182 
3981.694 -874950 -871378 -869163 -868634 -869295 -870816 -872966 -876140 
3985.552 -880406 -886093 -892971 -900212 -907123 -912446 -915852 -917142 
3989.409 -916546 -914728 -911818 -908313 -904544 -901237 -899386 -900212 
3993.266 -904379 -912050 -922432 -933772 -944220 -951626 -955230 -954800 
3997.124 -951097 -945047 -937707 -929706 -921704 -914364 -908181 -903982 
##END=
