
##TITLE=Z345_2_a
##JCAMP-DX=5.01  $$ Nicolet v. 1
##DATATYPE=INFRARED SPECTRUM
##ORIGIN=UniL
##OWNER=Nicolet
##LONGDATE=2011/09/14
##TIME=09:46:40
##SPECTROMETER/DATA SYSTEM=Nicolet iS5
##DATA PROCESSING=
Ratio against background
%Transmittance->Absorbance
Truncated
ElementMultiply or ElementDivide
##COMMENTS=
Number of sample scans: 32
Collection length: 51.22 sec
Sample gain: 2.0
Background collected on: Mer Sep 14 09:43:49 2011 (GMT+02:00);
Number of background scans: 32
Background gain: 2.0
Sample spacing:  1.000
Number of scan points: 12415
Resolution points: 8192
Number of FFT points: 65536
Apodization: N-B fort;
Phase correction: Mertz;
Laser frequency: 15798.0 cm-1
Number of rejected sample scans: 0
Number of rejected background scans: 0
Bench serial number: ASB1000141;
##RESOLUTION=4.000
##XUNITS=1/CM
##YUNITS=ABSORBANCE
##FIRSTX=649.893372
##LASTX=4000.122314
##FIRSTY=0.140731
##MAXX=4000.122314
##MINX=649.893372
##MAXY=0.535108
##MINY=-0.000233
##XFACTOR=1.000000
##YFACTOR=1.000000E-009
##NPOINTS=6950
##DELTAX=0.482117
##ZPD=6100
##XYDATA=(X++(Y..Y))
649.893 140731360 141121520 141640320 142304064 143089296 143943344 
652.786 144809776 145663552 146525376 147456096 148523872 149775488 
655.679 151216944 152815424 154523264 156307648 158166256 160123056 
658.571 162206000 164421904 166748208 169145088 171584592 174074624 
661.464 176665712 179426752 182412608 185626864 189014128 192474864 
664.357 195910880 199256432 202466144 205501008 208268112 210565152 
667.250 212100880 212589728 211923664 210253792 207890832 205118592 
670.142 202083568 198808080 195254944 191398272 187275648 182997936 
673.035 178708144 174551344 170614752 166918336 163437264 160137040 
675.928 157004240 154055872 151323824 148831216 146575024 144524256 
678.820 142634000 140864848 139200192 137644688 136213152 134912240 
681.713 133730696 132639184 131605448 130606976 129643184 128732752 
684.606 127903504 127174976 126547512 126003384 125514984 125059144 
687.498 124623680 124207672 123812624 123429568 123033560 122586016 
690.391 122043576 121377504 120581368 119671568 118677664 117629632 
693.284 116547864 115439592 114307288 113158368 112011576 110897064 
696.177 109847608 108884976 108015856 107230032 106509008 105836144 
699.069 105204384 104617472 104084360 103610312 103191376 102814616 
701.962 102464056 102127536 101803040 101496752 101218400 100973096 
704.855 100756672 100556392 100357216 100149992 99935184 99722992 99527272 
708.229 99360592 99230904 99143264 99107168 99139184 99261680 99494144 
711.604 99838432 100266464 100713424 101092136 101308216 101282784 100979576 
714.979 100407944 99620872 98691008 97697704 96708520 95768640 94907464 
718.354 94141152 93476480 92914832 92451800 92079776 91790000 91578264 
721.729 91447696 91408024 91466752 91618072 91829704 92040856 92167064 
725.104 92111800 91798512 91185000 90277656 89126704 87815840 86442320 
728.478 85090992 83832104 82711032 81747888 80945104 80290304 79762336 
731.853 79334656 78980208 78676280 78405480 78157760 77929856 77721568 
735.228 77532544 77361336 77205008 77061672 76932824 76823744 76741416 
738.603 76691288 76673216 76680880 76703304 76728288 76748688 76763040 
741.978 76775736 76792072 76815280 76843192 76869456 76887056 76892712 
745.352 76889312 76885480 76891288 76914000 76954704 77008456 77066856 
748.727 77121936 77169072 77206912 77236400 77257736 77269928 77271824 
752.102 77264224 77252744 77247320 77258648 77295544 77360392 77449128 
755.477 77553376 77665888 77784936 77914912 78064552 78242216 78452704 
758.852 78695032 78965744 79262080 79586704 79947304 80355088 80819560 
762.227 81345392 81932512 82578736 83285320 84063696 84935928 85940456 
765.601 87130928 88573744 90356144 92576232 95324592 98664064 102582800 
768.976 106960912 111524096 115869312 119508760 121926848 122741728 
771.869 121784984 119164872 115230272 110498944 105541448 100822192 96678176 
775.244 93275872 90628056 88649240 87204112 86161256 85404768 84849752 
778.619 84439416 84130008 83890344 83700344 83550144 83440440 83378888 
781.993 83374472 83431400 83548504 83720144 83941512 84211128 84531272 
785.368 84905184 85332736 85807536 86318864 86855688 87412504 87993360 
788.743 88610760 89282176 90022224 90840920 91742808 92731232 93815488 
792.118 95014496 96355872 97873208 99593864 101530824 103674968 105992432 
795.493 108424896 110891152 113302992 115568416 117605872 119364840 
798.385 120833280 122049848 123093344 124075984 125117168 126312392 
801.278 127731528 129408464 131355200 133582488 136118576 139015968 
804.171 142355008 146222672 150692864 155809984 161570512 167916336 
807.063 174721440 181803792 188905680 195684176 201755200 206686288 
809.956 210057456 211551936 210980144 208328960 203745488 197509200 
812.849 189974960 181506224 172475952 163219216 154015824 145111424 
815.742 136688080 128868936 121733584 115312320 109600920 104571352 
818.634 100178984 96370016 93082552 90255144 87824520 85728656 83915264 
822.009 82339360 80967944 79779568 78760136 77898936 77185344 76605816 
825.384 76145352 75790536 75530824 75360528 75278160 75282776 75370664 
828.759 75533704 75757440 76023912 76312160 76599264 76862896 77081184 
832.133 77233592 77306464 77296248 77213520 77082288 76938752 76822952 
835.508 76767992 76796648 76915424 77116560 77381608 77687680 78013000 
838.883 78337016 78642536 78915432 79143704 79320576 79445448 79524624 
842.258 79569192 79591160 79599520 79596416 79578192 79538392 79473056 
845.633 79384104 79280760 79176104 79084512 79016696 78977544 78968048 
849.008 78987920 79038600 79124136 79250144 79420736 79636056 79892064 
852.382 80181456 80497520 80837360 81202560 81598328 82030320 82501680 
855.757 83012264 83559264 84139984 84754016 85404040 86095320 86832416 
859.132 87618160 88452968 89337280 90273576 91269368 92336496 93488280 
862.507 94737392 96092128 97556608 99133600 100827960 102650440 104619152 
865.882 106756408 109087344 111637664 114431168 117492032 120844656 
868.774 124507368 128485352 132753104 137244640 141832720 146330784 
871.667 150518560 154140736 156957104 158778672 159474336 159001792 
874.560 157405392 154816384 151429648 147482560 143241376 138947072 
877.452 134808400 130988848 127587320 124656000 122207384 120227232 
880.345 118686456 117549880 116781832 116344888 116201416 116316432 
883.238 116655592 117189360 117894712 118750392 119735640 120826272 
886.131 121990424 123191056 124390432 125551792 126647920 127660040 
889.023 128576816 129392224 130102976 130708384 131212320 131625144 
891.916 131965000 132253664 132514864 132768256 133025360 133290872 
894.809 133563024 133837328 134107248 134365376 134602560 134807520 
897.701 134969424 135082064 135148848 135185632 135219872 135288368 
900.594 135426032 135662832 136019856 136508784 137137136 137912704 
903.487 138846032 139950464 141239520 142721536 144400048 146273280 
906.379 148338496 150595984 153050784 155710720 158581984 161663584 
909.272 164944768 168403904 172014608 175750320 179585120 183496128 
912.165 187457440 191434160 195385152 199261920 203016320 206610848 
915.058 210018784 213222832 216208160 218951552 221415424 223551072 
917.950 225298864 226599152 227402352 227666560 227364144 226483024 
920.843 225030448 223039648 220572784 217725440 214610272 211347296 
923.736 208055488 204831840 201757424 198902272 196323696 194077488 
926.628 192212992 190761056 189726160 189073200 188729840 188582800 
929.521 188496912 188342096 187997664 187380320 186452560 185223776 
932.414 183749344 182120672 180461136 178899552 177555792 176530112 
935.306 175880048 175622000 175731200 176154256 176818016 177641632 
938.199 178552416 179481824 180368272 181161680 181817104 182301216 
941.092 182595456 182696016 182613424 182366480 181980096 181480368 
943.985 180894768 180258368 179613072 179007776 178496752 178126384 
946.877 177929776 177922784 178103056 178457072 178966736 179617984 
949.770 180400848 181308192 182331936 183458560 184669856 185947920 
952.663 187278192 188655392 190082528 191566448 193112000 194717680 
955.555 196374832 198072128 199801840 201562896 203361824 205207616 
958.448 207105792 209053968 211041920 213056048 215086608 217132320 
961.341 219199856 221298496 223434064 225602752 227792880 229988720 
964.233 232178928 234362576 236548432 238749616 240975776 243228048 
967.126 245498352 247775328 250050544 252324848 254606640 256906000 
970.019 259225968 261557488 263879712 266169584 268409424 270595936 
972.912 272740320 274863840 276990176 279137024 281319552 283553760 
975.804 285862112 288279616 290847616 293602880 296570208 299752800 
978.697 303135488 306691328 310394240 314226144 318173824 322221568 
981.590 326338752 330467584 334529344 338428096 342063008 345348704 
984.482 348213696 350602528 352478304 353821536 354642912 354990592 
987.375 354964864 354709696 354384480 354154624 354152416 354460096 
990.268 355118976 356134208 357494976 359186496 361195904 363506912 
993.160 366090528 368904672 371896384 375012384 378216960 381495008 
996.053 384849504 388288288 391809632 395393824 399009184 402623072 
998.946 406219200 409805600 413411424 417070336 420803136 424608160 
1001.839 428463488 432341312 436222112 440106240 444009536 447949472 
1004.731 451929024 455929536 459915360 463853888 467731296 471562880 
1007.624 475382688 479226976 483110560 487017344 490903744 494718912 
1010.517 498429120 502025056 505518848 508923296 512231936 515408864 
1013.409 518399232 521145984 523617920 525817696 527774528 529519968 
1016.302 531066304 532396800 533476480 534274528 534787712 535047168 
1019.195 535108320 535024768 534820512 534481824 533964576 533220128 
1022.087 532211488 530923776 529352800 527481024 525257888 522601792 
1024.980 519405792 515574528 511048864 505808640 499868736 493257792 
1027.873 486001952 478125856 469666080 460695936 451331552 441735392 
1030.766 432098304 422596704 413389664 404605184 396334624 388658848 
1033.659 381649504 375362048 369836704 365078816 361052384 357681824 
1036.552 354866112 352502688 350494400 348768128 347269280 345948800 
1039.446 344758112 343643872 342549408 341430144 340257408 339020256 
1042.339 337718144 336349664 334903296 333359328 331697440 329912288 
1045.232 328022240 326072992 324126816 322242816 320470624 318838688 
1048.125 317358496 316034912 314873152 313880704 313063232 312415616 
1051.018 311916128 311526144 311201216 310901984 310602816 310295328 
1053.911 309979072 309649760 309289536 308863232 308324768 307632000 
1056.804 306752704 305669888 304377600 302871040 301140960 299175232 
1059.697 296966272 294523872 291881440 289098880 286248832 283403712 
1062.590 280630464 277979776 275493600 273214880 271187232 269457696 
1065.483 268069088 267045024 266384624 266057168 266011840 266181920 
1068.376 266496688 266892736 267306112 267674448 267939216 268042304 
1071.269 267939712 267610704 267061232 266321328 265433280 264440864 
1074.162 263375376 262253904 261085904 259880608 258655392 257438000 
1077.055 256258512 255143456 254108608 253156688 252283280 251484400 
1079.948 250761872 250123616 249577888 249125712 248755392 248443760 
1082.842 248164688 247895680 247627200 247362352 247111232 246882016 
1085.735 246674496 246479152 246283040 246077376 245863488 245653296 
1088.628 245465072 245316544 245218448 245177248 245200480 245302912 
1091.521 245512448 245865840 246397152 247127808 248053856 249146128 
1094.414 250350448 251602448 252839744 254004208 255049680 255939808 
1097.307 256644608 257144816 257435056 257527264 257448256 257232064 
1100.200 256907664 256484592 255947648 255258560 254371888 253245200 
1103.093 251854272 250198640 248297776 246184272 243895008 241471712 
1105.986 238958992 236403568 233857536 231368080 228968672 226674800 
1108.879 224478000 222352304 220260624 218168880 216051216 213890512 
1111.772 211677312 209403536 207059552 204637472 202134992 199561968 
1114.665 196940768 194305840 191695440 189142656 186674656 184310176 
1117.558 182062416 179944896 177970608 176147744 174475184 172934528 
1120.451 171489664 170086448 168666880 167177344 165575344 163837584 
1123.344 161955520 159930080 157766112 155469536 153046720 150506992 
1126.238 147864528 145140160 142357312 139543328 136725792 133929952 
1129.131 131181584 128504248 125917240 123435864 121066816 118808536 
1132.024 116651912 114584880 112596296 110680424 108838824 107079656 
1134.917 105415392 103857792 102416736 101098864 99907496 98845128 97913520 
1138.292 97113544 96443864 95899152 95470408 95144000 94904864 94739000 
1141.667 94633920 94579048 94563920 94575544 94597176 94609488 94590376 
1145.042 94520672 94385760 94176296 93888992 93525424 93091912 92599208 
1148.418 92064864 91514040 90976744 90488064 90082600 89788120 89626080 
1151.793 89608200 89738384 90015456 90434272 90987000 91660800 92436272 
1155.168 93286968 94176256 95063368 95905024 96656280 97277208 97730024 
1158.543 97979280 97995392 97753640 97238080 96445064 95383072 94071896 
1161.919 92537248 90809552 88919928 86897256 84772216 82575080 80335312 
1165.294 78082992 75844120 73639368 71484856 69391560 67367568 65420880 
1168.669 63559620 61792816 60129820 58578116 57143108 55828148 54634336 
1172.044 53562832 52615468 51794752 51104456 50547748 50127400 49844636 
1175.420 49701212 49699316 49844232 50144652 50611816 51259496 52101912 
1178.795 53151912 54422048 55923600 57667656 59666412 61931392 64472876 
1182.170 67297112 70402424 73774232 77378528 81159744 85027232 88852640 
1185.545 92482960 95731752 98408432 100351288 101435560 101605256 100876280 
1188.921 99334016 97114992 94383864 91326776 88115920 84901680 81810016 
1192.296 78924176 76292336 73928472 71817840 69924776 68200752 66597320 
1195.671 65068900 63579752 62108008 60642832 59183528 57736832 56313688 
1199.046 54927492 53590384 52314040 51107140 49974620 48918540 47937652 
1202.422 47028824 46187860 45410828 44694196 44034260 43427144 42867492 
1205.797 42348748 41864184 41408188 40977908 40574132 40201480 39867104 
1209.172 39578892 39345320 39173808 39071052 39043828 39098280 39239700 
1212.547 39471472 39793308 40201556 40688592 41245404 41862356 42530252 
1215.923 43240792 43985896 44755496 45538824 46323420 47097396 47851264 
1219.298 48578460 49275848 49942540 50579652 51190004 51777992 52350932 
1222.673 52919612 53496192 54094184 54725168 55396216 56109964 56864772 
1226.048 57656156 58478212 59325068 60190068 61064564 61938768 62800100 
1229.424 63636072 64436904 65196440 65913952 66593840 67244728 67879016 
1232.799 68511664 69162328 69855264 70617288 71479704 72473168 73624808 
1236.174 74958272 76490584 78233104 80193096 82374008 84774792 87389608 
1239.549 90207704 93213984 96392064 99730040 103222560 106872160 110685304 
1242.925 114664736 118799784 123061184 127392664 131712552 135922880 
1245.818 139901616 143515280 146626192 149086384 150758496 151528336 
1248.711 151309552 150062896 147795328 144560304 140447360 135578176 
1251.604 130103288 124181336 117981696 111672800 105397568 99281000 93420024 
1254.979 87876848 82692960 77887592 73462400 69406680 65699280 62312616 
1258.354 59213184 56366652 53740728 51305512 49037448 46919616 44940256 
1261.729 43093528 41376880 39789928 38332372 37003068 35799564 34718024 
1265.105 33753720 32901480 32156438 31512920 30964422 30503408 30121752 
1268.480 29811686 29567310 29385184 29264586 29206356 29211848 29282096 
1271.855 29417268 29618352 29887638 30229868 30651548 31158140 31750906 
1275.230 32422874 33157930 33927764 34693548 35412580 36037244 36522520 
1278.606 36833160 36944152 36846396 36547316 36069792 35447956 34720676 
1281.981 33930308 33115160 32306716 31531588 30808240 30149170 29561776 
1285.356 29048682 28608630 28236980 27927476 27673426 27469464 27312100 
1288.731 27199768 27131620 27105028 27115432 27155430 27217018 27292694 
1292.107 27377558 27470450 27572616 27686386 27813008 27952000 28101536 
1295.482 28259716 28425808 28601304 28789086 28992784 29214684 29455704 
1298.857 29715416 29993566 30290938 30609628 30952538 31322316 31719786 
1302.232 32144200 32594028 33068496 33568684 34097972 34660568 35259964 
1305.608 35897188 36570384 37275420 38007024 38759496 39527540 40303596 
1308.983 41078016 41838060 42567348 43250200 43872284 44422956 44895576 
1312.358 45286800 45593800 45813640 45942380 45976304 45913024 45753000 
1315.733 45500152 45160788 44743924 44259512 43718760 43135208 42524260 
1319.109 41902788 41289344 40699840 40146492 39636572 39171812 38750624 
1322.484 38370012 38028472 37726660 37467100 37252816 37086564 36969944 
1325.859 36903856 36890220 36932680 37035760 37204156 37440264 37743032 
1329.234 38107536 38526800 38994168 39504348 40054480 40641768 41261360 
1332.610 41904760 42558320 43203204 43820164 44388124 44886644 45297904 
1335.985 45604988 45794308 45857604 45793904 45612092 45330164 44975860 
1339.360 44581756 44178584 43793628 43444940 43142272 42889880 42689832 
1342.735 42544140 42456880 42433060 42477600 42594976 42788800 43062464 
1346.111 43420072 43866052 44403500 45032680 45748804 46541044 47393448 
1349.486 48287080 49199324 50104492 50975664 51780680 52486636 53063356 
1352.861 53485024 53737240 53817496 53736040 53512048 53171424 52744592 
1356.236 52261080 51750556 51241712 50758900 50322828 49948340 49641996 
1359.612 49403508 49227304 49106788 49038676 49026100 49078816 49210752 
1362.987 49434100 49754228 50167488 50661860 51219716 51818348 52432424 
1366.362 53032620 53582288 54043372 54377772 54552920 54549876 54363536 
1369.737 54002248 53481916 52822868 52046624 51173156 50227072 49239032 
1373.113 48246240 47296420 46438784 45715376 45156448 44775480 44573716 
1376.488 44548748 44702608 45046648 45603040 46398112 47456276 48792252 
1379.863 50402192 52257308 54293884 56415928 58484616 60328128 61778376 
1383.238 62678932 62920884 62456748 61294852 59496488 57161700 54441956 
1386.614 51521688 48594952 45848212 43413816 41355816 39677484 38338812 
1389.989 37280620 36439164 35759660 35196472 34713180 34284632 33894268 
1393.364 33535320 33210184 32927644 32698262 32528960 32420200 32365042 
1396.739 32352656 32369040 32400992 32438442 32475966 32514784 32562782 
1400.115 32632712 32736958 32884072 33076900 33312384 33584148 33885168 
1403.490 34211604 34563468 34943372 35351580 35782364 36221104 36648212 
1406.865 37042792 37390244 37686184 37936400 38153840 38353184 38548196 
1410.240 38748776 38962308 39196944 39462620 39770504 40131372 40550744 
1413.615 41027284 41553168 42117696 42711364 43328212 43967532 44629712 
1416.991 45313944 46016492 46732208 47459456 48203508 48979588 49804984 
1420.366 50687884 51626088 52605628 53610404 54626936 55654144 56703940 
1423.741 57798412 58959936 60201864 61523816 62914224 64358772 65848088 
1427.116 67384016 68975208 70631360 72356552 74145216 75985080 77863768 
1430.492 79775864 81724448 83714848 85748232 87814864 89895704 91961744 
1433.867 93983600 95934528 97783520 99496856 101037016 102370480 103479784 
1437.242 104374064 105086616 105651936 106093352 106412264 106591712 
1440.135 106599880 106399304 105957792 105249600 104260144 102985904 
1443.028 101435016 99629200 97601616 95399160 93070848 90657616 88192928 
1446.404 85701048 83210424 80768920 78444768 76316472 74451760 72882656 
1449.779 71602024 70571760 69745184 69082416 68560240 68171088 67910904 
1453.154 67766608 67709800 67692872 67657872 67551328 67337696 67023060 
1456.529 66663564 66357052 66195488 66225128 66440412 66802040 67263960 
1459.905 67784576 68333088 68883296 69408040 69881656 70276464 70567704 
1463.280 70741160 70799696 70768848 70692144 70624616 70615536 70696400 
1466.655 70882704 71177032 71575144 72069864 72652904 73315776 74047712 
1470.030 74839256 75683640 76577400 77524032 78534328 79628928 80831216 
1473.406 82169976 83677120 85380000 87303312 89462256 91854920 94459920 
1476.781 97237672 100142848 103131968 106173992 109253872 112361904 
1479.674 115490248 118629456 121764504 124880776 127966760 131012824 
1482.567 134006856 136927904 139738096 142386688 144809280 146931168 
1485.460 148681648 149991952 150800560 151055760 150714800 149747888 
1488.353 148145408 145933152 143188896 140045744 136691904 133331400 
1491.246 130135704 127219960 124622272 122318552 120251312 118351016 
1494.139 116558000 114834672 113170320 111576104 110070104 108659768 
1497.032 107324576 106012984 104661776 103204488 101588176 99784856 97787496 
1500.407 95610744 93282528 90841616 88325848 85757880 83144496 80459152 
1503.783 77635504 74572288 71150456 67280944 62982856 58453912 54050316 
1507.158 50145100 46954100 44473936 42546552 40981220 39615376 38345328 
1510.533 37124460 35944192 34815408 33749172 32747888 31802204 30895716 
1513.908 30009968 29129496 28242176 27340154 26422462 25498238 24589370 
1517.284 23725826 22935914 22235694 21620244 21064404 20527168 19968978 
1520.659 19367746 18736762 18123726 17588798 17171472 16872888 16661679 
1524.034 16491042 16320406 16124697 15902439 15671330 15457339 15279111 
1527.409 15139312 15027030 14927228 14831115 14740098 14663562 14611472 
1530.785 14586424 14579536 14572546 14545409 14488708 14411463 14340430 
1534.160 14305603 14325020 14395913 14499636 14610890 14707124 14774995 
1537.535 14808969 14810031 14781097 14722069 14629772 14502514 14349027 
1540.910 14189396 14047517 13939453 13864085 13804839 13735581 13634570 
1544.286 13492086 13316609 13129354 12954945 12808145 12688039 12580210 
1547.661 12465794 12331192 12174414 12007575 11849825 11719363 11622903 
1551.036 11553822 11496796 11437397 11369161 11296243 11230411 11185463 
1554.411 11169211 11179751 11206712 11235885 11254859 11252648 11219122 
1557.787 11145006 11025121 10868236 10701661 10564278 10486811 10478495 
1561.162 10530703 10622744 10731582 10834332 10915292 10969251 11001876 
1564.537 11027873 11064105 11121448 11199708 11288694 11373753 11443111 
1567.912 11492339 11526397 11556715 11596835 11656256 11737336 11838486 
1571.288 11956927 12092299 12245161 12414410 12595184 12776614 12944874 
1574.663 13088408 13204287 13304242 13412044 13554844 13746901 13986330 
1578.038 14259548 14551166 14850796 15154717 15464583 15783021 16108742 
1581.413 16435534 16752480 17048430 17316374 17555746 17770878 17967950 
1584.789 18151846 18323344 18480282 18620020 18743196 18854364 18962344 
1588.164 19075924 19201204 19340100 19490546 19650160 19819580 20003152 
1591.539 20209120 20445610 20716876 21022322 21356940 21715536 22095556 
1594.914 22499636 22933714 23404660 23916100 24467014 25052218 25665666 
1598.290 26303248 26963840 27648388 28357680 29088962 29836528 30592136 
1601.665 31347282 32097142 32839864 33575380 34302956 35016852 35704436 
1605.040 36347612 36921244 37397536 37750728 37957376 38002972 37883756 
1608.415 37608060 37195568 36673304 36076848 35444500 34815696 34229096 
1611.791 33713684 33285550 32945442 32680296 32467470 32279234 32090686 
1615.166 31882640 31647720 31394154 31144508 30928306 30769150 30678608 
1618.541 30653006 30677826 30731452 30789638 30829584 30830722 30780568 
1621.916 30677506 30533444 30369780 30210616 30074664 29967862 29884514 
1625.292 29812182 29738442 29653932 29554080 29438402 29309320 29169750 
1628.667 29022572 28870808 28717644 28566516 28420358 28279484 28140458 
1632.042 27994124 27826432 27619432 27353492 27012882 26593556 26110872 
1635.417 25601940 25116212 24698154 24368838 24125088 23946102 23806216 
1638.792 23681036 23552078 23409416 23251420 23084186 22917506 22761678 
1642.168 22621648 22495588 22373192 22238484 22072582 21856596 21577758 
1645.543 21233716 20837034 20415256 20004782 19641078 19347582 19131668 
1648.918 18986366 18894508 18831390 18764784 18656130 18458052 18125416 
1652.293 17639764 17040780 16430061 15916325 15556371 15338454 15216205 
1655.669 15139312 15071041 14991600 14893314 14778080 14652459 14523962 
1659.044 14396769 14271395 14144312 14010352 13864666 13704461 13531975 
1662.419 13353647 13180378 13024249 12894969 12797771 12731334 12688722 
1665.794 12659245 12630216 12588397 12522709 12426377 12298980 12147120 
1669.170 11982983 11822109 11678074 11559811 11470566 11407870 11364842 
1672.545 11330864 11293353 11239354 11158536 11049150 10920627 10793025 
1675.920 10687975 10620028 10590420 10589605 10602576 10616259 10623830 
1679.295 10626377 10631266 10647361 10679452 10724110 10768535 10792855 
1682.671 10776958 10708589 10593612 10458537 10341963 10272915 10257547 
1686.046 10283060 10328934 10377899 10417673 10443026 10453344 10451376 
1689.421 10441396 10428703 10419167 10418793 10432233 10461049 10502154 
1692.796 10547440 10583902 10597550 10577824 10523981 10449950 10382378 
1696.172 10349327 10363816 10419947 10496078 10565568 10602134 10588519 
1699.547 10523709 10428534 10340538 10292254 10296869 10345153 10416927 
1702.922 10490274 10548356 10580710 10582577 10556266 10509758 10454769 
1706.297 10401926 10357810 10323844 10296971 10272237 10244044 10209036 
1709.673 10166194 10116947 10064280 10010738 9957474 9903233 9845339 9780438 
1713.530 9705753 9620207 9523671 9415136 9291563 9147486 8977476 8779807 
1717.387 8561647 8339916 8135549 7965293 7835353 7740595 7668857 7605258 
1721.245 7537015 7456513 7362310 7258053 7149611 7043485 6942975 6848748 
1725.102 6759859 6675430 6595929 6522732 6457215 6399207 6346922 6298710 
1728.960 6253934 6214741 6185298 6169905 6169300 6178980 6188390 6182777 
1732.817 6149237 6083037 5994842 5908211 5850174 5836540 5865757 5924299 
1736.675 5994472 6061230 6113010 6144834 6156933 6154580 6145237 6136029 
1740.532 6130888 6130384 6132803 6134954 6134349 6128636 6116169 6096041 
1744.389 6067815 6031831 5989064 5941195 5889502 5834995 5777842 5717339 
1748.247 5652346 5580986 5502289 5415990 5323235 5227146 5132922 5046596 
1752.104 4973861 4918329 4879859 4855030 4837373 4818376 4790334 4748158 
1755.962 4691784 4626911 4563856 4512997 4480455 4466227 4464185 4465390 
1759.819 4460469 4442660 4410258 4366479 4317985 4272441 4236338 4212482 
1763.677 4200839 4199200 4204453 4213051 4220947 4224828 4222017 4212047 
1767.534 4197661 4183442 4174109 4172068 4174945 4176149 4166448 4137846 
1771.391 4087438 4020247 3948954 3888906 3850528 3836254 3840767 3854740 
1775.249 3869382 3879579 3884360 3885730 3886031 3886299 3884794 3878241 
1779.106 3863632 3840499 3811618 3781937 3756903 3738622 3725889 3714493 
1782.964 3699187 3676965 3647494 3614115 3581774 3555416 3537644 3528959 
1786.821 3528257 3534070 3545260 3560961 3579435 3597510 3610707 3613480 
1790.678 3601953 3575560 3538646 3499564 3467299 3448762 3445790 3455910 
1794.536 3474279 3496491 3519505 3542020 3563400 3583378 3600584 3613246 
1798.393 3619895 3619962 3614716 3606764 3599347 3595472 3596641 3603256 
1802.251 3614750 3630587 3650233 3672955 3698018 3723783 3748481 3770305 
1806.108 3788421 3803396 3816799 3830103 3844611 3860323 3876068 3890712 
1809.966 3903918 3916355 3930331 3947918 3970120 3996136 4023558 4048908 
1813.823 4069578 4084394 4094061 4101018 4108176 4118211 4133330 4154204 
1817.680 4181301 4214423 4253636 4298040 4346498 4396936 4447012 4494482 
1821.538 4537605 4575575 4607957 4634747 4656550 4674535 4691248 4710407 
1825.395 4736635 4773483 4821927 4879491 4941017 4999066 5047065 5081594 
1829.253 5104022 5120953 5140935 5171950 5217119 5273829 5335579 5394284 
1833.110 5443804 5480411 5503463 5515074 5517927 5514705 5506853 5495410 
1836.968 5481350 5466016 5451655 5440382 5434041 5432866 5435852 5440918 
1840.825 5445180 5446186 5440885 5427095 5402906 5368889 5328568 5288285 
1844.682 5256557 5240560 5243679 5264841 5298548 5337558 5374390 5404818 
1848.540 5427867 5446119 5463768 5484706 5510376 5539572 5569475 5597298 
1852.397 5622236 5645834 5670775 5699512 5732883 5769246 5805645 5838823 
1856.255 5867033 5890947 5912678 5934980 5959636 5987351 6017351 6048798 
1860.112 6081289 6114993 6150581 6187919 6225631 6261295 6292357 6317436 
1863.969 6336801 6352301 6365851 6378225 6387808 6390699 6381957 6358050 
1867.827 6318546 6267648 6212287 6160125 6116640 6083003 6056829 6033411 
1871.684 6008347 5978616 5943009 5901191 5853264 5799332 5739397 5674334 
1875.542 5605554 5535746 5467559 5402973 5342589 5285199 5228990 5172621 
1879.399 5116192 5061078 5009389 4962700 4920809 4882004 4843471 4803300 
1883.257 4761122 4718680 4678487 4643020 4613080 4587128 4562684 4536969 
1887.114 4508577 4478145 4447682 4419697 4396635 4379197 4367851 4362496 
1890.971 4362931 4369190 4380134 4393288 4404903 4410660 4407480 4395028 
1894.829 4376185 4355835 4339604 4331237 4330802 4336057 4342850 4348406 
1898.686 4351987 4354464 4358279 4364638 4372905 4380870 4385590 4385322 
1902.544 4381306 4376787 4375850 4381707 4395296 4414509 4435999 4456050 
1906.401 4472588 4484405 4491972 4494449 4491101 4479986 4460302 4432986 
1910.259 4401656 4370963 4345661 4328694 4320127 4317885 4319290 4322168 
1914.116 4326452 4332710 4341478 4351518 4359785 4361994 4355032 4339135 
1917.973 4318353 4299847 4289909 4291615 4303528 4320829 4337429 4349075 
1921.831 4354932 4357676 4361258 4369323 4382678 4399614 4417421 4434493 
1925.688 4451096 4469441 4491938 4519559 4550496 4580565 4606014 4624834 
1929.546 4638465 4650588 4666329 4688300 4716034 4745813 4772545 4792143 
1933.403 4803400 4807420 4807085 4804606 4800418 4793952 4784806 4774555 
1937.260 4767185 4767654 4779614 4802897 4831845 4857677 4871114 4866121 
1941.118 4842834 4807889 4771540 4744104 4732347 4736635 4753585 4777168 
1944.975 4801725 4824474 4843973 4860090 4872689 4881837 4887868 4892928 
1948.833 4899898 4911828 4929924 4951774 4971951 4983614 4981570 4964678 
1952.690 4937196 4908208 4885891 4876676 4881636 4896379 4914073 4927913 
1956.548 4934415 4933342 4927578 4920205 4912967 4905863 4897452 4886226 
1960.405 4872789 4857477 4842767 4829901 4819046 4810737 4806951 4809665 
1964.262 4822731 4848463 4885724 4929052 4970509 5001747 5017601 5019780 
1968.120 5014182 5009154 5011400 5022327 5038216 5053401 5062955 5065268 
1971.977 5063726 5063022 5066709 5074252 5081963 5085918 5085985 5088231 
1975.835 5104257 5146233 5220573 5323302 5439476 5547827 5630259 5675844 
1979.692 5684438 5663860 5626466 5582093 5537424 5494202 5453198 5415051 
1983.550 5382576 5359328 5348393 5349198 5358054 5369761 5379523 5385863 
1987.407 5390695 5397706 5409750 5427028 5446153 5462962 5474874 5483196 
1991.264 5492457 5509302 5538095 5578469 5625325 5670540 5708207 5735603 
1995.122 5755110 5771865 5791038 5815081 5841611 5866966 5886379 5898503 
1998.979 5904617 5907807 5910024 5909655 5902534 5882550 5846312 5794598 
2002.837 5734797 5678429 5636838 5618544 5625828 5655803 5701492 5756084 
2006.694 5814141 5871668 5926516 5975391 6015705 6045942 6066606 6081861 
2010.552 6097116 6117009 6143524 6173871 6202204 6222707 6233866 6238337 
2014.409 6243816 6258371 6287449 6329909 6379300 6426276 6462899 6487854 
2018.266 6505007 6522127 6546749 6582843 6628663 6680107 6731456 6779615 
2022.124 6824816 6868945 6913180 6957284 6998328 7033484 7061031 7082989 
2025.981 7103062 7126134 7154731 7187979 7222307 7254819 7284940 7316311 
2029.839 7355604 7408482 7477446 7558795 7644711 7725281 7795038 7852964 
2033.696 7903540 7952672 8004848 8060033 8114010 8161309 8197909 8223775 
2037.553 8243427 8262304 8284290 8309991 8335525 8356602 8369269 8373255 
2041.411 8372038 8370823 8373187 8379977 8388794 8395145 8395448 8389976 
2045.268 8381362 8375416 8378051 8392780 8419467 8455650 8495688 8533668 
2049.126 8563439 8580032 8579457 8560465 8524544 8477814 8429568 8389706 
2052.983 8368424 8371465 8397982 8441292 8490619 8535425 8567899 8585912 
2056.841 8591421 8589022 8583851 8578612 8574151 8570840 8568846 8569826 
2060.698 8575977 8588177 8605278 8623596 8637386 8641611 8634378 8616837 
2064.555 8592975 8568069 8545630 8526606 8509913 8493052 8475111 8457170 
2068.413 8442035 8432947 8431325 8436528 8445446 8454907 8462745 8468523 
2072.270 8474503 8482679 8494303 8507953 8520861 8530254 8534309 8534039 
2076.128 8532282 8532789 8538196 8548738 8562932 8577666 8591286 8603148 
2079.985 8614099 8625557 8637791 8649926 8659356 8663514 8661351 8653813 
2083.843 8644146 8636204 8633296 8636812 8646343 8659559 8674263 8688630 
2087.700 8701272 8711515 8718175 8719358 8713137 8698230 8675311 8646141 
2091.557 8614741 8585372 8561344 8544616 8535526 8533228 8536641 8544818 
2095.415 8556781 8570874 8584493 8594125 8596728 8590441 8575334 8554214 
2099.272 8531066 8509372 8492039 8479841 8472137 8468353 8468388 8472645 
2103.130 8481969 8496566 8514407 8531674 8544616 8549854 8546137 8535762 
2106.987 8522584 8510724 8503290 8500789 8501499 8503020 8502580 8499201 
2110.844 8492782 8483862 8472408 8458386 8440346 8417441 8390179 8359878 
2114.702 8329277 8301041 8277434 8259029 8245690 8236741 8231642 8230764 
2118.559 8234478 8242954 8255044 8268688 8281318 8290369 8295064 8296076 
2122.417 8294827 8293239 8292192 8290977 8288207 8282128 8271558 8256226 
2126.274 8237045 8214995 8190919 8165900 8140647 8116306 8094903 8078598 
2130.132 8068843 8066176 8068979 8075223 8082446 8089536 8096895 8106212 
2133.989 8118095 8131532 8143010 8147669 8142301 8126636 8104186 8081738 
2137.846 8066615 8062227 8067392 8076269 8080624 8073468 8053384 8023309 
2141.704 7990909 7964349 7948691 7943730 7945181 7945822 7940322 7926216 
2145.561 7904789 7880191 7857181 7838759 7826007 7818281 7814064 7811838 
2149.419 7809746 7805631 7795173 7775102 7740966 7691183 7627716 7554816 
2153.276 7478727 7404910 7337575 7278977 7232582 7203609 7201352 7237468 
2157.134 7321534 7457356 7636753 7840177 8041502 8216919 8349407 8434670 
2160.991 8479030 8494505 8493559 8486700 8479740 8475212 8474874 8479233 
2164.848 8489538 8506061 8527788 8552895 8578072 8601729 8622785 8641577 
2168.706 8658680 8673587 8684133 8687615 8681565 8666049 8643436 8618594 
2172.563 8596761 8581113 8572022 8566785 8561783 8554044 8543974 8533971 
2176.421 8528667 8530694 8541811 8560195 8582296 8605447 8628362 8651785 
2180.278 8677846 8708607 8744173 8782411 8820653 8855110 8884667 8908544 
2184.135 8927112 8941250 8950619 8954272 8952006 8944632 8934079 8923222 
2187.993 8914800 8909694 8907563 8906447 8904756 8902592 8902084 8905973 
2191.850 8917304 8937191 8964250 8995268 9027440 9058429 9088676 9120076 
2195.708 9154490 9192528 9233175 9273420 9309809 9340548 9366211 9388319 
2199.565 9409955 9432845 9457259 9482353 9506669 9529294 9550631 9570785 
2203.423 9590127 9607707 9621494 9629455 9631488 9630303 9630471 9638500 
2207.280 9659472 9695080 9743229 9798501 9853948 9904691 9947778 9983953 
2211.137 10014739 10042544 10068315 10091410 10111113 10127087 10140281 
2214.513 10152932 10166975 10183595 10202218 10221045 10238176 10252594 
2217.888 10265011 10277530 10292051 10310237 10331444 10353840 10374777 
2221.263 10392322 10405557 10414687 10420015 10422255 10421237 10416791 
2224.638 10409935 10402978 10399211 10402401 10414958 10436781 10465087 
2228.014 10495195 10522352 10543332 10557590 10566451 10572867 10580133 
2231.389 10590081 10603730 10622133 10646105 10676905 10716095 10763610 
2234.764 10818434 10877375 10936223 10990933 11039157 11080182 11115159 
2238.139 11145652 11173121 11198450 11222012 11244148 11266489 11291822 
2241.515 11322906 11361849 11408992 11461890 11516360 11568318 11614259 
2244.890 11653057 11685460 11713984 11741353 11770188 11801885 11837056 
2248.265 11876487 11919702 11966464 12015444 12064567 12111004 12152504 
2251.640 12187636 12216806 12241856 12266054 12291992 12321886 12355804 
2255.016 12392623 12430639 12467805 12502997 12535498 12564828 12590818 
2258.391 12613194 12631819 12647578 12661975 12677122 12694828 12715981 
2261.766 12740104 12765149 12788625 12808418 12823536 12834867 12844319 
2265.141 12854183 12866333 12881488 12899510 12919546 12940914 12963206 
2268.517 12985943 13009295 13032819 13056105 13078505 13099882 13120440 
2271.892 13140521 13160807 13181539 13202443 13223381 13244491 13266457 
2275.267 13291225 13320880 13357508 13401759 13452816 13508048 13564142 
2278.642 13617919 13667053 13710890 13749432 13784043 13816366 13846946 
2282.018 13876913 13906950 13937332 13968639 14000942 14034067 14066854 
2285.393 14098684 14128429 14155813 14181591 14206514 14231677 14257802 
2288.768 14284304 14310054 14333992 14355225 14373925 14391563 14410127 
2292.143 14431946 14459007 14491894 14530676 14574396 14621273 14669594 
2295.519 14717681 14763888 14807323 14847607 14885049 14921090 14957407 
2298.894 14995818 15037699 15083390 15132277 15182749 15233226 15281925 
2302.269 15328020 15371374 15412844 15453562 15494731 15537861 15583984 
2305.644 15634095 15688885 15748318 15812229 15879344 15948052 16016906 
2309.020 16084535 16150145 16213907 16276406 16338296 16400332 16462788 
2312.395 16525496 16588073 16650042 16710950 16770354 16828350 16884946 
2315.770 16940996 16997672 17056322 17118874 17186466 17259448 17337754 
2319.145 17419972 17504824 17590696 17676584 17761766 17845062 17924786 
2322.521 17997926 18061200 18111772 18148114 18171746 18186464 18198350 
2325.896 18213588 18237638 18273820 18322410 18381792 18448544 18519146 
2329.271 18590728 18661074 18729116 18794090 18856130 18915136 18971898 
2332.646 19027940 19084892 19145034 19210242 19280900 19356626 19436556 
2336.021 19519170 19603258 19688366 19774114 19859742 19944762 20027232 
2339.397 20105482 20178400 20245568 20308200 20368098 20426786 20484406 
2342.772 20538804 20585460 20618084 20631774 20623922 20596508 20557492 
2346.147 20519212 20496252 20502328 20548252 20639314 20775508 20951382 
2349.522 21158462 21384890 21618084 21847086 22062994 22261294 22440770 
2352.898 22603778 22753646 22892776 23022690 23143278 23253900 23354938 
2356.273 23446800 23531162 23609382 23682330 23749902 23811886 23867962 
2359.648 23918760 23964870 24007378 24046670 24082428 24113634 24139974 
2363.023 24161658 24180294 24198650 24219670 24245034 24275238 24309016 
2366.399 24344480 24379422 24412402 24443702 24474234 24505294 24538670 
2369.774 24575028 24615072 24658592 24705622 24755746 24808366 24862992 
2373.149 24918678 24974932 25031648 25089076 25147776 25208342 25271026 
2376.524 25335018 25399548 25463172 25525152 25585386 25644786 25704650 
2379.900 25766806 25832350 25902086 25976196 26054786 26137862 26225844 
2383.275 26318878 26417040 26520116 26626848 26736036 26846556 26957422 
2386.650 27068316 27179450 27291070 27403286 27515986 27628650 27741126 
2390.025 27853422 27965818 28078736 28192534 28307208 28422094 28536686 
2393.401 28650640 28764092 28877606 28992038 29107954 29225068 29342464 
2396.776 29458612 29572242 29682384 29788760 29892144 29993530 30094052 
2400.151 30194738 30296478 30400160 30507034 30617984 30734014 30855302 
2403.526 30981394 31111544 31244654 31379904 31517230 31656842 31799316 
2406.902 31944442 32091364 32238688 32384962 32529246 32671508 32812920 
2410.277 32955132 33099748 33247706 33398788 33552538 33707844 33864216 
2413.652 34021640 34180304 34340860 34502908 34666020 34829228 34991568 
2417.027 35152636 35312508 35472260 35632856 35795388 35960932 36130460 
2420.403 36304272 36482840 36665772 36852348 37040520 37228380 37413392 
2423.778 37594044 37770320 37943488 38116184 38291116 38469776 38652280 
2427.153 38837644 39023128 39206516 39386316 39562200 39735032 39906476 
2430.528 40078352 40252044 40428644 40608512 40791804 40978052 41166272 
2433.904 41354756 41542196 41726868 41908076 42086080 42262148 42437592 
2437.279 42613468 42789824 42965332 43138316 43307048 43471012 43630532 
2440.654 43787728 43944540 44102620 44262188 44422548 44582124 44738968 
2444.029 44891676 45039516 45182260 45319864 45452692 45580848 45705400 
2447.405 45827668 45949784 46073888 46201456 46332748 46466804 46601240 
2450.780 46733464 46861040 46982596 47097764 47206908 47310976 47410744 
2454.155 47507024 47600812 47692664 47783276 47873200 47962256 48049704 
2457.530 48134688 48216208 48294448 48370148 48444896 48520768 48598804 
2460.906 48678744 48758956 48837072 48910716 48978212 49039084 49094244 
2464.281 49144816 49191568 49234692 49274032 49308588 49338280 49363112 
2467.656 49383568 49400388 49414012 49424372 49431056 49433764 49432356 
2471.031 49427304 49419508 49409856 49398716 49386432 49373288 49359068 
2474.406 49344220 49329040 49313932 49298676 49282456 49263676 49240812 
2477.782 49212352 49177544 49136320 49089460 49037116 48979956 48917464 
2481.157 48849384 48775496 48695944 48610996 48521512 48427744 48329888 
2484.532 48227724 48120956 48009328 47893216 47773176 47649768 47523476 
2487.907 47394372 47262320 47127348 46989648 46849928 46709332 46568488 
2491.283 46428088 46287664 46146732 46004444 45860404 45714492 45567196 
2494.658 45418588 45267972 45114616 44957084 44794252 44625932 44452464 
2498.033 44275288 44096200 43916712 43737668 43559832 43383236 43208288 
2501.408 43035060 42863908 42694472 42525648 42355320 42181408 42002016 
2504.784 41816644 41626352 41433740 41242016 41054088 40871960 40696452 
2508.159 40526840 40362024 40201008 40042924 39887660 39734812 39584592 
2511.534 39436784 39291312 39148424 39008628 38872900 38742180 38617112 
2514.909 38498160 38384964 38277292 38174968 38078020 37987100 37902916 
2518.285 37826020 37756944 37695072 37639964 37590356 37545196 37503184 
2521.660 37463200 37423756 37383780 37343048 37301992 37262168 37226212 
2525.035 37196396 37174448 37160624 37153372 37149724 37146728 37141604 
2528.410 37132796 37120564 37106088 37090608 37075380 37060548 37045864 
2531.786 37030704 37014508 36997076 36978352 36958220 36936720 36913380 
2535.161 36887804 36859816 36830164 36799980 36770368 36742860 36717976 
2538.536 36695948 36676368 36658344 36641648 36625284 36608776 36591364 
2541.911 36572220 36550056 36524248 36494048 36459812 36422156 36382092 
2545.287 36340332 36297752 36254676 36211164 36167840 36125240 36083724 
2548.662 36043872 36005748 35968744 35932208 35895640 35859008 35823020 
2552.037 35788624 35757144 35729332 35705516 35685300 35668216 35653932 
2555.412 35642568 35634260 35629152 35627028 35626920 35627320 35626812 
2558.788 35624260 35619620 35613792 35608044 35603832 35602288 35603976 
2562.163 35608832 35616564 35626596 35638900 35652856 35668108 35684364 
2565.538 35700952 35717964 35735628 35754840 35777220 35804312 35836948 
2568.913 35875488 35919036 35966220 36015428 36065724 36116240 36167408 
2572.289 36219664 36274088 36331540 36392756 36457936 36527312 36600664 
2575.664 36677308 36757028 36839256 36924200 37011980 37103132 37197948 
2579.039 37295928 37395736 37495344 37592884 37686544 37776068 37862500 
2582.414 37948296 38036028 38127576 38223632 38322816 38422860 38520968 
2585.790 38614864 38703492 38787068 38866380 38942772 39017072 39089760 
2589.165 39161152 39231500 39301176 39370900 39441248 39512476 39584448 
2592.540 39656684 39728856 39800896 39872984 39945960 40020216 40095904 
2595.915 40172332 40248700 40324064 40398056 40470644 40542592 40614152 
2599.291 40686048 40757992 40829804 40901228 40972700 41045456 41120812 
2602.666 41200444 41285372 41375824 41471320 41570488 41672160 41775308 
2606.041 41879216 41983404 42087652 42191852 42296112 42400984 42507412 
2609.416 42616540 42729788 42847896 42970708 43097260 43225600 43353948 
2612.792 43480752 43605404 43727992 43849228 43970280 44091364 44213028 
2616.167 44335244 44457712 44580508 44703452 44826576 44949920 45073148 
2619.542 45196232 45319056 45441872 45565024 45688796 45813452 45938476 
2622.917 46063168 46186716 46308456 46428200 46546060 46662440 46777744 
2626.292 46891860 47004052 47113756 47220428 47323836 47424568 47523732 
2629.668 47622480 47721952 47822776 47925256 48029236 48134504 48240572 
2633.043 48346888 48452936 48557784 48660880 48761740 48860396 48957372 
2636.418 49053032 49147860 49241556 49333712 49422812 49508028 49588804 
2639.793 49665100 49738324 49809444 49879536 49949116 50017932 50085192 
2643.169 50150012 50211824 50270744 50327220 50381876 50435348 50487824 
2646.544 50539488 50590336 50640412 50690156 50739944 50790408 50841624 
2649.919 50893624 50945932 50998468 51050640 51102220 51153432 51204056 
2653.294 51254388 51304688 51355180 51406796 51460396 51516464 51575564 
2656.670 51637804 51702144 51767912 51834252 51900524 51967220 52034672 
2660.045 52104076 52176068 52251180 52329404 52410332 52493888 52579600 
2663.420 52667680 52757768 52849252 52941728 53034264 53126336 53217752 
2666.795 53309220 53401800 53496680 53594692 53696108 53800540 53907140 
2670.171 54015416 54124960 54236028 54348968 54464416 54582524 54703148 
2673.546 54825980 54950956 55078032 55207336 55339344 55473952 55610864 
2676.921 55749104 55887832 56025856 56162604 56297508 56430528 56561628 
2680.296 56690916 56817940 56942848 57065900 57187856 57309656 57432436 
2683.672 57556688 57682076 57807872 57932764 58055380 58175152 58291580 
2687.047 58404820 58515516 58623920 58730724 58836076 58940920 59046016 
2690.422 59152352 59261224 59373084 59488092 59605444 59724540 59844392 
2693.797 59964656 60085264 60206732 60329196 60452604 60576392 60699716 
2697.173 60821400 60941176 61059000 61175444 61291424 61408004 61525688 
2700.548 61644816 61765008 61885424 62005264 62123908 62240984 62356484 
2703.923 62471060 62585472 62700832 62818176 62937856 63060128 63184200 
2707.298 63309036 63433604 63557124 63679152 63799644 63918776 64036264 
2710.674 64151280 64262600 64368532 64467728 64558944 64642036 64717056 
2714.049 64784632 64845292 64899856 64948872 64993396 65034420 65073712 
2717.424 65112748 65153316 65196208 65242140 65290852 65341800 65394112 
2720.799 65446996 65499508 65550484 65598956 65644012 65684864 65721324 
2724.175 65753596 65782392 65807952 65830700 65850480 65866560 65878436 
2727.550 65885804 65888928 65888196 65884300 65877400 65866948 65852060 
2730.925 65831936 65805720 65773836 65737100 65696776 65654032 65609364 
2734.300 65562620 65513068 65459788 65402232 65340416 65274836 65205448 
2737.676 65132416 65055392 64973532 64886540 64794056 64696408 64594508 
2741.051 64488948 64380212 64268248 64152852 64033576 63910408 63784064 
2744.426 63655176 63524680 63393184 63260852 63127600 62993588 62859036 
2747.801 62725028 62592820 62463560 62337740 62215520 62096080 61978624 
2751.177 61862500 61747628 61634240 61522364 61412164 61302908 61193448 
2754.552 61081956 60967060 60847968 60724332 60596428 60464676 60329196 
2757.927 60189912 60046184 59897524 59743208 59583172 59417456 59246340 
2761.302 59070236 58889692 58705428 58518168 58328796 58138556 57948516 
2764.677 57759580 57572728 57388872 57208872 57033708 56864472 56702056 
2768.053 56547096 56399968 56260620 56128628 56003880 55886364 55776416 
2771.428 55674592 55581152 55495828 55417524 55344992 55275968 55208576 
2774.803 55141192 55072468 55001572 54928244 54852184 54773804 54693224 
2778.178 54611456 54529212 54447624 54367256 54288588 54211628 54135728 
2781.554 54060408 53985100 53909768 53834224 53758612 53683248 53607816 
2784.929 53532024 53455308 53376768 53295960 53211868 53124164 53031944 
2788.304 52934920 52832372 52724132 52610008 52489852 52363748 52231668 
2791.679 52093692 51950040 51801136 51647920 51492216 51335752 51180348 
2795.055 51027756 50878724 50733612 50592160 50454032 50318736 50186752 
2798.430 50057972 49933212 49812752 49696900 49585796 49479324 49377444 
2801.805 49280560 49188452 49100960 49017348 48936416 48856760 48776976 
2805.180 48696240 48614664 48532772 48452044 48373704 48298928 48228240 
2808.556 48161156 48097120 48035084 47974172 47913860 47853924 47794888 
2811.931 47737376 47682532 47631392 47585508 47546100 47514344 47491208 
2815.306 47477604 47473944 47480228 47496344 47521628 47555192 47595824 
2818.681 47642228 47693440 47748692 47807612 47870056 47936396 48006368 
2822.057 48079500 48154716 48230760 48306040 48379296 48449820 48517064 
2825.432 48581312 48642312 48700204 48754508 48804784 48850644 48892360 
2828.807 48930224 48965564 48999504 49033632 49068908 49106528 49146744 
2832.182 49189972 49236288 49285908 49338876 49395860 49457380 49524592 
2835.558 49598612 49680704 49771768 49872404 49982572 50102372 50231908 
2838.933 50372128 50525380 50695328 50887140 51106432 51358984 51650384 
2842.308 51985520 52368464 52803116 53293076 53840300 54444960 55103048 
2845.683 55805616 56535964 57270336 57979984 58630104 59186640 59618860 
2849.059 59901780 60021340 59975080 59772904 59434024 58986084 58461416 
2852.434 57890740 57303268 56723312 56167880 55649208 55173548 54743776 
2855.809 54359368 54018308 53717332 53452496 53219584 53014424 52832748 
2859.184 52671012 52526496 52397020 52281712 52180068 52092420 52019244 
2862.560 51960944 51917776 51889656 51876032 51876404 51890332 51917480 
2865.935 51957624 52010768 52076136 52152684 52238584 52331644 52429056 
2869.310 52528892 52629004 52728024 52824928 52918448 53006936 53088740 
2872.685 53161832 53224680 53277004 53320120 53356276 53389096 53422296 
2876.061 53458976 53501400 53550840 53607480 53671472 53742824 53821804 
2879.436 53908568 54003972 54107956 54220448 54340784 54468324 54601648 
2882.811 54739564 54880528 55023236 55165948 55307804 55447792 55585824 
2886.186 55721376 55854520 55984580 56110568 56230824 56343792 56447356 
2889.562 56540640 56622660 56693556 56753632 56803776 56844604 56877196 
2892.937 56902616 56922108 56937032 56948588 56957772 56965252 56970800 
2896.312 56973828 56973180 56967140 56953236 56928832 56890380 56834896 
2899.687 56759560 56662752 56544796 56407584 56254284 56089608 55917416 
2903.063 55741756 55566392 55394336 55229460 55076192 54939560 54825040 
2906.438 54737648 54681460 54659552 54674284 54727572 54822220 54962124 
2909.813 55151728 55395880 55698208 56060048 56478448 56946512 57451988 
2913.188 57977140 58501448 59000164 59447016 59818232 60091008 60248760 
2916.563 60281800 60187932 59972648 59647144 59227844 58732776 58180192 
2919.939 57588240 56971332 56341716 55708680 55078072 54453824 53837972 
2923.314 53231608 52635964 52052300 51482668 50929352 50395012 49882140 
2926.689 49392816 48928516 48490056 48077500 47690148 47326344 46983964 
2930.064 46660708 46354236 46062540 45785028 45521088 45271136 45034816 
2933.440 44811696 44600264 44398364 44203600 44014280 43829476 43649620 
2936.815 43475772 43309792 43153136 43007000 42871848 42748032 42635476 
2940.190 42534312 42444384 42365256 42295892 42234756 42179984 42129488 
2943.565 42081664 42035600 41990740 41947128 41904652 41863308 41822736 
2946.941 41783224 41745436 41711004 41681896 41660816 41649584 41649144 
2950.316 41658920 41676644 41698784 41720884 41738576 41747880 41745764 
2953.691 41730700 41702760 41663404 41615304 41561776 41505916 41450544 
2957.066 41397036 41346048 41297728 41251888 41208460 41168204 41131852 
2960.442 41099976 41072732 41049572 41029360 41010716 40992800 40975064 
2963.817 40958208 40943168 40931228 40923472 40921032 40924600 40934904 
2967.192 40952492 40977724 41010496 41049500 41092912 41138080 41182484 
2970.567 41224052 41261984 41296232 41328084 41358548 41388944 41419344 
2973.943 41449744 41480256 41511096 41543400 41579312 41620772 41669968 
2977.318 41728476 41796688 41874288 41960412 42054396 42155668 42264340 
2980.693 42380784 42505696 42639896 42783536 42936476 43097956 43266340 
2984.068 43439152 43613792 43786632 43954108 44113148 44260352 44393152 
2987.444 44509432 44607056 44684060 44738748 44769712 44775368 44755240 
2990.819 44708924 44636908 44540272 44420936 44281892 44126972 43960968 
2994.194 43788752 43615144 43444356 43278604 43118812 42964896 42815824 
2997.569 42671004 42531020 42397476 42273068 42161328 42064728 41985372 
3000.945 41923880 41879328 41850028 41834044 41829196 41833496 41845320 
3004.320 41863488 41886548 41913624 41944316 41978476 42016872 42060384 
3007.695 42110028 42166328 42229244 42297464 42369240 42441756 42512384 
3011.070 42579008 42640008 42694876 42743752 42787152 42825952 42860364 
3014.446 42890496 42916100 42936840 42952604 42963544 42969904 42972248 
3017.821 42970748 42965440 42956044 42942144 42924040 42902128 42877552 
3021.196 42851804 42825952 42800356 42774432 42746676 42714872 42676964 
3024.571 42631456 42577980 42517064 42450196 42379136 42305392 42230268 
3027.947 42154240 42077504 41999936 41921400 41841564 41760464 41678068 
3031.322 41594664 41510584 41425904 41340872 41255204 41168460 41079944 
3034.697 40989156 40895952 40800504 40703808 40607456 40512548 40419984 
3038.072 40330064 40242228 40155320 40067960 39978728 39886608 39790620 
3041.448 39689864 39583396 39470236 39349856 39222112 39088164 38949984 
3044.823 38810076 38671256 38535852 38405124 38279932 38159844 38044488 
3048.198 37933760 37827648 37726444 37630316 37538876 37451352 37366516 
3051.573 37283508 37201380 37120344 37040484 36962480 36886544 36812528 
3054.948 36739648 36667500 36595508 36523780 36453000 36384072 36317532 
3058.324 36253556 36191608 36130716 36070332 36010140 35950640 35893232 
3061.699 35839216 35789920 35745488 35705628 35669116 35634476 35600344 
3065.074 35566072 35531584 35497104 35463124 35429836 35397084 35364732 
3068.449 35332456 35300180 35267692 35235496 35203476 35171428 35138876 
3071.825 35104856 35068576 35029600 34987724 34943516 34897948 34852100 
3075.200 34806900 34763320 34721576 34682060 34645024 34610328 34577924 
3078.575 34547428 34518152 34489204 34459392 34427976 34394580 34359616 
3081.950 34323828 34288864 34255412 34224364 34195652 34168656 34142632 
3085.326 34117040 34091628 34066864 34043320 34021460 34001464 33982652 
3088.701 33964200 33945176 33924824 33903228 33880940 33859164 33838744 
3092.076 33820552 33804788 33791396 33779828 33769904 33761740 33755188 
3095.451 33750604 33748096 33747236 33747772 33749240 33751392 33754436 
3098.827 33758516 33764212 33771840 33781296 33792148 33803468 33814532 
3102.202 33824632 33833552 33841540 33849240 33857444 33866832 33877900 
3105.577 33890720 33904764 33919632 33934176 33947864 33959936 33970256 
3108.952 33979216 33986952 33994408 34001788 34009312 34016980 34024400 
3112.328 34031172 34037444 34043392 34049772 34057368 34066760 34078008 
3115.703 34090804 34104460 34117652 34129588 34139444 34146576 34150984 
3119.078 34152956 34152668 34150984 34148620 34146756 34146468 34148688 
3122.453 34153600 34160948 34169660 34178188 34185036 34189268 34190664 
3125.829 34189844 34188372 34188372 34191100 34197660 34208160 34221784 
3129.204 34237128 34252364 34265736 34276244 34283020 34286460 34287576 
3132.579 34288148 34290156 34295928 34307008 34324400 34347852 34376364 
3135.954 34407708 34439560 34469616 34495768 34516828 34532288 34542620 
3139.330 34548972 34553096 34556864 34562136 34570892 34583704 34600816 
3142.705 34621808 34645348 34670112 34694584 34718096 34740276 34761168 
3146.080 34781304 34801084 34820580 34839820 34858492 34876516 34894108 
3149.455 34911812 34930660 34951452 34975228 35001984 35031364 35062216 
3152.831 35093328 35123284 35151128 35176316 35199056 35220112 35240488 
3156.206 35261260 35283396 35307872 35335364 35366024 35399672 35435876 
3159.581 35473304 35510768 35546692 35579844 35609728 35636416 35661128 
3162.956 35685624 35712100 35741924 35776208 35814640 35856344 35899600 
3166.332 35943188 35985624 36026588 36066480 36106052 36146128 36187720 
3169.707 36231116 36275996 36322284 36368940 36415848 36462548 36509184 
3173.082 36556292 36604304 36653620 36704204 36755768 36807300 36857720 
3176.457 36906128 36951944 36995348 37037200 37078844 37121500 37165856 
3179.833 37212132 37259644 37307156 37353520 37398152 37441164 37483460 
3183.208 37526016 37570088 37615936 37663416 37711408 37758716 37803900 
3186.583 37846376 37885996 37923384 37959472 37995196 38031580 38069012 
3189.958 38108044 38148196 38189548 38231304 38273236 38314456 38354740 
3193.333 38393760 38431656 38468616 38505472 38542804 38581332 38621420 
3196.709 38663508 38707768 38753808 38801344 38849712 38898272 38945892 
3200.084 38992320 39037156 39080624 39123480 39166408 39210176 39255512 
3203.459 39302300 39350548 39400100 39450716 39502428 39555520 39610256 
3206.834 39666448 39724024 39782340 39840880 39899464 39958276 40017640 
3210.210 40077916 40139548 40201664 40263604 40324352 40383076 40439660 
3213.585 40495052 40550776 40608840 40670512 40736812 40807600 40881968 
3216.960 40958644 41036316 41114148 41191480 41268140 41344080 41419600 
3220.335 41495016 41570892 41647908 41727088 41808980 41893992 41981616 
3223.711 42071040 42160524 42248636 42333952 42415816 42493968 42569100 
3227.086 42642092 42714028 42785948 42859048 42933764 43010584 43089720 
3230.461 43170412 43251956 43333332 43413044 43489764 43562984 43632364 
3233.836 43698716 43763064 43826984 43892080 43959720 44029972 44102728 
3237.212 44176896 44251108 44323904 44394364 44462484 44528780 44595012 
3240.587 44662576 44732796 44806336 44882824 44961160 45040104 45118292 
3243.962 45194980 45270180 45344504 45418920 45494080 45570800 45649008 
3247.337 45728628 45809404 45891264 45974208 46058452 46143860 46230312 
3250.713 46317560 46404636 46491292 46577264 46662108 46746564 46831328 
3254.088 46917000 47004564 47094296 47186184 47279532 47373272 47466292 
3257.463 47557192 47645256 47730456 47813344 47895248 47977280 48060884 
3260.838 48146424 48233908 48322408 48411076 48498872 48585096 48669556 
3264.214 48752360 48833552 48913092 48990568 49065460 49137396 49206488 
3267.589 49272880 49337764 49401688 49465472 49528900 49591628 49652284 
3270.964 49709680 49762736 49810712 49853892 49892956 49929232 49964136 
3274.339 49999228 50035144 50072400 50111148 50150676 50190548 50230272 
3277.715 50269480 50308244 50346340 50383548 50419384 50453360 50484848 
3281.090 50513320 50539264 50563160 50586504 50610440 50635868 50662860 
3284.465 50690788 50718420 50744000 50766608 50785900 50802400 50817560 
3287.840 50832980 50850488 50870600 50893252 50917540 50941944 50964860 
3291.216 50984980 51001968 51016204 51028612 51040912 51054104 51069200 
3294.591 51086344 51105016 51124248 51143220 51161488 51179044 51196376 
3297.966 51214084 51232724 51252192 51271800 51290668 51307632 51322216 
3301.341 51334668 51345596 51356524 51368568 51383228 51400756 51421048 
3304.717 51443500 51466960 51490316 51512776 51533740 51553292 51572060 
3308.092 51591460 51613216 51639108 51670608 51708376 51752012 51800392 
3311.467 51851908 51905044 51959192 52014388 52071576 52132020 52196996 
3314.842 52267096 52342148 52421468 52503872 52588388 52674188 52760868 
3318.218 52848392 52936864 53026480 53117796 53211420 53307724 53407340 
3321.593 53510732 53617900 53728692 53842548 53958912 54077032 54196312 
3324.968 54316184 54435836 54554648 54671504 54785568 54896360 55004016 
3328.343 55109068 55212376 55314580 55415604 55515220 55611996 55704988 
3331.719 55792952 55875624 55952696 56024652 56091188 56152120 56206876 
3335.094 56254808 56295884 56330512 56359748 56384688 56406004 56423924 
3338.469 56438036 56447772 56453132 56454448 56452788 56449696 56446036 
3341.844 56441696 56435736 56426188 56411096 56388836 56358388 56320028 
3345.219 56274348 56222036 56163812 56100276 56031812 55959100 55883160 
3348.595 55805236 55726688 55648416 55570948 55493684 55416016 55336860 
3351.970 55255124 55169524 55079316 54983896 54883084 54777412 54668048 
3355.345 54556748 54445636 54336764 54231072 54128448 54028212 53928600 
3358.720 53827956 53725088 53619964 53513132 53405320 53297684 53190032 
3362.096 53082488 52974144 52864408 52752864 52639516 52524700 52409056 
3365.471 52292736 52175696 52057716 51938536 51817636 51695204 51571088 
3368.846 51445404 51318188 51189260 51058540 50925740 50791040 50654336 
3372.221 50515700 50375180 50232580 50087980 49941128 49792280 49641624 
3375.597 49489908 49337908 49186336 49036040 48887168 48739832 48593912 
3378.972 48449156 48305076 48161748 48018652 47875644 47732272 47587764 
3382.347 47441644 47292908 47141200 46986732 46830516 46673912 46519432 
3385.722 46368988 46224232 46085716 45953060 45824572 45698296 45572128 
3389.098 45444452 45314532 45182224 45048156 44913060 44777936 44643700 
3392.473 44511160 44380968 44253236 44127744 44003756 43879984 43755148 
3395.848 43627712 43497196 43363868 43228936 43094152 42961016 42830704 
3399.223 42703100 42577288 42451840 42325260 42196524 42065492 41932492 
3402.599 41797964 41662932 41528048 41393644 41260196 41127840 40996844 
3405.974 40866824 40737468 40607492 40475736 40340824 40201916 40058876 
3409.349 39912288 39763168 39613088 39463016 39313472 39164632 39015916 
3412.724 38866924 38717112 38566376 38414680 38262456 38110104 37958168 
3416.100 37807008 37656840 37507628 37358608 37209208 37058708 36906056 
3419.475 36751548 36595544 36439308 36284716 36133272 35986200 35843784 
3422.850 35705628 35570316 35436020 35300864 35163380 35022636 34878704 
3426.225 34732060 34583880 34435400 34287468 34141196 33996736 33853716 
3429.601 33711644 33569972 33428560 33287198 33146024 33005714 32866132 
3432.976 32727380 32589138 32451044 32313104 32175280 32038282 31902574 
3436.351 31768978 31637310 31507324 31378410 31249818 31120550 30990398 
3439.726 30858612 30724944 30589576 30452404 30313994 30175238 30036988 
3443.102 29900168 29764700 29629526 29492444 29351008 29202990 29047938 
3446.477 28887170 28723910 28562412 28406634 28258372 28117796 27982498 
3449.852 27849076 27714354 27576144 27433814 27288142 27140826 26993420 
3453.227 26847156 26702702 26560198 26419646 26280966 26144160 26009052 
3456.603 25875426 25742548 25609954 25477086 25343868 25210132 25076088 
3459.978 24941206 24805420 24668096 24529274 24389550 24250080 24112442 
3463.353 23978000 23847450 23720718 23596822 23474848 23354064 23234082 
3466.728 23115008 22996908 22879296 22761050 22640952 22517642 22390530 
3470.104 22260316 22127980 21995544 21864612 21736194 21610562 21487894 
3473.479 21368566 21253272 21142808 21037730 20937544 20840614 20744470 
3476.854 20645534 20541686 20431856 20316220 20196554 20074666 19952498 
3480.229 19831302 19711562 19593862 19478972 19367850 19261570 19160860 
3483.604 19064914 18971862 18879074 18783466 18682936 18576652 18465450 
3486.980 18351306 18236912 18124624 18015850 17911492 17811092 17713822 
3490.355 17619058 17525730 17433182 17341202 17249554 17157926 17066074 
3493.730 16973760 16880156 16784576 16686296 16585251 16481956 16377725 
3497.105 16274447 16174011 16077692 15985452 15896082 15807316 15716780 
3500.481 15622348 15523129 15419675 15313501 15206666 15101401 14999351 
3503.856 14901372 14807940 14718504 14632719 14549486 14467777 14386460 
3507.231 14304644 14222330 14139622 14057579 13977981 13901682 13829672 
3510.606 13761402 13696322 13632894 13570365 13508014 13445877 13383989 
3513.982 13322315 13260479 13197626 13133042 13066349 12997414 12927260 
3517.357 12857084 12787977 12720484 12654674 12589829 12524925 12459144 
3520.732 12391806 12322636 12251569 12178810 12104257 12027809 11949503 
3524.107 11869065 11787108 11703433 11618650 11533135 11447296 11362223 
3527.483 11278458 11197328 11119545 11045309 10974859 10907375 10842620 
3530.858 10779676 10718370 10658500 10599690 10541396 10482127 10420354 
3534.233 10353704 10281160 10202047 10117490 10029455 9940828 9854694 
3537.608 9773456 9698706 9630810 9569701 9514120 9462576 9412934 9363265 
3541.466 9311096 9254803 9192900 9124882 9051155 8972132 8889300 8803949 
3545.323 8717634 8631978 8549381 8472104 8401969 8340490 8287430 8241435 
3549.181 8199564 8158236 8114044 8064320 8007818 7944472 7875805 7804315 
3553.038 7732500 7662820 7597435 7537689 7484458 7437570 7396180 7358502 
3556.896 7322545 7285985 7247238 7205193 7159985 7112459 7063557 7015266 
3560.753 6968631 6925030 6885103 6849421 6817243 6786783 6755451 6719006 
3564.610 6672906 6613154 6537498 6446555 6344568 6239009 6138853 6051419 
3568.468 5981405 5929841 5894104 5869485 5850880 5833349 5813301 5788754 
3572.325 5759206 5725564 5689474 5652615 5616665 5582564 5550680 5520712 
3576.183 5492122 5464103 5435886 5406697 5376101 5343495 5308979 5272790 
3580.040 5236167 5200553 5167558 5138555 5114113 5093528 5075090 5056384 
3583.897 5034495 5007177 4971951 4927377 4872052 4806248 4731643 4651928 
3587.755 4573466 4503890 4449958 4416116 4402861 4406844 4421371 4438309 
3591.612 4450427 4452201 4441120 4417722 4384987 4346465 4305871 4265649 
3595.470 4227036 4190970 4158486 4130520 4107406 4089077 4073691 4058674 
3599.327 4041283 4019813 3994798 3968315 3943872 3924914 3913379 3909234 
3603.185 3910705 3914917 3919063 3920233 3915853 3903316 3880515 3845313 
3607.042 3797345 3739223 3675796 3614282 3562064 3523915 3500165 3486905 
3610.899 3478421 3468635 3454106 3434902 3414931 3399402 3393024 3397733 
3614.757 3411925 3431663 3451100 3464860 3469169 3461354 3441515 3411358 
3618.614 3375159 3339096 3309814 3293989 3295658 3315791 3352119 3399736 
3622.472 3453338 3507948 3560894 3611743 3661193 3710081 3757906 3800721 
3626.329 3832610 3845413 3832443 3791730 3729765 3662396 3609905 3590260 
3630.187 3611809 3671686 3759577 3862496 3968749 4068741 4157349 4233360 
3634.044 4299579 4361023 4423680 4492708 4570318 4657085 4751574 4851713 
3637.901 4955763 5062586 5171783 5283220 5396901 5511886 5627607 5743728 
3641.759 5861425 5982547 6109650 6244387 6386530 6533159 6678694 6815829 
3645.616 6937319 7037053 7110876 7157695 7178378 7176020 7154630 7120239 
3649.474 7081002 7046583 7027894 7033147 7065544 7121553 7192223 7264960 
3653.331 7325443 7361029 7362917 7327533 7258255 7165746 7066554 6977082 
3657.188 6909375 6868305 6850566 6847772 6848613 6842958 6822494 6783586 
3661.046 6726846 6656924 6580858 6505208 6434717 6371634 6315117 6264153 
3664.903 6217967 6177870 6145876 6124234 6113918 6114220 6125545 6152900 
3668.761 6212287 6331153 6548195 6903686 7423077 8113538 8963303 9952389 
3672.618 11056186 12245980 13481046 14680596 15715886 16424624 16642468 
3675.993 16282219 15369554 14024622 12404351 10657446 8912805 7267285 
3679.369 5798492 4564291 3588924 2865254 2355946 2010248 1775134 1608218 
3683.226 1484420 1390706 1321472 1271655 1233408 1196061 1148950 1084371 
3687.083 999975 899559 791929 687445 594035 516833 457523 416097 392550 
3691.423 385951 394407 413776 439314 465119 487244 503929 515374 523137 
3695.763 528511 531861 532094 527681 517364 500678 478122 450293 417523 
3700.102 379782 337070 290550 243669 201369 169182 151183 148598 159105 
3704.442 178496 201269 223480 242575 258224 271121 281962 290085 293832 
3708.781 290052 275762 248742 209126 158939 102628 46191 -3777 -41316 -61823 
3713.603 -64043 -49333 -21635 13651 50797 84732 112736 134975 153470 171601 
3718.425 191556 213667 235978 254544 265816 268468 263197 253947 244797 
3722.765 239227 238232 240255 241912 239989 232497 220330 205844 193645 
3727.104 187678 190728 203258 223546 248410 273441 293633 305338 305537 
3731.444 294329 273839 248476 222253 197258 172728 145416 112769 74392 33897 
3736.266 -1391 -23392 -27268 -12723 16235 53680 93547 132390 168419 201766 
3741.087 231270 253350 260478 242807 191556 104782 -5997 -116947 -198858 
3745.427 -233234 -219159 -170606 -107672 -49035 -9178 5135 -5798 -35087 
3749.767 -73418 -111978 -145467 -172627 -192962 -204289 -203262 -186173 
3753.624 -151561 -102769 -46219 9145 55370 86554 100275 98154 84102 63025 
3758.446 38536 13320 -11596 -34689 -53938 -66627 -70602 -65699 -53309 -37373 
3763.268 -21635 -8747 463 7521 15440 27038 42943 61567 78998 91028 93713 
3768.572 85891 68924 46489 24453 7355 -1491 -1457 5864 17461 29755 39862 
3773.875 46025 47748 45627 41121 35620 29125 20775 8515 -9476 -33795 -62320 
3779.179 -90479 -111879 -120922 -115059 -95813 -67919 -38102 -12955 3313 
3783.519 9410 7123 231 -6792 -10238 -8548 -1855 8449 20775 33532 45462 55469 
3789.305 63158 67896 69686 69355 67996 66637 66206 66571 66339 63721 56861 
3794.609 45130 30285 15573 6129 6792 19947 45031 77540 110814 136566 146941 
3799.913 136434 103987 54972 298 -44662 -68018 -64142 -36445 5632 50068 
3804.735 84334 99048 89868 59015 15208 -28626 -60200 -72822 -66263 -45755 
3809.557 -17328 13585 44534 75883 109422 146344 186385 225767 259185 279940 
3814.378 283322 267905 237967 203424 176574 167292 179723 210485 251162 
3818.718 290085 315782 319198 296253 250631 193976 142963 111543 106837 
3823.058 126689 162818 203523 237967 259417 265352 258688 245957 235414 
3827.397 233160 241282 257826 277851 295888 307692 311405 308322 301889 
3831.737 296452 295656 301790 314953 333423 353750 372287 384922 388007 
3836.076 379053 357829 326492 289986 255041 227756 211844 207800 212838 
3840.416 222717 232762 239161 240255 235912 227359 216916 207534 202065 
3844.756 202429 210153 225535 247847 275630 307194 341016 376134 412549 
3849.095 450060 487973 523468 550506 560525 542643 487211 391091 262169 
3853.435 122513 -198 -83489 -118537 -110587 -72623 -19250 38867 94375 143858 
3858.257 186883 223778 255207 281564 302221 316578 324403 325498 320159 
3862.596 308521 291345 270192 247581 228651 219004 223314 243537 276591 
3866.936 315782 350931 372188 372155 348875 308023 262136 225999 209988 
3871.275 216319 238929 267109 289986 299402 293633 276890 257494 245029 
3875.615 246653 264258 294827 331765 367280 394076 406745 403561 386415 
3879.955 361344 335910 318402 314058 324105 345427 371127 393147 403760 
3884.294 397591 374576 340353 305371 281133 276359 293003 327023 369502 
3888.634 410559 441238 455367 450923 430657 401140 370397 345891 332130 
3892.973 330505 339922 358160 383298 413013 445715 479515 511857 539923 
3897.313 560824 572469 574161 567260 554752 540752 528677 520118 515108 
3901.653 510730 503531 490030 468967 441868 412250 385519 367180 360183 
3905.992 365754 382104 405915 433145 459945 483562 502071 515009 523137 
3910.332 527748 531165 535278 542245 552928 567161 583385 598780 609928 
3914.671 613744 608634 594831 575057 553293 533852 520682 514909 516303 
3919.011 522871 532724 543970 555681 567625 579237 589490 596789 599244 
3923.351 595362 585375 571076 555814 543672 538032 540354 550473 566198 
3927.690 584878 603558 620048 633023 641750 646130 646594 643442 637535 
3932.030 630368 623665 618688 616797 618091 621873 626552 630833 633554 
3936.369 634317 633454 632193 631363 631795 633487 636042 638100 638630 
3940.709 636241 630667 622238 612052 602330 595263 592907 596258 604885 
3945.049 617029 630036 640621 646395 646296 640754 631828 622371 615105 
3949.388 611455 612118 615967 621641 627581 632824 636839 639891 641849 
3953.728 643011 642977 641451 638365 633919 628510 623400 619518 618224 
3958.067 619949 625258 633421 643774 654359 663319 669060 670553 667932 
3962.407 662788 657811 656019 659569 669724 685388 704868 725080 743600 
3966.747 758835 770652 780112 788112 795613 802750 808460 811879 811813 
3971.086 808095 801157 792128 782137 772112 762420 753093 744065 735336 
3975.426 727503 721363 717414 716418 718442 723587 731917 743069 757109 
3979.765 773473 790999 808792 824892 837972 847234 852081 853044 851019 
3984.105 846703 840761 833590 825423 816394 807298 798999 792560 788742 
3988.445 787879 789904 794020 799497 805406 811282 816759 821705 825822 
3992.784 829241 831996 834353 836611 839499 843383 848463 854206 860016 
3997.124 864897 868217 869711 869279 867387 864531 860813 856563 
##END=
