
##TITLE=Z345_2_d
##JCAMP-DX=5.01  $$ Nicolet v. 1
##DATATYPE=INFRARED SPECTRUM
##ORIGIN=UniL
##OWNER=Nicolet
##LONGDATE=2011/09/14
##TIME=09:58:21
##SPECTROMETER/DATA SYSTEM=Nicolet iS5
##DATA PROCESSING=
Ratio against background
%Transmittance->Absorbance
Truncated
ElementMultiply or ElementDivide
##COMMENTS=
Number of sample scans: 32
Collection length: 51.21 sec
Sample gain: 2.0
Background collected on: Mer Sep 14 09:43:49 2011 (GMT+02:00);
Number of background scans: 32
Background gain: 2.0
Sample spacing:  1.000
Number of scan points: 12415
Resolution points: 8192
Number of FFT points: 65536
Apodization: N-B fort;
Phase correction: Mertz;
Laser frequency: 15798.0 cm-1
Number of rejected sample scans: 0
Number of rejected background scans: 0
Bench serial number: ASB1000141;
##RESOLUTION=4.000
##XUNITS=1/CM
##YUNITS=ABSORBANCE
##FIRSTX=649.893372
##LASTX=4000.122314
##FIRSTY=0.125628
##MAXX=4000.122314
##MINX=649.893372
##MAXY=0.599700
##MINY=-0.000053
##XFACTOR=1.000000
##YFACTOR=1.000000E-009
##NPOINTS=6950
##DELTAX=0.482117
##ZPD=6100
##XYDATA=(X++(Y..Y))
649.893 125628200 125857384 126192304 126653952 127228544 127872376 
652.786 128532888 129181904 129832264 130535648 131354616 132335216 
655.679 133486776 134783552 136187536 137678672 139271424 141011008 
658.571 142949648 145112304 147487968 150035664 152719376 155538880 
661.464 158545520 161818512 165429056 169388592 173631680 178024624 
664.357 182423248 186718448 190837040 194740592 198363456 201543424 
667.250 204010368 205449440 205660656 204681696 202737424 200084224 
670.142 196889168 193219104 189091168 184534624 179644992 174585760 
673.035 169539696 164678800 160102160 155831232 151840400 148095264 
675.928 144584672 141327056 138352048 135675920 133284792 131136936 
678.820 129178656 127365928 125680072 124124848 122713336 121448320 
681.713 120312640 119270552 118283264 117322832 116385088 115487960 
684.606 114661672 113932224 113308888 112785792 112346752 111976712 
687.498 111667744 111416808 111218408 111053168 110885080 110664568 
690.391 110337776 109866000 109231976 108441432 107515016 106477080 
693.284 105347224 104137536 102860928 101539448 100206160 98905616 97681152 
696.659 96560960 95554136 94650032 93827624 93066464 92355440 91694920 
700.034 91090784 90547400 90061640 89622456 89216832 88835480 88477944 
703.408 88150864 87863256 87618568 87411576 87228208 87052376 86874424 
706.783 86695384 86526800 86386096 86291584 86258400 86298576 86426672 
710.158 86660952 87020392 87516944 88141648 88854992 89579936 90218432 
713.533 90667048 90839160 90693664 90238744 89530616 88649120 87684160 
716.908 86716216 85802240 84982464 84280688 83708256 83269056 82958512 
720.282 82767232 82683056 82696600 82806208 83016392 83331472 83744176 
723.657 84221824 84702664 85098136 85303256 85229192 84819376 84067872 
727.032 83018720 81756968 80389456 79014984 77719584 76562144 75571400 
730.407 74753688 74096480 73577584 73169448 72845928 72586760 72377760 
733.782 72211328 72085312 71997896 71945920 71922344 71917256 71921288 
737.156 71927856 71935792 71948424 71971696 72010136 72065168 72134912 
740.531 72215312 72303552 72398632 72501240 72611592 72727408 72843464 
743.906 72953624 73054056 73146504 73238352 73340968 73464008 73611304 
747.281 73777808 73951808 74119824 74270920 74401576 74514936 74618472 
750.656 74718544 74818432 74917600 75014352 75109192 75206888 75315208 
754.031 75442992 75595808 75774248 75975088 76194592 76431584 76689232 
757.405 76973328 77289520 77640416 78024064 78436400 78874744 79341416 
760.780 79844240 80396000 81008864 81692456 82453240 83295792 84228144 
764.155 85266280 86435488 87776048 89344168 91210384 93470520 96235184 
767.530 99609408 103669504 108408768 113697664 119227568 124535216 129049792 
770.905 132155448 133382128 132504168 129621656 125126880 119621248 
773.797 113779256 108158600 103172848 99037040 95783264 93324056 91507128 
777.172 90178952 89200304 88467096 87909504 87474384 87126152 86842536 
780.547 86614072 86443336 86340088 86315184 86373400 86512360 86724224 
783.922 87002416 87345040 87756752 88244360 88812144 89456232 90165704 
787.297 90926488 91728080 92569720 93461072 94419232 95460544 96597424 
790.671 97836392 99181152 100640936 102234776 103991984 105950392 108143184 
794.046 110589456 113283680 116191456 119248320 122359216 125417944 
796.939 128310304 130931512 133213552 135134208 136733568 138102288 
799.832 139373216 140688128 142159792 143866720 145841488 148087264 
802.724 150604464 153416784 156582640 160201152 164386816 169243856 
805.617 174845520 181207664 188279632 195930208 203959440 212079488 
808.510 219901440 226985344 232827680 236928800 238899408 238489264 
811.402 235650912 230529872 223431952 214761280 204941488 194412544 
814.295 183572784 172755952 162253168 152279568 142979072 134445168 
817.188 126714680 119786376 113634040 108213488 103470320 99341600 95763024 
820.563 92666216 89982880 87653392 85625576 83859552 82329232 81016248 
823.938 79907072 78988240 78242336 77649768 77191512 76851584 76619856 
827.312 76492008 76465880 76538080 76700496 76938088 77231128 77555360 
830.687 77883272 78188224 78443032 78622000 78707224 78690784 78581024 
834.062 78401664 78191840 77997776 77860360 77811568 77865832 78020808 
837.437 78259880 78558504 78890840 79230096 79553160 79840848 80077256 
840.812 80253320 80368088 80428976 80448944 80442648 80421552 80389136 
844.186 80341976 80272088 80173520 80045776 79897280 79741304 79594704 
847.561 79471064 79378408 79320056 79296360 79308088 79358088 79451296 
850.936 79591840 79781640 80019408 80300952 80622088 80981072 81378880 
854.311 81818048 82300872 82826416 83390928 83989672 84619832 85282808 
857.686 85984400 86732840 87535624 88396384 89315184 90290712 91324160 
861.060 92422904 93600432 94873328 96258672 97768120 99407032 101176992 
864.435 103079488 105120088 107312024 109674232 112230512 115007880 
867.328 118033608 121338512 124955920 128915160 133233768 137899008 
870.221 142854112 147975392 153070672 157903456 162189488 165649664 
873.113 168051808 169218656 169068208 167615744 164976496 161345584 
876.006 156975936 152162384 147181312 142280480 137662704 133460104 
878.899 129753280 126576960 123930864 121794768 120136520 118919104 
881.792 118100792 117636936 117485128 117601832 117949088 118496200 
884.684 119215184 120080072 121062656 122127136 123232904 124338592 
887.577 125403256 126396072 127295960 128090592 128774880 129348352 
890.470 129813952 130179344 130458416 130671440 130841272 130991056 
893.362 131139232 131295648 131463352 131639648 131820264 131999968 
896.255 132173464 132333952 132472072 132577848 132644536 132674264 
899.148 132681680 132694408 132751208 132891448 133150968 133557392 
902.040 134128272 134875440 135809296 136941216 138284800 139853072 
904.933 141654512 143692416 145964768 148468784 151204688 154178304 
907.826 157398864 160875168 164608032 168587312 172789888 177185024 
910.719 181740000 186420864 191196816 196033728 200888256 205709872 
913.611 210440016 215018608 219397792 223541056 227423056 231022976 
916.504 234311568 237243488 239760384 241789936 243258192 244102608 
919.397 244270176 243727552 242463136 240492096 237862848 234659072 
922.289 231003744 227038288 222910752 218766592 214722912 210877072 
925.182 207310928 204089824 201275968 198923920 197068176 195714608 
928.075 194824448 194314448 194049456 193861728 193581728 193043616 
930.967 192123520 190756640 188941216 186743408 184283648 181730528 
933.860 179262816 177047872 175227440 173886032 173054656 172711184 
936.753 172795616 173222144 173893984 174723184 175625824 176527120 
939.646 177364944 178081328 178628016 178969936 179083568 178959536 
942.538 178599504 178015984 177230624 176275504 175199664 174065120 
945.431 172943760 171913584 171039968 170369968 169927808 169714944 
948.324 169718576 169919632 170302720 170856528 171572736 172441904 
951.216 173448272 174570256 175786016 177076768 178432576 179853344 
954.109 181344016 182908560 184545328 186245904 187998432 189794320 
957.002 191631248 193514624 195453104 197452352 199510416 201617264 
959.894 203758832 205924176 208110128 210321776 212567456 214852624 
962.787 217173968 219519616 221873376 224222400 226563488 228903344 
965.680 231253568 233622976 236012000 238412128 240811072 243199424 
968.573 245577152 247952464 250336768 252735072 255140240 257532720 
971.465 259888320 262187152 264422352 266602272 268747104 270881536 
974.358 273026784 275202720 277430336 279736352 282159712 284745632 
977.251 287535488 290560032 293830176 297339328 301069920 305005728 
980.143 309138816 313467360 317987616 322679616 327493024 332349152 
983.036 337140320 341739520 346024480 349876224 353189280 355884160 
985.929 357910208 359265280 360004384 360253248 360195104 360031680 
988.821 359972352 360184736 360775008 361798336 363263744 365157984 
991.714 367459872 370150240 373206816 376595040 380267776 384166752 
994.607 388232640 392426144 396730240 401150080 405698880 410382368 
997.500 415187904 420089344 425056032 430072448 435145312 440302112 
1000.392 445573888 450977856 456506208 462128672 467809152 473520736 
1003.285 479259264 485038368 490874240 496766656 502690080 508598752 
1006.178 514450144 520222976 525929920 531605120 537283136 542969024 
1009.070 548627648 554186752 559563584 564697600 569561984 574159872 
1011.963 578499840 582568000 586314112 589663168 592537856 594894208 
1014.856 596734272 598098112 599033280 599568192 599699904 599405888 
1017.748 598672256 597522112 596019904 594259392 592329472 590278144 
1020.641 588104128 585765568 583210496 580397696 577308288 573933888 
1023.534 570247488 566182976 561639168 556486400 550612032 543949440 
1026.427 536480352 528232352 519252192 509589120 499293216 488431168 
1029.320 477111648 465489312 453767648 442179264 430933664 420217856 
1032.213 410177504 400908768 392487680 384970560 378390368 372758880 
1035.106 368049152 364192928 361079232 358572416 356537568 354845920 
1037.999 353398784 352122144 350952800 349834784 348710592 347522016 
1040.892 346224224 344788576 343204704 341473248 339594304 337558368 
1043.785 335347936 332945280 330347776 327577248 324683584 321734592 
1046.678 318796352 315927872 313168704 310542240 308066368 305758752 
1049.571 303638112 301721376 300013696 298503872 297164128 295960288 
1052.464 294861664 293849984 292921696 292080448 291325824 290644288 
1055.357 290005024 289365216 288683936 287926752 287072544 286109408 
1058.250 285026400 283808064 282435424 280892064 279175712 277305088 
1061.144 275323072 273285376 271250624 269273856 267398176 265661216 
1064.037 264104016 262771040 261713472 260981408 260607840 260602832 
1066.930 260945920 261593136 262480592 263535536 264688400 265865776 
1069.823 266994448 268004800 268827648 269408480 269718368 269756384 
1072.716 269549760 269141664 268581280 267908304 267150816 266330416 
1075.609 265467136 264587248 263724688 262911616 262173776 261522528 
1078.502 260954912 260459840 260027472 259655808 259350624 259119504 
1081.395 258962896 258867824 258808352 258754912 258681744 258577136 
1084.288 258444640 258296704 258145184 257994208 257837856 257665248 
1087.181 257468608 257249200 257018544 256794192 256592688 256424032 
1090.074 256294400 256212480 256196768 256282208 256516224 256944928 
1092.967 257603104 258498784 259609728 260884112 262252656 263642256 
1095.860 264977600 266192224 267228896 268036480 268580352 268845248 
1098.753 268841184 268600448 268168784 267590576 266890224 266065328 
1101.646 265086288 263911184 262496832 260815360 258860800 256646784 
1104.540 254200704 251556096 248753520 245838816 242862160 239881792 
1107.433 236952304 234115168 231394496 228790240 226284224 223847536 
1110.326 221454048 219084832 216729264 214382240 212037248 209682640 
1113.219 207304928 204892768 202444192 199969856 197492032 195039024 
1116.112 192636896 190307968 188069440 185935520 183922784 182048368 
1119.005 180325408 178756352 177323968 175990384 174696480 173377504 
1121.898 171973152 170436032 168741936 166884912 164872400 162716352 
1124.791 160429376 158022448 155505376 152889568 150189920 147422912 
1127.684 144608112 141766720 138919696 136091248 133306352 130588416 
1130.577 127958984 125432400 123014080 120702016 118489280 116368280 
1133.470 114335144 112391736 110544968 108804640 107179608 105675728 
1136.363 104295408 103038784 101905464 100896216 100011592 99250768 98609168 
1139.739 98077696 97642016 97286120 96994720 96754480 96554760 96385696 
1143.114 96234768 96085432 95917128 95706144 95430704 95073432 94622840 
1146.489 94074320 93428776 92692544 91876616 90999496 90088144 89175368 
1149.864 88300792 87505672 86824928 86287984 85914456 85713960 85689944 
1153.240 85839912 86157136 86628792 87234488 87945728 88721944 89517432 
1156.615 90282344 90964360 91516944 91896600 92063672 91986600 91640048 
1159.990 91008816 90091288 88899400 87458336 85800384 83964144 81989496 
1163.365 79912808 77770664 75596832 73421352 71273112 69175432 67145760 
1166.740 65196244 63333952 61562148 59883412 58300488 56817600 55439808 
1170.116 54171276 53015248 51973120 51044788 50230236 49530720 48949064 
1173.491 48490168 48159824 47963516 47906240 47993304 48230428 48626340 
1176.866 49193384 49946516 50904016 52084764 53506836 55188824 57148624 
1180.241 59405032 61979504 64893388 68167920 71821320 75863016 80288712 
1183.617 85071160 90156032 95442456 100776688 105964224 110754352 114876632 
1186.992 118086224 120175760 121026448 120620992 119042168 116454568 
1189.885 113073152 109150856 104928336 100619880 96408408 92418480 88726864 
1193.260 85365280 82325384 79571064 77047944 74699576 72470856 70317640 
1196.635 68211368 66137032 64092056 62083048 60122400 58225276 56405776 
1200.011 54677664 53051116 51532768 50125576 48829064 47639896 46553436 
1203.386 45565100 44670840 43867300 43151604 42519836 41966908 41487108 
1206.761 41074776 40725932 40439224 40215948 40059204 39972224 39957588 
1210.136 40016984 40151288 40362024 40651552 41022588 41477376 42015704 
1213.512 42634560 43327660 44087292 44905752 45775496 46689924 47641524 
1216.887 48620000 49612948 50605188 51581276 52528440 53437280 54302744 
1220.262 55123512 55900948 56639044 57344176 58026444 58699696 59379392 
1223.637 60082404 60822580 61608500 62443472 63325556 64249656 65209448 
1227.013 66198500 67209264 68231616 69252872 70257144 71227360 72150016 
1230.388 73016224 73824192 74579288 75293016 75982152 76666856 77373416 
1233.763 78133328 78981360 79957416 81100512 82445224 84021840 85852264 
1237.138 87952016 90332360 93000288 95959368 99208344 102740600 106543984 
1240.514 110602920 114904864 119441704 124211768 129216360 134450992 
1243.407 139895504 145508640 151218304 156923616 162504560 167811248 
1246.300 172676016 176921136 180347584 182763488 184001536 183928000 
1249.193 182473792 179637072 175485440 170143360 163784064 156622656 
1252.086 148882848 140799680 132600648 124473912 116579624 109038064 
1254.979 101923320 95282048 89132928 83472480 78282576 73532256 69183904 
1258.354 65193280 61516488 58113176 54946216 51986416 49212684 46609832 
1261.729 44169448 41887972 39764548 37799380 35992212 34341400 32843654 
1265.105 31494570 30288876 29221098 28284506 27470840 26770288 26171432 
1268.480 25663030 25236330 24885798 24609708 24409142 24286136 24242198 
1271.855 24277830 24394002 24593226 24881132 25265618 25754254 26349472 
1275.230 27043702 27817708 28637366 29455704 30221414 30878854 31376880 
1278.606 31677086 31754434 31602568 31233616 30676580 29971838 29163514 
1281.981 28297590 27413980 26543714 25711680 24934048 24221772 23581918 
1285.356 23017904 22529892 22114312 21765002 21474106 21233994 21039120 
1288.731 20886780 20776098 20705824 20673298 20672742 20696580 20737242 
1292.107 20788890 20849340 20918976 20999474 21091500 21193114 21300908 
1295.482 21410750 21519924 21628568 21739466 21856808 21983972 22122506 
1298.857 22272452 22433234 22605592 22791918 22995720 23220940 23469324 
1302.232 23740664 24033258 24346022 24679634 25038038 25426878 25851268 
1305.608 26313738 26812860 27343964 27900306 28474874 29061894 29654890 
1308.983 30245888 30824426 31375882 31885494 32339338 32727130 33043862 
1312.358 33288520 33462272 33565460 33597356 33555972 33439976 33250208 
1315.733 32991416 32671008 32298970 31885672 31440742 30974634 30498502 
1319.109 30025308 29569722 29145548 28763312 28428636 28140846 27895360 
1322.484 27685714 27507410 27359278 27242736 27160438 27114304 27104076 
1325.859 27128624 27187316 27282286 27418814 27604002 27843918 28141412 
1329.234 28494864 28899564 29350616 29844442 30381256 30962178 31587352 
1332.610 32252536 32947052 33653456 34351904 35019904 35634836 36176556 
1335.985 36625176 36963452 37178744 37265276 37227912 37082776 36857972 
1339.360 36588588 36308740 36049092 35829716 35661128 35547836 35492500 
1342.735 35498720 35572868 35722244 35952508 36267496 36668008 37153696 
1346.111 37725284 38384708 39133992 39972696 40895584 41890384 42938852 
1349.486 44019264 45106380 46172344 47188512 48121028 48934672 49596752 
1352.861 50078500 50363456 50448520 50345080 50074708 49665952 49151608 
1356.236 48562008 47927328 47276872 46636688 46031744 45483304 45004860 
1359.612 44603788 44280532 44032428 43858396 43762880 43755920 43851832 
1362.987 44062424 44391496 44832820 45370952 45985068 46649488 47336840 
1366.362 48015136 48644280 49180992 49580596 49803760 49827580 49646008 
1369.737 49270576 48723000 48030756 47221352 46318996 45350868 44349996 
1373.113 43356216 42421624 41600828 40940804 40475996 40222308 40183052 
1376.488 40359152 40757956 41398496 42311708 43531552 45087300 46994524 
1379.863 49247012 51810136 54609464 57533424 60417836 63055336 65237364 
1383.238 66764520 67491448 67347216 66329188 64500244 61972512 58920620 
1386.614 55561912 52129068 48851760 45899180 43361232 41255384 39544196 
1389.989 38164112 37043516 36119624 35340036 34663040 34060056 33511840 
1393.364 33009220 32552424 32147552 31803060 31525460 31316012 31170386 
1396.739 31080116 31033136 31015842 31015342 31021250 31029400 31044168 
1400.115 31078016 31146074 31261604 31432372 31658232 31933814 32251254 
1403.490 32604996 32993526 33418040 33877900 34365604 34863444 35347876 
1406.865 35793372 36181704 36507308 36776356 37003828 37206320 37398584 
1410.240 37590792 37790196 38005612 38249248 38535960 38880112 39289428 
1413.615 39762372 40288324 40853428 41445808 42059580 42696188 43359476 
1416.991 44050212 44763540 45488708 46216824 46947896 47697396 48489092 
1420.366 49340956 50259956 51237608 52258988 53310156 54389188 55509348 
1423.741 56695636 57974076 59360396 60855020 62445272 64116984 65863936 
1427.116 67694536 69627048 71680488 73864840 76175400 78596192 81109416 
1430.492 83706208 86389040 89164176 92032672 94981840 97987584 101015736 
1433.867 104035808 107025264 109956648 112793176 115476680 117929704 
1436.760 120077016 121875784 123331840 124481200 125366064 126011264 
1439.653 126416592 126558648 126401216 125909712 125055480 123822144 
1442.546 122206456 120218672 117884880 115245952 112360744 109292784 
1445.439 106097456 102822584 99505440 96187632 92934664 89836000 86992456 
1448.814 84490696 82371800 80626992 79208864 78058288 77123168 76372128 
1452.190 75793104 75379608 75116048 74970160 74888816 74807536 74666672 
1455.565 74425608 74087560 73708664 73389144 73224664 73265144 73507680 
1458.940 73914288 74438896 75038840 75680720 76334600 76969336 77555672 
1462.315 78063600 78466880 78750800 78917576 78991856 79015736 79043640 
1465.691 79125968 79296600 79575088 79967264 80471000 81080336 81787648 
1469.066 82586232 83469984 84438008 85496088 86656656 87937336 89357520 
1472.441 90938464 92696768 94653904 96842136 99296160 102055352 105149080 
1475.816 108583096 112333832 116350736 120575024 124952032 129447384 
1478.709 134049904 138755760 143560272 148451280 153400800 158376208 
1481.603 163345696 168278640 173143248 177895936 182468384 186774576 
1484.496 190707232 194144624 196973616 199087040 200391312 200810080 
1487.389 200281760 198766640 196258624 192810864 188560400 183729552 
1490.282 178620352 173550096 168775808 164463472 160660752 157325792 
1493.175 154370336 151692272 149205728 146856176 144625312 142523952 
1496.068 140570688 138769344 137086416 135446432 133757608 131920456 
1498.961 129851072 127499896 124847960 121912152 118735536 115382720 
1501.854 111921192 108397928 104837512 101216688 97456528 93430672 88986984 
1505.229 84009696 78515232 72742536 67127384 62127388 58008420 54768240 
1508.604 52214968 50115868 48272676 46558452 44915160 43331360 41819416 
1511.980 40392132 39053252 37792984 36593596 35434760 34298152 33167764 
1515.355 32030292 30879350 29720524 28576568 27483618 26478734 25585704 
1518.730 24803068 24102216 23432706 22742440 21997810 21208212 20427308 
1522.105 19728898 19165812 18745826 18436098 18183010 17937562 17667852 
1525.481 17368998 17059182 16766943 16513655 16302792 16122738 15957367 
1528.856 15798140 15648693 15521892 15430662 15378754 15355549 15338180 
1532.231 15300801 15229142 15130013 15032451 14970885 14968586 15026036 
1535.606 15125759 15242183 15353146 15445802 15515986 15565266 15594218 
1538.982 15596588 15559153 15471038 15336189 15177294 15025316 14903772 
1542.357 14816168 14745994 14664865 14547945 14383788 14181864 13966245 
1545.732 13765506 13597714 13462932 13346061 13225806 13086154 12922822 
1549.107 12746347 12575470 12428730 12314012 12226213 12152197 12079864 
1552.483 12004578 11931758 11872946 11840053 11837942 11862696 11903935 
1555.858 11950184 11993610 12028117 12045796 12033805 11974264 11857622 
1559.233 11697441 11533032 11408448 11349978 11361305 11427157 11524322 
1562.608 11627192 11716300 11782717 11829770 11870971 11922767 11996539 
1565.984 12092571 12201097 12308115 12402340 12480149 12546240 12610363 
1569.359 12683161 12770301 12871692 12985943 13113644 13259044 13428004 
1572.734 13623355 13842226 14073664 14301563 14510737 14693311 14856624 
1576.109 15021268 15214009 15450609 15732000 16047779 16385501 16736984 
1579.485 17100330 17478090 17872026 18278380 18687780 19085238 19456792 
1582.860 19794054 20096250 20368408 20617458 20848192 21060822 21253028 
1586.235 21422690 21572118 21708744 21844542 21990628 22154306 22337156 
1589.610 22535930 22747468 22972242 23215976 23488734 23800618 24156858 
1592.986 24556480 24992864 25458886 25950414 26469192 27021276 27614454 
1596.361 28253280 28937528 29662908 30424256 31218448 32045346 32906306 
1599.736 33801172 34725060 35668936 36620524 37567416 38501672 39419584 
1603.111 40320064 41202520 42061296 42883732 43650424 44333592 44900788 
1606.487 45320896 45564360 45611688 45456516 45107704 44587964 43929472 
1609.862 43174256 42367300 41555540 40785328 40093072 39501012 39014284 
1613.237 38620948 38297124 38011544 37734684 37442108 37122548 36781696 
1616.612 36442732 36137700 35893988 35725880 35630808 35594016 35592040 
1619.988 35598692 35588296 35537196 35429800 35262048 35044904 34800836 
1623.363 34557116 34336520 34148904 33990892 33850100 33712356 33565284 
1626.738 33400544 33214654 33007790 32782226 32541960 32292296 32039244 
1630.113 31789120 31546838 31314376 31088908 30861386 30616952 30335740 
1633.489 29994986 29574438 29064694 28476750 27846464 27227036 26670464 
1636.864 26206276 25837202 25545290 25304602 25089006 24877798 24659188 
1640.239 24430558 24197950 23971628 23762608 23576672 23411864 23257642 
1643.614 23097254 22910450 22676908 22381494 22019456 21599940 21147608 
1646.990 20697520 20286154 19940218 19671898 19479422 19350008 19262646 
1650.365 19188078 19089218 18917798 18622406 18172230 17588486 16958118 
1653.740 16388942 15949219 15642853 15435022 15282131 15149741 15017907 
1657.115 14878226 14730809 14580872 14434755 14295981 14164850 14037901 
1660.490 13909653 13773886 13625680 13463206 13289551 13113405 12946547 
1663.866 12801354 12687050 12606167 12555210 12524993 12503270 12475853 
1667.241 12429957 12356725 12252796 12121940 11973650 11821666 11679163 
1670.616 11556375 11459509 11389740 11343856 11313859 11288354 11253193 
1673.991 11194234 11104553 10987704 10860491 10745472 10661997 10617617 
1677.367 10607974 10620876 10643456 10666717 10688315 10712427 10746424 
1680.742 10796150 10860966 10932282 10993175 11023999 11007517 10939587 
1684.117 10834705 10723906 10637582 10590319 10579997 10594970 10622302 
1687.492 10651198 10674833 10690013 10695888 10693579 10686515 10679893 
1690.868 10680810 10695616 10728627 10779540 10842756 10907715 10961674 
1694.243 10993686 10999259 10985699 10971664 10979752 11023319 11101699 
1697.618 11200830 11300835 11378515 11414196 11398617 11339877 11265026 
1700.993 11205590 11183626 11202190 11251560 11315798 11378889 11427973 
1704.369 11452807 11449269 11419673 11373038 11320049 11270739 11230309 
1707.744 11198960 11173461 11149188 11122944 11093846 11063765 11035793 
1711.119 11012172 10993482 10976898 10957528 10930208 10890625 10836981 
1714.494 10768943 10686005 10585429 10461151 10306505 10117794 9900759 
1717.870 9671872 9453704 9265905 9117843 9007481 8924237 8853994 8783763 
1721.727 8705025 8614707 8514339 8408319 8301683 8197504 8097131 8000797 
1725.584 7909142 7823646 7746497 7678941 7620567 7569314 7523327 7482065 
1729.442 7448626 7428200 7426447 7445323 7480952 7522417 7552456 7553333 
1733.299 7512843 7433255 7333834 7243667 7186732 7171304 7192796 7238209 
1737.157 7293836 7346673 7387788 7411987 7418627 7411381 7396248 7379329 
1741.014 7364871 7353952 7345258 7335822 7322074 7300811 7270991 7233357 
1744.872 7190673 7146040 7102658 7061805 7023011 6983715 6940551 6890287 
1748.729 6829865 6757840 6673075 6575778 6467574 6352805 6238370 6132299 
1752.586 6042280 5972771 5923695 5890610 5865153 5837816 5800172 5748093 
1756.444 5683498 5613979 5550009 5498933 5463869 5441959 5426861 5411058 
1760.301 5388614 5356745 5316862 5272924 5230197 5193377 5165445 5147641 
1764.159 5140131 5141874 5150558 5162662 5173727 5179260 5176510 5166786 
1768.016 5154112 5144724 5143249 5149888 5159913 5164674 5154112 5121891 
1771.874 5068251 5001613 4934850 4879122 4840120 4816064 4801222 4789564 
1775.731 4777436 4764840 4754121 4747588 4746315 4748191 4749431 4745947 
1779.588 4735429 4718680 4698884 4680195 4664722 4652397 4640206 4624299 
1783.446 4602029 4572562 4537672 4500977 4466328 4436836 4414576 4400618 
1787.303 4396066 4401790 4417789 4442426 4471718 4499939 4519894 4525786 
1791.161 4514938 4489226 4455347 4421371 4394995 4380402 4378026 4386025 
1795.018 4401556 4422442 4446845 4473056 4499805 4525251 4547884 4567371 
1798.875 4583813 4597944 4610937 4622792 4633006 4640541 4645029 4647273 
1802.733 4649785 4655645 4667468 4686291 4711345 4740420 4770435 4799681 
1806.590 4827690 4855499 4884450 4915514 4948088 4980530 5010796 5037277 
1810.448 5059502 5078945 5097082 5115085 5133391 5151631 5168765 5184793 
1814.305 5200218 5216784 5236200 5259978 5288788 5322497 5360435 5402369 
1818.163 5448300 5498598 5552996 5610690 5670406 5730466 5789930 5848126 
1822.020 5905423 5961383 6015134 6065161 6110154 6150346 6188525 6229833 
1825.877 6279616 6341408 6414742 6495455 6575476 6646696 6703257 6743874 
1829.735 6773321 6799472 6831077 6873254 6925973 6984961 7044125 7098077 
1833.592 7142941 7177266 7201723 7217658 7226619 7230056 7229415 7226147 
1837.450 7222004 7218871 7218062 7220488 7226080 7234738 7246093 7259637 
1841.307 7274664 7289186 7299699 7301822 7291781 7269037 7237737 7206406 
1845.165 7184239 7178108 7189797 7216108 7250506 7285749 7317187 7343674 
1849.022 7367197 7391630 7420312 7453850 7490425 7526699 7560245 7590523 
1852.879 7620027 7652097 7689834 7733984 7782624 7832248 7878808 7919872 
1856.737 7955305 7986589 8015648 8043797 8071611 8098886 8125860 8153442 
1860.594 8183391 8217325 8255855 8297495 8339578 8378896 8413657 8443690 
1864.452 8470584 8496296 8521300 8544210 8561107 8566886 8557322 8530931 
1868.309 8489639 8438318 8383050 8329513 8280575 8236943 8197707 8160972 
1872.167 8125015 8087612 8046227 7997592 7938938 7868517 7787043 7697321 
1876.024 7604010 7511663 7423515 7340708 7262096 7185856 7111010 7037659 
1879.881 6967452 6902036 6841881 6786077 6732230 6677920 6622203 6566158 
1883.739 6512742 6465018 6424696 6391439 6362724 6335591 6307855 6279515 
1887.596 6251614 6225967 6203111 6182408 6161503 6139457 6116841 6096713 
1891.454 6082902 6078568 6083474 6094562 6106558 6114422 6115665 6111800 
1895.311 6106558 6104878 6109515 6119193 6130317 6137911 6139625 6136332 
1899.168 6131661 6130720 6136903 6149707 6166107 6180256 6188222 6188525 
1903.026 6183349 6176291 6171619 6171552 6176156 6184021 6193869 6205565 
1906.883 6219480 6236320 6254707 6271682 6282641 6283818 6274305 6256421 
1910.741 6235278 6216421 6203783 6198271 6198372 6201935 6207985 6217228 
1914.598 6231782 6253127 6280053 6307889 6329708 6338348 6331119 6310006 
1918.456 6282373 6256892 6240387 6235042 6238942 6246740 6254169 6258640 
1922.313 6261026 6263682 6269531 6279885 6294340 6312057 6333171 6358857 
1926.170 6391742 6433103 6482607 6536254 6587855 6631691 6664260 6686231 
1930.028 6701373 6715371 6732870 6755855 6783451 6812969 6841881 6868710 
1933.885 6892880 6914021 6931225 6942066 6944827 6939507 6929036 6919812 
1937.743 6919138 6932740 6961964 7002537 7046684 7085212 7111684 7123843 
1941.600 7124348 7118724 7112661 7110539 7113705 7122260 7135565 7152979 
1945.458 7174773 7200005 7226248 7250439 7269542 7283088 7293903 7307483 
1949.315 7328779 7360187 7398776 7437705 7467738 7482132 7479941 7466255 
1953.172 7451053 7443839 7450648 7472154 7503235 7536442 7565909 7588769 
1957.030 7606438 7622455 7639889 7660426 7683730 7708688 7734591 7762351 
1960.887 7792171 7824792 7858260 7889605 7916498 7939917 7962864 7991517 
1964.745 8030330 8080455 8136865 8191257 8234141 8259704 8269329 8269700 
1968.602 8270106 8278717 8298069 8326068 8358223 8390956 8423960 8460009 
1972.459 8501972 8549921 8599228 8642524 8674162 8694376 8711650 8740014 
1976.317 8793265 8877329 8985730 9099774 9194118 9248778 9253077 9208874 
1980.174 9127554 9025749 8917675 8813923 8720102 8639212 8573307 8524780 
1984.032 8495214 8483625 8485078 8491126 8494370 8490146 8479165 8468050 
1987.889 8465380 8477780 8506196 8545731 8587906 8623866 8648811 8663142 
1991.747 8671660 8679671 8691672 8708101 8727404 8747519 8768007 8790086 
1995.604 8816189 8847502 8883213 8918656 8949604 8972841 8988097 8997975 
1999.461 9005451 9012386 9017291 9015599 9003015 8977747 8941791 8901949 
2003.319 8867014 8844357 8838574 8849970 8877362 8918758 8974973 9047467 
2007.176 9137333 9242008 9354428 9463355 9559404 9635519 9690573 9728624 
2011.034 9755326 9775422 9790875 9800331 9803652 9802771 9802940 9811345 
2014.891 9834290 9872557 9921132 9970900 10012230 10039628 10055429 10067569 
2018.749 10085848 10118066 10166126 10226099 10292051 10358285 10423646 
2022.124 10491156 10565330 10648889 10740718 10834808 10924194 11002385 
2025.499 11067028 11118286 11158808 11190223 11212900 11226500 11231907 
2028.874 11233777 11240645 11262850 11308283 11380114 11473491 11578765 
2032.250 11684303 11781389 11865965 11939217 12004408 12064431 12119045 
2035.625 12165588 12201165 12224202 12235755 12239265 12238244 12234665 
2039.000 12228496 12218817 12205356 12190430 12178469 12174653 12181808 
2042.375 12199086 12220794 12239641 12249012 12247139 12237562 12226860 
2045.750 12223759 12234767 12261283 12300411 12345986 12389556 12422387 
2049.126 12436095 12423241 12378680 12301025 12194383 12069371 11942180 
2052.501 11830009 11749660 11710138 11710751 11741728 11787313 11832425 
2055.876 11866102 11885307 11892867 11894774 11895762 11897022 11896000 
2059.251 11889598 11875466 11854694 11831677 11811214 11796812 11789015 
2062.627 11784283 11778086 11766274 11746834 11720282 11688728 11654453 
2066.002 11618377 11580739 11542083 11503533 11467946 11438553 11416986 
2069.377 11402529 11391712 11379943 11363685 11342462 11318893 11298930 
2072.752 11287776 11288354 11299713 11317499 11336578 11352325 11363175 
2076.128 11369876 11374807 11379637 11384297 11387324 11386610 11381678 
2079.503 11373617 11364875 11358515 11356134 11357427 11360181 11361373 
2082.878 11359535 11354740 11348720 11344027 11342360 11344027 11348073 
2086.253 11352631 11356543 11359876 11363107 11366848 11370420 11371542 
2089.629 11366882 11353618 11330524 11298284 11260776 11223100 11190596 
2093.004 11167987 11159012 11165540 11188081 11225446 11273867 11327463 
2096.379 11378140 11418006 11440118 11441376 11422632 11388958 11346918 
2099.754 11302637 11260436 11222556 11189032 11159828 11135861 11118490 
2103.130 11109380 11109007 11114921 11123045 11128791 11128552 11121788 
2106.505 11111046 11100168 11093031 11091263 11093336 11095104 11092487 
2109.880 11081609 11061657 11033686 11000448 10964325 10927354 10890421 
2113.255 10853764 10818128 10784261 10753284 10725672 10701288 10679213 
2116.631 10658907 10640400 10624509 10613373 10608382 10609943 10616395 
2120.006 10624679 10632149 10637345 10641385 10647396 10658941 10678195 
2123.381 10704582 10733891 10760723 10779540 10786572 10781204 10765206 
2126.756 10742382 10715959 10689571 10665732 10646954 10635918 10634798 
2130.132 10644951 10665732 10694869 10729034 10765241 10802468 10842417 
2133.507 10887329 10939383 10997355 11056287 11109244 11150105 11176011 
2136.882 11189474 11197124 11207562 11226058 11253770 11286960 11318655 
2140.257 11343244 11358855 11367529 11375011 11386883 11406577 11432668 
2143.633 11462094 11490128 11514625 11535516 11554741 11573559 11592105 
2147.008 11607896 11617901 11619977 11615076 11606432 11598366 11593943 
2150.383 11592717 11592717 11590268 11583700 11575567 11570258 11573627 
2153.758 11588940 11615348 11648463 11684847 11724844 11776452 11853911 
2157.134 11973242 12144530 12365009 12616878 12871419 13099472 13277150 
2160.509 13394993 13456438 13472912 13458591 13426705 13386552 13342918 
2163.884 13299322 13256892 13217130 13180104 13144584 13109307 13072427 
2167.259 13034457 12996799 12963138 12936784 12919204 12910159 12906848 
2170.635 12905790 12904732 12903025 12901318 12901284 12903161 12905926 
2174.010 12907633 12906916 12904254 12902035 12903161 12909135 12917737 
2177.385 12924427 12923300 12909476 12883979 12852750 12826368 12815175 
2180.760 12827256 12863467 12918761 12983314 13046203 13100121 13140657 
2184.135 13166716 13179899 13181539 13172898 13155616 13132665 13107805 
2187.511 13085812 13070310 13062593 13060271 13058973 13053852 13042721 
2190.886 13026604 13009705 12997892 12996082 13006461 13027595 13056652 
2194.261 13088988 13121396 13151928 13179080 13202033 13220068 13232262 
2197.636 13239060 13243399 13249377 13261982 13285042 13319172 13361437 
2201.012 13406953 13449774 13485626 13513688 13534949 13552930 13570535 
2204.387 13590124 13612483 13638604 13669514 13706273 13750492 13802034 
2207.762 13858406 13915503 13968195 14012234 14047038 14073938 14096905 
2211.137 14119734 14144175 14169985 14194531 14215278 14230890 14242326 
2214.513 14251913 14261500 14271943 14281051 14286324 14285297 14278415 
2217.888 14268553 14261945 14264239 14279955 14309199 14348753 14392454 
2221.263 14434207 14468805 14493813 14508784 14515019 14514402 14509743 
2224.638 14503885 14499946 14501075 14509195 14524270 14544176 14564973 
2228.014 14582106 14592488 14595538 14593894 14591015 14590844 14596224 
2231.389 14607394 14623295 14643240 14666785 14695608 14732078 14777806 
2234.764 14832350 14893176 14955726 15015266 15068502 15114129 15153069 
2238.139 15187209 15218333 15247502 15275610 15303101 15331624 15363753 
2241.515 15401514 15446352 15497684 15552490 15606273 15655871 15699018 
2244.890 15736535 15770927 15805494 15842674 15883056 15925365 15967404 
2248.265 16007693 16045270 16080683 16114965 16149491 16184535 16220512 
2251.640 16257592 16296359 16337711 16382748 16431576 16483093 16534651 
2255.016 16582876 16625185 16659992 16687881 16710538 16730648 16750000 
2258.391 16769458 16789088 16808168 16826664 16844574 16862072 16879468 
2261.766 16896142 16911160 16923356 16932486 16939444 16946922 16957532 
2265.141 16974174 16997912 17028408 17063732 17101056 17138416 17174402 
2268.517 17208632 17241382 17272930 17303168 17331892 17358962 17384758 
2271.892 17409970 17435698 17462464 17490888 17520590 17551536 17583624 
2275.267 17617920 17655638 17698016 17745714 17797802 17852624 17907624 
2278.642 17960698 18010602 18057366 18102100 18146180 18190854 18236394 
2282.018 18282494 18328284 18372598 18414250 18452174 18485538 18513094 
2285.393 18534534 18549748 18559570 18566070 18571430 18577896 18586922 
2288.768 18598612 18611926 18625622 18638178 18648694 18657582 18665710 
2292.143 18674012 18683766 18695182 18708464 18723720 18740602 18758800 
2295.519 18777966 18797410 18816026 18832946 18847410 18859696 18870872 
2298.894 18882638 18896758 18914374 18935556 18958710 18981970 19002704 
2302.269 19019148 19030192 19035972 19037288 19035280 19031160 19025552 
2305.644 19019182 19012156 19004538 18996266 18986678 18975220 18961062 
2309.020 18943618 18922542 18898626 18872670 18846476 18821944 18800836 
2312.395 18784194 18772810 18766480 18764022 18763470 18762710 18759042 
2315.770 18750218 18734998 18713030 18685392 18653986 18621126 18589518 
2319.145 18560850 18537058 18518800 18507010 18501962 18503068 18508912 
2322.521 18516344 18521048 18518488 18504554 18477412 18437620 18388602 
2325.896 18335336 18283116 18236740 18198904 18171056 18153124 18145350 
2329.271 18147840 18161762 18188574 18228690 18281594 18344806 18414770 
2332.646 18487648 18560054 18629946 18696808 18760980 18822876 18883780 
2336.021 18944034 19004366 19065536 19127964 19191854 19257276 19323298 
2339.397 19389330 19455268 19521840 19590918 19664722 19745300 19834076 
2342.772 19931268 20038230 20157784 20295908 20461898 20665340 20913030 
2346.147 21205184 21533398 21881058 22224638 22540780 22807806 23008402 
2349.522 23133878 23182490 23161138 23082228 22963754 22825302 22683368 
2352.898 22551320 22436794 22342178 22266838 22208354 22164346 22133140 
2356.273 22113336 22104376 22105806 22118078 22141230 22176098 22223278 
2359.648 22282218 22351528 22428838 22511710 22598438 22688986 22785596 
2363.023 22892252 23013574 23153868 23315988 23499960 23703712 23923312 
2366.399 24154336 24392108 24632746 24874220 25115582 25357322 25601342 
2369.774 25850318 26106966 26373660 26652284 26942932 27244500 27555208 
2373.149 27872852 28196000 28524196 28857600 29197000 29542838 29894594 
2376.524 30250330 30607530 30962928 31313342 31656452 31990450 32314070 
2379.900 32626428 32926928 33215120 33491190 33755832 34010280 34255916 
2383.275 34493832 34724376 34947144 35161188 35366024 35561828 35749836 
2386.650 35932352 36111632 36289900 36468136 36646372 36823528 36998448 
2390.025 37170152 37337992 37501844 37661828 37818356 37971764 38122800 
2393.401 38272444 38421956 38572676 38725228 38879968 39035960 39191864 
2396.776 39346012 39497124 39644412 39787536 39926960 40063056 40196612 
2400.151 40328392 40460208 40593412 40730404 40872832 41022004 41177964 
2403.526 41340180 41507960 41680472 41857980 42040704 42229172 42423088 
2406.902 42621036 42820720 43019624 43215792 43408940 43599980 43791064 
2410.277 43984100 44180492 44380012 44581392 44783672 44985712 45187736 
2413.652 45390444 45595016 45801892 46010820 46220988 46431700 46642520 
2417.027 46853988 47067044 47282600 47500964 47721548 47943276 48165192 
2420.403 48386816 48608552 48831476 49056444 49283716 49513040 49743304 
2423.778 49973432 50203416 50433560 50665096 50899064 51135764 51374388 
2427.153 51614036 51853104 52090892 52327532 52563704 52800344 53037824 
2430.528 53276032 53514672 53753476 53992564 54232464 54473656 54716072 
2433.904 54958700 55200032 55438492 55672900 55903700 56131832 56358240 
2437.279 56583820 56807704 57027964 57243384 57452860 57657480 57859620 
2440.654 58062612 58269340 58480636 58695604 58911320 59124828 59333240 
2444.029 59534872 59729636 59917796 60100140 60277304 60449672 60618372 
2447.405 60784660 60950056 61115744 61281576 61446364 61607816 61763444 
2450.780 61911940 62053420 62189672 62322976 62455448 62587344 62717640 
2454.155 62844180 62964932 63078636 63185580 63287452 63385980 63482724 
2457.530 63578644 63673512 63767440 63860244 63952252 64043864 64134992 
2460.906 64224876 64312280 64395436 64473452 64545648 64612120 64672948 
2464.281 64727864 64775752 64815408 64845988 64867416 64880884 64888732 
2467.656 64893120 64895308 64895540 64892696 64885268 64872228 64853184 
2471.031 64828792 64800328 64768440 64733556 64695328 64653836 64609156 
2474.406 64562252 64513892 64464612 64413996 64360120 64300716 64233944 
2477.782 64159424 64078576 63993492 63906960 63819520 63730644 63637144 
2481.157 63535496 63422784 63297616 63160552 63013888 62860304 62701976 
2484.532 62540316 62375380 62206916 62034388 61857304 61675212 61487968 
2487.907 61295236 61096716 60892984 60685008 60474084 60261964 60049344 
2491.283 59836560 59622432 59405944 59186488 58964336 58740512 58516840 
2494.658 58294120 58072044 57849096 57622784 57391028 57152708 56908472 
2498.033 56659924 56409512 56158796 55908636 55658884 55409240 55159064 
2501.408 54908916 54659028 54409844 54160988 53911004 53658276 53401984 
2504.784 53141724 52879340 52617376 52358592 52105272 51858332 51617468 
2508.159 51381844 51150676 50924248 50702816 50487488 50278184 50074964 
2511.534 49876488 49681560 49489648 49301236 49117548 48940496 48771752 
2514.909 48612256 48461712 48319260 48183664 48053848 47929472 47810056 
2518.285 47695952 47588056 47486696 47393156 47308720 47234204 47170044 
2521.660 47115456 47068116 47025060 46983520 46941436 46898652 46856576 
2525.035 46817636 46783684 46756012 46733572 46714132 46695460 46675500 
2528.410 46653288 46629684 46605664 46582060 46559188 46536172 46512200 
2531.786 46486572 46459100 46430632 46401760 46372932 46343988 46314132 
2535.161 46282580 46248960 46214172 46179824 46147508 46118544 46092864 
2538.536 46069396 46046552 46022240 45995972 45967096 45935824 45902900 
2541.911 45868280 45831828 45793200 45752116 45708900 45663880 45617464 
2545.287 45569956 45520904 45469724 45415388 45358188 45298456 45237376 
2548.662 45176744 45117960 45062052 45009380 44960284 44914788 44873232 
2552.037 44835724 44802148 44771880 44743744 44716308 44688540 44660596 
2555.412 44633092 44607604 44585688 44568320 44555360 44545596 44537444 
2558.788 44529072 44520004 44510056 44500220 44491700 44485648 44483404 
2562.163 44485572 44492768 44505064 44522388 44543720 44568280 44594276 
2565.538 44620460 44646344 44672200 44699268 44729676 44764860 44805820 
2568.913 44852512 44903584 44957600 45013200 45069840 45127224 45186228 
2572.289 45247268 45311108 45378272 45449124 45524400 45605136 45692444 
2575.664 45786800 45888940 45998220 46113720 46234036 46357668 46482920 
2579.039 46608208 46732172 46853216 46970932 47084952 47196196 47306428 
2582.414 47417804 47532128 47650064 47770960 47893064 48014176 48131912 
2585.790 48245496 48354704 48460380 48563456 48664884 48764780 48862956 
2589.165 48959448 49054440 49148192 49241484 49334792 49428048 49520692 
2592.540 49612020 49701544 49789568 49876748 49964324 50053144 50143500 
2595.915 50235072 50327256 50419344 50511164 50602660 50694400 50786348 
2599.291 50878536 50970448 51061896 51153096 51244992 51339368 51437828 
2602.666 51541500 51650644 51764668 51882380 52002660 52125032 52249456 
2606.041 52376496 52506380 52638992 52774000 52910664 53048868 53188988 
2609.416 53331960 53478504 53629256 53783512 53939668 54095948 54250704 
2612.792 54403308 54554420 54705324 54857784 55013192 55172004 55334040 
2616.167 55498312 55663820 55829540 55994644 56158496 56320556 56480336 
2619.542 56637952 56793468 56947532 57100892 57253820 57406720 57558844 
2622.917 57709584 57858596 58005996 58152724 58299804 58447808 58596844 
2626.292 58746088 58893788 59038500 59179616 59317588 59453588 59589440 
2629.668 59726024 59863596 60001520 60138344 60273196 60405840 60536696 
2633.043 60666760 60796896 60927184 61057208 61185740 61311796 61434760 
2636.418 61554472 61671088 61784872 61895628 62002704 62105752 62204620 
2639.793 62299652 62391980 62482840 62573032 62662744 62751404 62837860 
2643.169 62921076 63000672 63076564 63149400 63219456 63287184 63352660 
2646.544 63415960 63477544 63538180 63598744 63660392 63723588 63788012 
2649.919 63852756 63916864 63979440 64039992 64099088 64157308 64215696 
2653.294 64274704 64334832 64396048 64458736 64523116 64590008 64660028 
2656.670 64733668 64810560 64890652 64973116 65057704 65144428 65233552 
2660.045 65325664 65420880 65518960 65619304 65721212 65824188 65927952 
2663.420 66033056 66139580 66247516 66356860 66466896 66576884 66686972 
2666.795 66797516 66909872 67025572 67146024 67272080 67403712 67540104 
2670.171 67680176 67822888 67967200 68112368 68258320 68404984 68552752 
2673.546 68702272 68854368 69009856 69169328 69332704 69499064 69667224 
2676.921 69835264 70002232 70167248 70330888 70493376 70655968 70818920 
2680.296 70982496 71145776 71308256 71469584 71629568 71788480 71946584 
2683.672 72104128 72260272 72414440 72565736 72713392 72857408 72997800 
2687.047 73134584 73268080 73398240 73525344 73649576 73772240 73894808 
2690.422 74018872 74145920 74276304 74409800 74545648 74683120 74821856 
2693.797 74962216 75105056 75250704 75399352 75549952 75701264 75851768 
2697.173 76000312 76146736 76291352 76434744 76577368 76719472 76860440 
2700.548 76999872 77137568 77273728 77409016 77544144 77679680 77815688 
2703.923 77952136 78088672 78225408 78362736 78501216 78641576 78783648 
2707.298 78927040 79070752 79213952 79355736 79495656 79633344 79768144 
2710.674 79898872 80023872 80141128 80249168 80346872 80434552 80513072 
2714.049 80583472 80646984 80704520 80756504 80803320 80845704 80884736 
2717.424 80921744 80958312 80995208 81033424 81073032 81114128 81156384 
2720.799 81199680 81243392 81286568 81327968 81365736 81398584 81425672 
2724.175 81446784 81462568 81473800 81481112 81484392 81482832 81475720 
2727.550 81462408 81443024 81418400 81389712 81357736 81322656 81283976 
2730.925 81240632 81191896 81137696 81078264 81014696 80947544 80876880 
2734.300 80802080 80721992 80635568 80542072 80441968 80336144 80225176 
2737.676 80109768 79990008 79865064 79734576 79597968 79455472 79307488 
2741.051 79154480 78996584 78833904 78666160 78493120 78315512 78134080 
2744.426 77950160 77764880 77578768 77391752 77203544 77013608 76822120 
2747.801 76629808 76438072 76248344 76061616 75878760 75699728 75524360 
2751.177 75352368 75183720 75018008 74854528 74692176 74529400 74364456 
2754.552 74195672 74022016 73843280 73659856 73472488 73281456 73086912 
2757.927 72888328 72685072 72476224 72261248 72039976 71811696 71576664 
2761.302 71334688 71086336 70832344 70573976 70312888 70050976 69789584 
2764.677 69529736 69272224 69017856 68767640 68522688 68284920 68055704 
2768.053 67836560 67627672 67429136 67240440 67061068 66890888 66729860 
2771.428 66578276 66435932 66302048 66175268 66054008 65936476 65821336 
2774.803 65707608 65595032 65482980 65371036 65258540 65145120 65030188 
2778.178 64914124 64797364 64680600 64564408 64448588 64332836 64216124 
2781.554 64097860 63977860 63856444 63734404 63612284 63490548 63368684 
2784.929 63246212 63122272 62996112 62867692 62736512 62602728 62465852 
2788.304 62325388 62179996 62028728 61870676 61704928 61531224 61348928 
2791.679 61158276 60959168 60752304 60539024 60321164 60101052 59880980 
2795.055 59662880 59447812 59236536 59029088 58825528 58626352 58432340 
2798.430 58244180 58062348 57886876 57717340 57552716 57392352 57236164 
2801.805 57084604 56938392 56798300 56664416 56536112 56411852 56289624 
2805.180 56167808 56045120 55920960 55795516 55669472 55543308 55418012 
2808.556 55293880 55171516 55051252 54933508 54818576 54706528 54597552 
2811.931 54492060 54390612 54293772 54202916 54118992 54043072 53975868 
2815.306 53917980 53869516 53830620 53801556 53782504 53773388 53774180 
2818.681 53784228 53802828 53829308 53862952 53903240 53950092 54002396 
2822.057 54059468 54119216 54179232 54237232 54291108 54339280 54381528 
2825.432 54418180 54449656 54476924 54500100 54519408 54534620 54545896 
2828.807 54553068 54556864 54557540 54555812 54551904 54546044 54538684 
2832.182 54530492 54522376 54515504 54511032 54510468 54514640 54524968 
2835.558 54542024 54566708 54599656 54641140 54691156 54749712 54816956 
2838.933 54893764 54982128 55085444 55207748 55353984 55528736 55736408 
2842.308 55980924 56265332 56593180 56968008 57392464 57868292 58393908 
2845.683 58963652 59565272 60180132 60784808 61349880 61845652 62243780 
2849.059 62519728 62657192 62649004 62498680 62218272 61828496 61355452 
2852.434 60825592 60265468 59698652 59142824 58611788 58114164 57654980 
2855.809 57235864 56856764 56515432 56208912 55933584 55685820 55461756 
2859.184 55258732 55074688 54908128 54758768 54626108 54510168 54410632 
2862.560 54327076 54258668 54204532 54163540 54134944 54118088 54112948 
2865.935 54119892 54139256 54171240 54215532 54271020 54336052 54408380 
2869.310 54486164 54567536 54651172 54736292 54821656 54905644 54986300 
2872.685 55061036 55127576 55184612 55232432 55272620 55308180 55342544 
2876.061 55378676 55418768 55463904 55514280 55569968 55630864 55697156 
2879.436 55769368 55848156 55933396 56024948 56122032 56223920 56329232 
2882.811 56437168 56546452 56656260 56764996 56871984 56976052 57076824 
2886.186 57173720 57267052 57356164 57440268 57517992 57587708 57647224 
2889.562 57695128 57730552 57753560 57765028 57766540 57759844 57746900 
2892.937 57729000 57707620 57683704 57657592 57629404 57599096 57566220 
2896.312 57530248 57490568 57446396 57396020 57337220 57266632 57180524 
2899.687 57075384 56948476 56799132 56628700 56440300 56239004 56029624 
2903.063 55816880 55605108 55397532 55197552 55008980 54836168 54683788 
2906.438 54556600 54458784 54393428 54363088 54369548 54415176 54503372 
2909.813 54637872 54823460 55064120 55362456 55718096 56127648 56583332 
2913.188 57073004 57581772 58090528 58577852 59023016 59404236 59702716 
2916.563 59904672 60000648 59987524 59867780 59649308 59343380 58963580 
2919.939 58525336 58042468 57528132 56993468 56446636 55893748 55339380 
2923.314 54786584 54238208 53697004 53165992 52648008 52146108 51662660 
2926.689 51199808 50758900 50340836 49945920 49573840 49223408 48893212 
2930.064 48581312 48285856 48005368 47739336 47487472 47250388 47027976 
2933.440 46819852 46624848 46440960 46265808 46097248 45934020 45775348 
2936.815 45621368 45473256 45331892 45198804 45075172 44962672 44862616 
2940.190 44776100 44703856 44645536 44599856 44564832 44538032 44517140 
2943.565 44500364 44486452 44474888 44465200 44456796 44449012 44441012 
2946.941 44432644 44424052 44416752 44412788 44414620 44424492 44443688 
2950.316 44472392 44508844 44550404 44592920 44632208 44664268 44686040 
2953.691 44695852 44694012 44682372 44663860 44641832 44619100 44597360 
2957.066 44577020 44557784 44539132 44521072 44504328 44490492 44480944 
2960.442 44476544 44476724 44479808 44483404 44485168 44484068 44480468 
2963.817 44476544 44475404 44480288 44494272 44519604 44557452 44608524 
2967.192 44672968 44750280 44839764 44939776 45048448 45163508 45282828 
2970.567 45404648 45527968 45652028 45776340 45899952 46021576 46139732 
2973.943 46253052 46361172 46464560 46565164 46665428 46767816 46874292 
2977.318 46985956 47102864 47224748 47351140 47481928 47617824 47759748 
2980.693 47908976 48066692 48233796 48410596 48596656 48791136 48991900 
2984.068 49196172 49400500 49600428 49791608 49969716 50130968 50272492 
2987.444 50392328 50489240 50562640 50612040 50636908 50636388 50609212 
2990.819 50553704 50468544 50353076 50207992 50036072 49841924 49631744 
2994.194 49412344 49189860 48969424 48753508 48542780 48336556 48134464 
2997.569 47936244 47743292 47558484 47385284 47227628 47088164 46968348 
3000.945 46868384 46786968 46721844 46670924 46631968 46603268 46583460 
3004.320 46571732 46567524 46570588 46580584 46597404 46620788 46650376 
3007.695 46685684 46726304 46771620 46820624 46872520 46925600 46978356 
3011.070 47028936 47075648 47117412 47153496 47184080 47209088 47228700 
3014.446 47242628 47250348 47251348 47245548 47233096 47214920 47192352 
3017.821 47166240 47136876 47103860 47066120 47022880 46973628 46919104 
3021.196 46860560 46799628 46737412 46674172 46609060 46540380 46466180 
3024.571 46384988 46296328 46200424 46098168 45990560 45878704 45762904 
3027.947 45643488 45520536 45394492 45265692 45134428 45001296 44866288 
3031.322 44729932 44592256 44453604 44314656 44175608 44036464 43896808 
3034.697 43755844 43612544 43466032 43316276 43163824 43010144 42856888 
3038.072 42705440 42556932 42411396 42267844 42124960 41980376 41831860 
3041.448 41677336 41515032 41343860 41164088 40976488 40783360 40587044 
3044.823 40390168 40195012 40003068 39815100 39631052 39451008 39274732 
3048.198 39102452 38934728 38771816 38614104 38461412 38313480 38169864 
3051.573 38030132 37893988 37761464 37632304 37506220 37382480 37260112 
3054.948 37137996 37015624 36892528 36769144 36646088 36524248 36404212 
3058.324 36286476 36171408 36058956 35949304 35842528 35738868 35638720 
3061.699 35541868 35448460 35357544 35268984 35182280 35097168 35013692 
3065.074 34932348 34853464 34777428 34704064 34632716 34562352 34491608 
3068.449 34419188 34344196 34266204 34185968 34103992 34021316 33938656 
3071.825 33856300 33773740 33690480 33605808 33519502 33431854 33343688 
3075.200 33255752 33168658 33082764 32997672 32913026 32828682 32744530 
3078.575 32661180 32579138 32499180 32421588 32346122 32272346 32199722 
3081.950 32127894 32057044 31987206 31918586 31851120 31784202 31717184 
3085.326 31649288 31580332 31510816 31441384 31372924 31305794 31239954 
3088.701 31174766 31109480 31043778 30977836 30912864 30850394 30791772 
3092.076 30738032 30688992 30643976 30601806 30561456 30522566 30485102 
3095.451 30449382 30415940 30384420 30354500 30325220 30295874 30265640 
3098.827 30234594 30203050 30171510 30140858 30111524 30083860 30057974 
3102.202 30033864 30011638 29991046 29971944 29953874 29936232 29918412 
3105.577 29899492 29879082 29856970 29833122 29807994 29782088 29756044 
3108.952 29730530 29705836 29682208 29659644 29637898 29616686 29595580 
3112.328 29574580 29553798 29533438 29513826 29495386 29478010 29461130 
3115.703 29444324 29426702 29407448 29386034 29362068 29335090 29305100 
3119.078 29272100 29236304 29198312 29159296 29120746 29084180 29050912 
3122.453 29021264 28994944 28970682 28946772 28921698 28894640 28865424 
3125.829 28834866 28804168 28774676 28747170 28721894 28698672 28676726 
3129.204 28655594 28634606 28613762 28592952 28572250 28552114 28532690 
3132.579 28514396 28497766 28483190 28471302 28462208 28455842 28451702 
3135.954 28448944 28446288 28442716 28436878 28428142 28415972 28400408 
3139.330 28382050 28361358 28339428 28317148 28295468 28274992 28256108 
3142.705 28239630 28225734 28214880 28206960 28201904 28199216 28197696 
3146.080 28196352 28193702 28188998 28181644 28171992 28160608 28148836 
3149.455 28137770 28128508 28121580 28117302 28115182 28114508 28113944 
3152.831 28112566 28109244 28103444 28095138 28085206 28074990 28066082 
3156.206 28059934 28057210 28058130 28061912 28067496 28073436 28079020 
3159.581 28083616 28087360 28090400 28092734 28094820 28096622 28098248 
3162.956 28100228 28103304 28108288 28116134 28127236 28141482 28158346 
3166.332 28177082 28196564 28216154 28235352 28253776 28271210 28287688 
3169.707 28303426 28318632 28334230 28351242 28370908 28394112 28421314 
3173.082 28451984 28485064 28518818 28551548 28581946 28609232 28633296 
3176.457 28654426 28673504 28691274 28708476 28725998 28744442 28764340 
3179.833 28786040 28809622 28834866 28861176 28887948 28914580 28940470 
3183.208 28965260 28988780 29010670 29030686 29048468 29063880 29076846 
3186.583 29087580 29096688 29104800 29112488 29120602 29129106 29138320 
3189.958 29148346 29159260 29170884 29182966 29195158 29207066 29218300 
3193.333 29228578 29237968 29246724 29255654 29265260 29276318 29289328 
3196.709 29304214 29321194 29339698 29359230 29379226 29398974 29417446 
3200.084 29434288 29449324 29462620 29474748 29486520 29498506 29511238 
3203.459 29524502 29538228 29552130 29566318 29581354 29598204 29618138 
3206.834 29641446 29668088 29697286 29727656 29757924 29787164 29814952 
3210.210 29841568 29867546 29892678 29916850 29939746 29960904 29980572 
3213.585 29999600 30019378 30042136 30069478 30102326 30140894 30184082 
3216.960 30230436 30278252 30326216 30373224 30418996 30463278 30506428 
3220.335 30549264 30592562 30637076 30683622 30732200 30782062 30832038 
3223.711 30880382 30925316 30965844 31002104 31034844 31065986 31097378 
3227.086 31130696 31166898 31206166 31248392 31292830 31338840 31385676 
3230.461 31432264 31477578 31520438 31559524 31593836 31623486 31649108 
3233.836 31672452 31695266 31719502 31746342 31776074 31808052 31840674 
3237.212 31872552 31902290 31929142 31953000 31974472 31994834 32015308 
3240.587 32037388 32061432 32087866 32116014 32144948 32173708 32201148 
3243.962 32226664 32250110 32271844 32292116 32311354 32330058 32348264 
3247.337 32366290 32384566 32403524 32423768 32445726 32469504 32494928 
3250.713 32521568 32548532 32575638 32602426 32628678 32654610 32680008 
3254.088 32704766 32728740 32751892 32774438 32796912 32820102 32844656 
3257.463 32870956 32898798 32927644 32956596 32985088 33012580 33039500 
3260.838 33065994 33092346 33118736 33144664 33169304 33192086 33212688 
3264.214 33231002 33248096 33264838 33282224 33301008 33321470 33343616 
3267.589 33367086 33391740 33417218 33443626 33470720 33497776 33524082 
3270.964 33548492 33570044 33587940 33601972 33612860 33621344 33628824 
3274.339 33636916 33646368 33657896 33671648 33687152 33703836 33720916 
3277.715 33737676 33753756 33768688 33782656 33795620 33808048 33820228 
3281.090 33832444 33844976 33858340 33872740 33888392 33905268 33922784 
3284.465 33940304 33956536 33970328 33980752 33987524 33991216 33993116 
3287.840 33995444 34000568 34010172 34025548 34046652 34072420 34100768 
3291.216 34129228 34155464 34177940 34195760 34209164 34219308 34227628 
3294.591 34235980 34245768 34258064 34273268 34291340 34311848 34334224 
3297.966 34358036 34382852 34408424 34434608 34461260 34488668 34516360 
3301.341 34544772 34573584 34603148 34633436 34664548 34696528 34729224 
3304.717 34762352 34795628 34828584 34860788 34891988 34922044 34950916 
3308.092 34978928 35006832 35035564 35065844 35098712 35134604 35173764 
3311.467 35215872 35260468 35306864 35354564 35403160 35452952 35504292 
3314.842 35558052 35614768 35674904 35738612 35805140 35873544 35942756 
3318.218 36011792 36080520 36148828 36217792 36288640 36362456 36440316 
3321.593 36522372 36608196 36696992 36787752 36879256 36970704 37061304 
3324.968 37150448 37237440 37321780 37402844 37480716 37555924 37629668 
3328.343 37703712 37779680 37858740 37941388 38027312 38115384 38204164 
3331.719 38292164 38378264 38461520 38541032 38616060 38685636 38749604 
3335.094 38808152 38862252 38913632 38964372 39015988 39069092 39123372 
3338.469 39177288 39229216 39277744 39322216 39363204 39401952 39439832 
3341.844 39477384 39514836 39551204 39585388 39616316 39643252 39666228 
3345.219 39685728 39702208 39716436 39728892 39739784 39749520 39758416 
3348.595 39766548 39773772 39779656 39783140 39782992 39778240 39768288 
3351.970 39753220 39733396 39709832 39683292 39654720 39624520 39593300 
3355.345 39561656 39530224 39499344 39469296 39439616 39409752 39378808 
3358.720 39345832 39310608 39273468 39235020 39196144 39157200 39118040 
3362.096 39077980 39036036 38991416 38943640 38893052 38840000 38785072 
3365.471 38728708 38671256 38612224 38551604 38489252 38425248 38359588 
3368.846 38292056 38222252 38149244 38072376 37990896 37904760 37814888 
3372.221 37722176 37628292 37533708 37439108 37344020 37247584 37149004 
3375.597 37048028 36945160 36841312 36737952 36635992 36535964 36437580 
3378.972 36339468 36240520 36139284 36034872 35927208 35816332 35702712 
3382.347 35586824 35468520 35347728 35224460 35099108 34972464 34846424 
3385.722 34722688 34603116 34488808 34380272 34276600 34176328 34077760 
3389.098 33978964 33878900 33776496 33671756 33564460 33454936 33343400 
3392.473 33230108 33115018 32998636 32881144 32762826 32644146 32525640 
3395.848 32407522 32290440 32175030 32061540 31950540 31842134 31736254 
3399.223 31632252 31529128 31426032 31321890 31215886 31107594 30996730 
3402.599 30883762 30769188 30653932 30539096 30425892 30315096 30207064 
3405.974 30101546 29997932 29894912 29791102 29685366 29576816 29465316 
3409.349 29351114 29235028 29117874 29000434 28883272 28766498 28649790 
3412.724 28532724 28414662 28295114 28174184 28052404 27931010 27811560 
3416.100 27695178 27582890 27474122 27367360 27260588 27151266 27037284 
3419.475 26918184 26794712 26668950 26543998 26422636 26306980 26197758 
3422.850 26094512 25995544 25898816 25801758 25702822 25601062 25496164 
3426.225 25388656 25279840 25170422 25061626 24953804 24846888 24740348 
3429.601 24633658 24526398 24418606 24310664 24203100 24096436 23990362 
3432.976 23884312 23777026 23667390 23554632 23438966 23321864 23204862 
3436.351 23090336 22979720 22873672 22771874 22672858 22574494 22474826 
3439.726 22371762 22264152 22152282 22037060 21920610 21805728 21695160 
3443.102 21590714 21492732 21399578 21307834 21213536 21113066 21004552 
3446.477 20888416 20767410 20645882 20528208 20417166 20313754 20216096 
3449.852 20121342 20026328 19928216 19826168 19720228 19612132 19503542 
3453.227 19396156 19290944 19188216 19087904 18989238 18891532 18794054 
3456.603 18696184 18597160 18496810 18394720 18290994 18185912 18079370 
3459.978 17971956 17863982 17755964 17648666 17543084 17440184 17340480 
3463.353 17244210 17151066 17060112 16970418 16881466 16792842 16704891 
3466.728 16617438 16530555 16443482 16355326 16264917 16171707 16075801 
3470.104 15978061 15879722 15782541 15687408 15594940 15505238 15418164 
3473.479 15333752 15252238 15173416 15096941 15021817 14946192 14868454 
3476.854 14786787 14700714 14610821 14518000 14424205 14330705 14238525 
3480.229 14147803 14058640 13971138 13885397 13802137 13721799 13644588 
3483.604 13569544 13495401 13420247 13342371 13260854 13175391 13086974 
3486.980 12997038 12907394 12819952 12735941 12656346 12581575 12511523 
3490.355 12445642 12382873 12322295 12262749 12203618 12144224 12084327 
3493.730 12023654 11961696 11897941 11832017 11764026 11694617 11624945 
3497.105 11556748 11490978 11428416 11368719 11310459 11252411 11193180 
3500.481 11132156 11069543 11005817 10941286 10875778 10808582 10738782 
3503.856 10665766 10590387 10514171 10439870 10370060 10306709 10250355 
3507.231 10200047 10153780 10109384 10064891 10019588 9973307 9927234 
3510.606 9882522 9840052 9800229 9763189 9728014 9693895 9659810 9624747 
3514.464 9587619 9547786 9504806 9458309 9408431 9355884 9301312 9246036 
3518.321 9191377 9138586 9088879 9042460 8999396 8958601 8918893 8878512 
3522.179 8836478 8791946 8744984 8695965 8645127 8592672 8537453 8478557 
3526.036 8414265 8344206 8269295 8191122 8112997 8038465 7969512 7908298 
3529.894 7854482 7807183 7764240 7723696 7683258 7641103 7595412 7544837 
3533.751 7488503 7426515 7359951 7290669 7221397 7154023 7090095 7030116 
3537.608 6973412 6918869 6865242 6812262 6759927 6708843 6659549 6612581 
3541.466 6567638 6524313 6481732 6439728 6397256 6353814 6308628 6260724 
3545.323 6209531 6154580 6096780 6037879 5979792 5924904 5874724 5829991 
3549.181 5789930 5752827 5716768 5679571 5638953 5593673 5543029 5487491 
3553.038 5428907 5369929 5314011 5264707 5224563 5194048 5172017 5155151 
3556.896 5139393 5120584 5095607 5063324 5024171 4980028 4933074 4886125 
3560.753 4841159 4800385 4765209 4737304 4717575 4705349 4699353 4695837 
3564.610 4690109 4677080 4652062 4612411 4557829 4491369 4418158 4343854 
3568.468 4273445 4210408 4156345 4111119 4073959 4043122 4017238 3994631 
3572.325 3974367 3955809 3938489 3922273 3907127 3892484 3877941 3862429 
3576.183 3845112 3825223 3802493 3776589 3747579 3715696 3681443 3645455 
3580.040 3609638 3575894 3547131 3525785 3513459 3510821 3516733 3529159 
3583.897 3545294 3562264 3576763 3585082 3583344 3567576 3534771 3484466 
3587.755 3419874 3348112 3278565 3220011 3178788 3156559 3151052 3156860 
3591.612 3167607 3177286 3181659 3178888 3168875 3152287 3130294 3103962 
3595.470 3074196 3042563 3011566 2983340 2960321 2943241 2931265 2921958 
3599.327 2912651 2901343 2888101 2874259 2862819 2856482 2856715 2863986 
3603.185 2877361 2895973 2918956 2945476 2974599 3003725 3029583 3047401 
3607.042 3053374 3045633 3025346 2997887 2969729 2947311 2933967 2929263 
3610.899 2930764 2934734 2938137 2940405 2943341 2949479 2961555 2980505 
3614.757 3006328 3037525 3072227 3108234 3143510 3175117 3199316 3212234 
3618.614 3211132 3195310 3168208 3136601 3108367 3090547 3087644 3100392 
3622.472 3127890 3167907 3218910 3280701 3353955 3439478 3536575 3641680 
3626.329 3748815 3849124 3932370 3990151 4018709 4022655 4013994 4009847 
3630.187 4024829 4066668 4136675 4230650 4341779 4462210 4585521 4707124 
3634.044 4825579 4942357 5061044 5185530 5318204 5459406 5607334 5759710 
3637.901 5913886 6068992 6225161 6383302 6544024 6706858 6870426 7032979 
3641.759 7194615 7356918 7522721 7696175 7879787 8073299 8273145 8472509 
3645.616 8663244 8836951 8986068 9104782 9189279 9237371 9248643 9226067 
3649.474 9176994 9113106 9050276 9004233 8985797 8998821 9039450 9097339 
3653.331 9157874 9205828 9227286 9211582 9153948 9058226 8936514 8805674 
3657.188 8683018 8581283 8504878 8451663 8413048 8379267 8339477 8286519 
3661.046 8217291 8132949 8038430 7939310 7840244 7744001 7651489 7563818 
3664.903 7482739 7412190 7356109 7317086 7294173 7282279 7275169 7269913 
3668.761 7274765 7311324 7417110 7636921 8006535 8548806 9271998 10178405 
3672.618 11272644 12560496 14036258 15648624 17269586 18691480 19646346 
3675.993 19916176 19418158 18218530 16485399 14418143 12215818 10043561 
3679.369 8040895 6317033 4927813 3880013 3133130 2621976 2274067 2029289 
3683.226 1850463 1716816 1619526 1552550 1507661 1473482 1438441 1392866 
3687.083 1331874 1255538 1167488 1072546 974936 877878 784593 698828 624760 
3691.423 565535 522009 492153 472118 457556 446047 437324 432614 433675 
3695.763 440342 450193 459414 463825 461271 452448 439115 423659 406612 
3700.102 386183 358592 321088 273607 219866 167093 122646 92254 77573 77474 
3704.924 88344 107500 132622 163613 200805 243537 289588 334915 373946 
3709.264 401438 413610 409000 387907 353186 309018 260180 212805 172728 
3713.603 143792 128181 124833 130203 139317 146841 149095 145416 138025 
3717.943 130600 127087 129739 137760 148134 157249 162387 162751 159834 
3722.282 155161 150322 144952 137130 123872 103456 75552 42446 8184 -22099 
3727.104 -43535 -52613 -47379 -27699 4970 47748 95999 144819 188242 221524 
3731.926 242708 252720 254079 249571 240122 223281 196463 157812 109753 
3736.266 59910 18688 -5235 -7554 9940 41817 81384 123740 166464 210750 
3741.087 258257 308720 357398 394772 407905 385420 325896 242376 160995 
3745.427 107732 96497 126391 185888 258688 328084 381275 410426 413709 
3749.767 394739 359686 314920 264921 213004 163315 121386 93182 83306 92122 
3754.588 116680 150487 186286 217281 238464 248045 246355 234983 215855 
3758.928 190661 160332 127319 95337 68924 52852 50366 61633 84102 113333 
3763.750 144223 172530 195501 212905 226132 236873 246620 254577 259318 
3768.089 258356 249604 232961 209855 184231 160464 142201 131429 127883 
3772.429 129175 131860 132722 129109 120458 107533 92884 79462 69520 64284 
3777.251 62760 63356 63688 62362 59612 56861 56364 60009 68195 79628 92354 
3782.555 103622 111642 116150 117674 118072 119298 122778 128976 137064 
3786.894 145747 153404 158376 159834 156984 150520 141140 130037 119000 
3791.234 109753 102926 99214 98154 98485 98750 97789 94906 90929 87416 87250 
3796.538 93613 108892 134279 168817 209855 252223 289389 314290 320856 
3800.877 306432 274701 235613 201203 181877 182109 199579 227557 255505 
3805.217 273375 272911 250996 210385 159868 111543 74392 53481 48245 55072 
3810.039 69951 89206 111609 137826 168850 205545 246951 290417 331168 363798 
3814.861 383828 389764 385022 377428 376068 389035 419082 463660 515142 
3819.200 563246 596026 603591 581626 534283 474141 416495 373979 351926 
3823.540 348444 356635 368010 375670 375770 368242 357099 347947 345460 
3827.879 351926 366219 384790 403329 417689 425782 427838 426213 424853 
3832.219 427506 437622 456561 483761 516900 552231 584811 609762 622836 
3836.559 621243 605183 577512 543771 510398 482467 462963 451619 446279 
3840.898 442929 437888 427871 410758 386116 355143 320856 287234 258721 
3845.238 239625 232696 239359 259185 290981 333058 383762 442996 510663 
3849.577 586835 670089 756180 836843 899758 929409 911180 838570 719438 
3853.917 576119 436727 324337 249140 210286 200242 209755 230077 254709 
3858.257 279575 302320 321684 337336 349174 357663 363466 367811 371691 
3862.596 375438 378754 380877 380711 378887 377560 379948 390262 410393 
3866.936 440110 475103 509137 533918 542477 531828 505322 472018 442564 
3871.275 425384 422565 430790 442564 449297 445019 427705 400311 370265 
3875.615 345891 333821 336606 353087 378887 407905 433410 450094 454870 
3879.955 448435 434505 419646 411023 413411 428800 454903 486149 514445 
3884.294 530966 529804 509635 476032 439480 412648 404589 418419 450724 
3888.634 493778 537402 571109 587466 583186 560392 525558 487211 453145 
3892.973 428137 414339 411156 417988 433344 456528 486945 523468 563942 
3897.313 605714 645400 679646 706030 723321 732183 734008 730955 724549 
3901.653 715522 703408 686748 664647 637071 604885 570611 537999 509535 
3905.992 487642 473213 465318 462631 463394 465948 469265 473279 477956 
3910.332 484092 492584 504195 519686 539160 562682 589158 616896 643177 
3914.671 664779 679149 684326 680476 669624 655289 641816 632060 628112 
3919.011 629505 635345 643873 653994 665310 677755 690764 703375 713464 
3923.351 718708 717414 709249 695244 678883 663850 652833 647557 647889 
3927.690 652567 659802 668098 676626 685056 693518 701649 708519 713199 
3932.030 714593 712502 707357 700222 692489 685487 679480 674868 671350 
3936.369 668961 667700 668164 670421 674536 680144 686450 691826 695377 
3940.709 695609 691793 683961 672379 658441 644205 632193 624528 622869 
3945.049 627913 638763 653397 669060 682932 693054 698330 699094 696372 
3949.388 691726 686582 681870 678186 675830 675000 676129 678883 682865 
3953.728 687279 690764 692158 690731 686118 679082 670885 662788 656218 
3958.067 651970 650576 651738 655388 660299 665509 670255 673640 675399 
3962.407 676095 676759 679049 684126 692622 703906 717281 730822 743468 
3966.747 754852 765507 776328 788443 801688 815464 827913 837341 842587 
3971.086 843417 840827 836047 830635 825523 820577 815099 808427 800161 
3975.426 790601 780908 772112 765540 761889 761457 764246 769921 777987 
3979.765 787879 798435 808825 817821 824627 829075 831200 831598 830436 
3984.105 827681 823166 816527 807497 797140 786883 778618 774535 775398 
3988.445 780709 789406 799099 808095 815464 821307 826486 832395 839798 
3992.784 848994 859419 870242 880534 889864 898098 905104 910881 915297 
3997.124 917754 917987 916194 912143 906598 900057 892852 885514 
##END=
