
##TITLE=Z345_3_c
##JCAMP-DX=5.01  $$ Nicolet v. 1
##DATATYPE=INFRARED SPECTRUM
##ORIGIN=UniL
##OWNER=Nicolet
##LONGDATE=2011/09/14
##TIME=10:26:33
##SPECTROMETER/DATA SYSTEM=Nicolet iS5
##DATA PROCESSING=
Ratio against background
%Transmittance->Absorbance
Truncated
ElementMultiply or ElementDivide
##COMMENTS=
Number of sample scans: 32
Collection length: 51.21 sec
Sample gain: 2.0
Background collected on: Mer Sep 14 10:08:15 2011 (GMT+02:00);
Number of background scans: 32
Background gain: 2.0
Sample spacing:  1.000
Number of scan points: 12415
Resolution points: 8192
Number of FFT points: 65536
Apodization: N-B fort;
Phase correction: Mertz;
Laser frequency: 15798.0 cm-1
Number of rejected sample scans: 0
Number of rejected background scans: 0
Bench serial number: ASB1000141;
##RESOLUTION=4.000
##XUNITS=1/CM
##YUNITS=ABSORBANCE
##FIRSTX=649.893372
##LASTX=4000.122314
##FIRSTY=0.109403
##MAXX=4000.122314
##MINX=649.893372
##MAXY=0.484699
##MINY=-0.001058
##XFACTOR=1.000000
##YFACTOR=1.000000E-009
##NPOINTS=6950
##DELTAX=0.482117
##ZPD=6100
##XYDATA=(X++(Y..Y))
649.893 109402576 109465072 109642624 109946784 110351832 110808400 
652.786 111263736 111695128 112122448 112602608 113202136 113972880 
655.679 114931592 116059720 117323744 118697432 120177280 121780288 
658.571 123525248 125411304 127409728 129474536 131570232 133694720 
661.464 135890208 138220032 140743680 143475488 146373056 149346560 
664.357 152300272 155162896 157888640 160452768 162807936 164839168 
667.250 166361616 167169952 167147408 166341008 164917056 163049120 
670.142 160839744 158314832 155463520 152285456 148829248 145201488 
673.035 141531616 137951232 134544192 131338344 128324376 125482736 
675.928 122808944 120320680 118045432 116001632 114184400 112563152 
678.820 111093352 109731000 108448880 107237624 106099736 105037752 
681.713 104046208 103111288 102217040 101355168 100531168 99762216 99070168 
685.088 98469696 97961296 97531800 97161112 96831448 96531288 96257272 
688.463 96005856 95766368 95517512 95228736 94867352 94411944 93856080 
691.838 93210696 92496280 91733928 90938792 90118032 89275664 88419664 
695.212 87564280 86731424 85942392 85209912 84535176 83908552 83317064 
698.587 82751080 82210416 81702896 81238992 80823712 80453776 80117496 
701.962 79802152 79500752 79216624 78961288 78749128 78588760 78476440 
705.337 78397256 78330152 78258088 78173192 78081056 77995432 77935288 
708.712 77918080 77957768 78069192 78268368 78571408 78989472 79516904 
712.086 80122040 80739072 81279824 81645112 81745256 81529040 80991656 
715.461 80177512 79163496 78044920 76915856 75849640 74901928 74106656 
718.836 73478216 73017560 72713976 72551048 72508328 72567144 72713704 
722.211 72936496 73222976 73552936 73888056 74173904 74342128 74319040 
725.586 74048928 73504664 72697912 71675488 70511808 69293680 68097752 
728.961 66989652 66012652 65187240 64515972 63986576 63577800 63262880 
732.335 63014692 62811056 62634072 62474580 62329136 62198428 62084844 
735.710 61989172 61910680 61848060 61800268 61766804 61748660 61745644 
739.085 61755688 61774404 61795644 61814744 61829684 61843436 61861928 
742.460 61891960 61937736 62000024 62075516 62158700 62244924 62331052 
745.835 62414780 62493788 62564268 62620336 62656700 62670672 62664620 
749.209 62645672 62624200 62610880 62611720 62628752 62660948 62706880 
752.584 62767944 62849036 62955624 63091620 63256024 63442340 63640944 
755.959 63842700 64043292 64243048 64446592 64658104 64880000 65112128 
759.334 65353780 65608128 65884068 66196336 66562980 66998512 67512312 
762.709 68106976 68782040 69538104 70383560 71336488 72428968 73709528 
766.083 75241280 77111368 79422728 82275120 85745688 89838984 94451360 
769.458 99321936 104052696 108149128 111074304 112413016 111956648 109772984 
772.833 106181224 101682048 96842256 92132168 87899720 84324416 81432712 
776.208 79153880 77369696 75966808 74848584 73948584 73223248 72637632 
779.583 72163240 71777888 71466848 71226608 71061664 70979256 70983160 
782.958 71070064 71231184 71456656 71740320 72081592 72483536 72948768 
786.332 73475504 74057344 74685840 75356672 76072864 76846168 77693384 
789.707 78629904 79666824 80809872 82062976 83435056 84944592 86620176 
793.082 88498624 90613400 92988144 95628416 98519288 101625184 104889816 
796.457 108245752 111612560 114903096 118039392 120957016 123618296 
799.350 126017336 128174616 130123048 131889432 133486240 134911232 
802.242 136161776 137258368 138264800 139291824 140502032 142073936 
805.135 144174352 146940704 150446720 154698320 159624256 165086048 
808.028 170868416 176672576 182155600 186915648 190536464 192668480 
810.920 193041968 191525824 188138672 183033280 176468272 168755808 
813.813 160256400 151327728 142291792 133444608 125013664 117155336 
816.706 109970688 103498112 97733800 92645336 88184240 84295240 80920072 
820.081 78003960 75492424 73331984 71475016 69878000 68504648 67328608 
823.455 66329844 65493384 64806716 64255880 63826656 63504928 63277944 
826.830 63136488 63073688 63083344 63157836 63286224 63454004 63645004 
830.205 63842700 64030812 64194992 64321576 64397776 64414724 64369648 
833.580 64270436 64135148 63992260 63874640 63810276 63819096 63907340 
836.955 64068860 64287924 64545684 64825140 65111512 65393604 65662740 
840.329 65910100 66128464 66313632 66464932 66586152 66682884 66759072 
843.704 66814564 66844084 66839756 66794740 66707640 66584064 66435584 
847.079 66277080 66122756 65982684 65863668 65769748 65704488 65673032 
850.454 65681084 65734052 65834792 65982988 66175616 66409288 66682264 
853.829 66994876 67348760 67744840 68180712 68650920 69148656 69668312 
857.204 70208688 70773720 71371872 72012448 72702616 73446000 74243320 
860.578 75094928 76003160 76974040 78015416 79136384 80342728 81637080 
863.953 83019560 84491296 86056256 87724712 89510504 91431584 93508488 
867.328 95762896 98220696 100911472 103863224 107096656 110609512 114365112 
870.703 118274832 122196184 125951440 129325272 132105768 134115544 
873.596 135216624 135340768 134490816 132742272 130230768 127137544 
876.488 123679480 120064784 116485200 113102344 110025200 107323568 
879.381 105031288 103153520 101679496 100588224 99855240 99450856 99341808 
882.756 99493352 99866416 100422392 101125880 101941376 102836192 103778592 
886.131 104734432 105671848 106563592 107389752 108141224 108818904 
889.023 109430200 109984344 110489624 110952544 111379424 111780416 
891.916 112171640 112572552 113004856 113485224 114019672 114600848 
894.809 115207200 115808056 116363256 116830696 117171696 117351136 
897.701 117346224 117150952 116780400 116271176 115677728 115068296 
900.594 114507760 114053704 113750016 113623104 113688024 113953112 
903.487 114424096 115107424 116009336 117133344 118479312 120042200 
906.379 121815384 123792616 125970560 128348544 130925344 133695128 
909.272 136645952 139757472 143006016 146367952 149821344 153347488 
912.165 156926624 160532800 164133792 167690960 171163456 174517408 
915.058 177726768 180772608 183638528 186301216 188725488 190866512 
917.950 192669776 194081472 195057696 195563424 195577808 195093744 
920.843 194119968 192684448 190837664 188657744 186239904 183690416 
923.736 181121616 178632352 176312544 174244944 172498976 171140400 
926.628 170223824 169779024 169799728 170225536 170941984 171768928 
929.521 172483824 172863440 172693328 171822432 170188272 167824320 
932.414 164859568 161492224 157976544 154563648 151475072 148887328 
935.306 146901344 145551664 144815344 144631216 144915696 145579040 
938.199 146543296 147736848 149094128 150554736 152047312 153489904 
941.092 154794336 155860064 156589104 156899232 156728208 156052464 
943.985 154893248 153323072 151455472 149429424 147398304 145493216 
946.877 143813648 142422576 141341040 140562752 140063936 139817312 
949.770 139795552 139974432 140332048 140844640 141487040 142236784 
952.663 143074144 143987328 144971856 146026736 147151104 148340256 
955.555 149585520 150876896 152207216 153573952 154979728 156429232 
958.448 157924064 159460624 161029968 162621040 164226240 165844032 
961.341 167479344 169139264 170828048 172543488 174277056 176016784 
964.233 177754080 179486624 181219776 182962128 184720544 186496432 
967.126 188284736 190078592 191872800 193668768 195472000 197289104 
970.019 199120976 200959552 202788096 204588016 206344832 208054512 
972.912 209723776 211367776 213004176 214648016 216312784 218014160 
975.804 219771536 221613392 223572096 225676320 227945792 230385136 
978.697 232986176 235733408 238612656 241615936 244739312 247977456 
981.590 251313536 254711008 258116512 261462096 264672096 267678768 
984.482 270419136 272837920 274891488 276547072 277794336 278654112 
987.375 279188928 279500256 279706560 279937952 280303744 280878688 
990.268 281707552 282806912 284177184 285813632 287709408 289853056 
993.160 292222336 294785344 297502080 300333472 303254656 306257376 
996.053 309347776 312536896 315829184 319215552 322677056 326192480 
998.946 329751040 333358240 337033920 340800896 344671776 348642400 
1001.839 352693888 356803360 360956224 365153952 369411136 373745248 
1004.731 378163264 382654752 387195424 391761280 396341696 400946528 
1007.624 405600256 410327072 415133504 419999232 424879360 429720352 
1010.517 434480960 439138528 443688416 448128384 452441056 456585952 
1013.409 460507904 464150176 467479040 470491008 473207200 475652160 
1016.302 477835424 479741536 481339616 482602048 483526944 484144352 
1019.195 484510080 484683104 484698944 484562944 484252864 483739232 
1022.087 483000160 482029440 480827616 479381600 477647648 475551616 
1024.980 472993344 469878688 466141440 461747680 456696256 451001024 
1027.873 444678912 437749952 430249600 422249632 413862720 405245952 
1030.766 396586336 388059712 379829600 372031328 364763296 358109568 
1033.659 352137344 346890368 342388064 338608352 335485312 332907072 
1036.552 330736640 328837184 327079520 325368288 323638912 321847904 
1039.446 319968192 317981504 315878592 313663232 311354432 308982400 
1042.339 306576992 304158112 301727904 299272960 296774016 294221120 
1045.232 291623136 289011136 286430080 283923200 281525344 279255104 
1048.125 277117952 275116544 273256384 271547936 270003232 268627232 
1051.018 267412448 266337280 265374688 264500016 263698784 262968720 
1053.911 262313600 261732928 261214048 260727760 260233168 259688880 
1056.804 259057456 258310912 257429152 256392032 255176848 253760912 
1059.697 252127024 250275008 248227648 246032976 243752832 241452464 
1062.590 239194720 237029776 235000896 233151488 231524208 230164704 
1065.483 229114928 228401072 228028992 227979312 228214128 228680432 
1068.376 229319136 230074624 230887600 231697712 232445456 233068912 
1071.269 233516736 233757056 233781152 233604128 233255328 232769616 
1074.162 232174320 231488064 230723808 229894432 229019984 228129328 
1077.055 227252768 226418256 225643792 224935760 224293520 223715568 
1079.948 223204384 222766848 222409488 222132224 221923472 221761728 
1082.842 221622720 221485872 221342560 221196192 221057648 220937200 
1085.735 220838144 220755648 220680512 220605952 220532560 220469024 
1088.628 220428336 220422128 220455408 220528864 220644432 220811296 
1091.521 221053216 221405472 221904864 222581488 223446240 224486432 
1094.414 225666416 226935440 228238208 229515696 230713632 231783040 
1097.307 232678480 233366208 233828480 234067200 234102384 233964432 
1100.200 233681808 233265568 232703888 231962592 230999552 229774368 
1103.093 228263952 226468016 224407408 222118400 219643456 217032400 
1105.986 214337744 211612752 208914208 206291872 203780688 201397840 
1108.879 199138128 196979792 194891728 192844816 190817200 188795072 
1111.772 186770240 184734496 182676688 180584912 178450272 176273264 
1114.665 174065472 171849744 169654032 167504000 165422416 163426160 
1117.558 161529280 159746624 158093632 156581744 155213632 153975856 
1120.451 152836752 151746256 150648240 149488592 148222320 146822432 
1123.344 145277168 143585408 141752400 139786144 137696592 135496400 
1126.238 133203152 130839168 128428784 125998200 123572320 121172048 
1129.131 118817120 116523888 114304528 112166752 110111040 108131360 
1132.024 106214944 104347816 102518512 100721912 98962712 97253208 95611936 
1135.399 94056744 92603352 91263032 90041664 88942368 87966584 87114208 
1138.774 86383416 85769104 85262696 84851280 84520040 84254448 84040728 
1142.149 83867584 83724648 83600360 83480992 83351024 83192648 82990472 
1145.525 82732360 82411176 82024632 81574464 81066648 80510128 79918632 
1148.900 79311992 78713344 78150544 77651304 77238536 76930960 76739560 
1152.275 76669304 76720976 76892240 77178288 77570408 78054360 78609608 
1155.650 79206992 79813296 80392848 80908656 81328168 81620920 81758448 
1159.026 81717288 81477600 81026072 80358952 79482408 78412144 77168912 
1162.401 75778504 74267304 72659648 70981128 69256448 67508984 65762424 
1165.776 64036644 62347420 60706116 59119588 57591872 56126440 54727160 
1169.151 53399324 52149056 50982000 49902544 48913832 48017616 47216108 
1172.527 46512680 45911884 45419840 45043304 44787672 44658060 44658756 
1175.902 44794652 45072708 45502800 46096804 46869160 47834320 49006108 
1179.277 50398508 52024776 53899040 56037428 58454972 61166060 64180972 
1182.652 67501664 71118448 75002536 79104736 83340752 87587352 91693128 
1186.028 95467272 98708016 101236600 102905312 103634376 103418984 102329120 
1189.403 100493256 98076280 95271272 92262040 89212104 86260176 83497944 
1192.778 80976288 78705240 76660408 74791000 73031552 71319072 69597368 
1196.153 67827416 65991976 64092672 62148260 60186908 58244180 56355184 
1199.529 54550292 52854416 51283844 49845716 48539700 47359232 46293748 
1202.904 45331008 44459988 43671384 42957944 42313644 41732740 41208424 
1206.279 40734480 40305084 39916828 39569456 39266176 39012252 38813876 
1209.654 38676944 38606572 38607008 38683680 38841524 39086100 39421836 
1213.030 39850616 40371148 40979288 41669168 42434668 43269600 44168236 
1216.405 45122960 46122560 47152644 48194880 49228680 50235852 51200068 
1219.780 52109232 52955920 53736752 54452960 55110612 55721788 56304108 
1223.155 56877312 57463372 58080188 58739868 59447508 60201712 60996572 
1226.531 61823492 62673576 63537256 64403808 65262316 66100844 66908868 
1229.906 67679632 68411504 69108840 69780480 70440296 71105104 71794192 
1233.281 72532216 73348768 74276856 75354968 76621392 78110840 79854872 
1236.656 81878464 84200872 86838288 89802432 93099752 96728728 100677368 
1240.031 104921128 109422096 114137080 119017016 124009592 129063848 
1242.925 134121280 139114416 143971168 148608672 152941776 156891712 
1245.818 160377024 163317888 165633424 167231936 168021984 167921648 
1248.711 166864576 164817760 161784656 157806768 152959120 147348608 
1251.604 141113856 134407504 127399744 120266088 113160696 106222648 
1254.497 99562984 93255712 87350912 81873584 76826624 72198328 67963984 
1257.872 64091332 60541764 57276012 54257956 51454428 48839520 46395164 
1261.247 44108708 41973764 39987192 38147688 36453756 34902508 33489116 
1264.623 32207466 31050718 30011744 29084356 28261732 27537204 26903132 
1267.998 26351478 25875146 25468932 25130150 24858362 24654560 24519492 
1271.373 24453028 24454814 24525138 24666448 24884078 25185660 25577726 
1274.748 26062386 26633084 27273784 27956806 28644836 29297196 29869250 
1278.124 30318612 30611620 30723094 30642482 30374042 29936588 29360720 
1281.499 28681362 27937336 27163260 26387286 25632904 24916748 24251062 
1284.874 23645416 23105678 22634528 22230986 21890502 21606488 21371488 
1288.249 21180068 21028790 20916056 20840508 20799178 20786874 20797580 
1291.625 20824344 20862898 20911536 20970646 21041556 21124302 21216910 
1295.000 21316256 21419488 21525876 21637518 21759116 21896148 22052710 
1298.375 22230532 22429118 22647514 22885650 23145200 23429034 23739756 
1301.750 24078366 24443422 24832292 25243002 25675754 26133886 26622480 
1305.125 27145518 27704256 28295080 28910860 29541170 30175628 30804540 
1308.501 31417910 32006000 32557528 33059772 33501640 33874568 34174784 
1311.876 34403692 34566336 34668856 34715512 34707580 34643628 34521884 
1315.251 34341324 34103960 33813888 33477806 33102360 32694620 32262600 
1318.626 31815932 31366230 30927560 30513076 30133542 29794474 29496238 
1322.002 29235028 29005358 28803778 28629900 28486090 28376214 28303390 
1325.377 28269262 28274036 28318562 28404972 28537360 28720796 28958778 
1328.752 29251366 29594694 29982844 30409898 30872022 31368400 31899936 
1332.127 32465934 33062134 33678808 34301164 34912420 35494512 36029648 
1335.503 36502228 36896496 37198456 37397428 37487868 37472624 37364100 
1338.878 37184664 36962660 36726232 36500968 36304812 36147816 36035552 
1342.253 35971476 35959272 36003764 36109468 36279524 36515348 36817144 
1345.628 37186108 37625040 38138248 38728992 39396984 40135116 40929008 
1349.004 41758856 42603600 43441788 44253496 45020664 45723216 46339676 
1352.379 46849560 47233284 47478712 47582696 47551792 47400432 47147992 
1355.754 46816824 46428276 46003932 45566240 45136672 44736872 44386548 
1359.129 44099616 43884712 43744852 43680100 43692048 43786444 43973392 
1362.505 44264756 44667936 45180900 45789448 46469240 47189584 47913456 
1365.880 48602732 49216764 49710944 50044588 50184300 50110440 49822864 
1369.255 49339988 48693644 47919076 47050536 46116296 45136560 44130384 
1372.630 43119980 42132920 41207112 40384348 39701444 39186316 38852140 
1376.006 38701792 38735840 38959952 39388784 40046448 40959192 42149460 
1379.381 43628812 45391440 47409564 49624240 51947204 54248192 56361332 
1382.756 58118364 59355876 59952144 59843824 59021912 57531420 55459612 
1386.131 52947756 50176116 47340424 44636948 42211532 40143544 38449176 
1389.507 37096420 36028712 35180768 34494156 33919204 33416252 32959242 
1392.882 32532890 32133530 31767804 31449578 31194416 31013458 30909448 
1396.257 30875366 30895824 30948230 31005770 31043102 31038868 30985130 
1399.632 30889952 30776728 30674840 30611584 30606820 30669184 30799278 
1403.008 30993670 31248712 31561836 31929642 32343552 32785334 33225886 
1406.383 33632584 33974304 34232180 34404516 34506208 34563576 34605408 
1409.758 34658376 34740636 34862580 35030356 35249076 35524216 35860160 
1413.133 36257228 36709648 37205312 37730852 38275844 38835728 39412944 
1416.509 40012044 40635508 41280528 41939608 42606892 43283436 43983588 
1419.884 44727984 45530912 46396492 47314668 48269456 49245268 50237152 
1423.259 51254312 52317328 53449760 54667744 55974556 57361988 58818888 
1426.634 60339816 61930628 63605340 65378740 67258896 69242536 71318680 
1430.010 73476088 75713096 78038064 80462304 82991160 85615168 88312816 
1433.385 91049840 93792472 96511224 99168448 101717016 104092232 106220112 
1436.760 108041528 109541136 110757816 111757272 112608712 113361096 
1439.653 114032168 114609120 115050504 115297024 115271744 114892088 
1442.546 114087096 112802544 111019752 108760928 106091408 103105288 
1445.439 99902864 96586744 93244128 89953376 86798952 83866864 81236760 
1448.814 78962720 77055224 75481544 74179448 73084904 72147472 71343400 
1452.190 70671872 70142488 69756392 69496680 69323144 69179624 69010128 
1455.565 68770552 68452856 68095312 67776016 67574512 67533864 67654152 
1458.940 67906136 68254096 68667032 69123136 69604296 70090696 70561664 
1462.315 70992560 71358000 71638480 71825656 71928208 71971064 71992224 
1465.691 72030864 72116136 72268096 72497720 72810392 73209872 73698728 
1469.066 74279296 74952880 75721744 76590248 77564032 78650240 79854344 
1472.441 81182392 82638608 84234344 85993208 87944184 90122520 92558400 
1475.816 95264632 98233456 101435176 104830048 108376872 112044592 115816536 
1479.192 119679952 123623144 127633360 131692904 135788464 139914432 
1482.085 144072080 148261008 152469504 156660352 160772816 164717136 
1484.978 168374528 171617008 174302064 176281616 177419280 177589056 
1487.871 176692320 174676352 171557824 167450592 162571264 157236128 
1490.764 151797728 146560896 141746944 137455632 133687912 130396528 
1493.657 127517312 125002312 122838928 121044576 119648568 118657328 
1496.550 118025784 117637192 117311976 116860008 116096432 114876504 
1499.443 113123976 110824608 108032424 104849280 101412160 97858888 94290480 
1502.818 90772840 87307848 83832464 80231192 76358936 72097832 67437104 
1506.194 62555924 57804352 53558260 50039684 47248168 45024044 43173484 
1509.569 41531876 39995728 38519596 37098188 35746096 34477152 33296820 
1512.944 32197616 31164194 30178400 29222942 28281746 27340506 26390490 
1516.319 25433800 24488852 23586536 22759688 22029808 21395332 20830184 
1519.695 20288272 19722172 19101752 18436134 17775088 17186226 16718045 
1523.070 16377071 16133536 15938770 15749006 15536522 15298502 15052517 
1526.445 14825081 14635015 14484906 14363444 14255987 14155197 14065485 
1529.820 13999641 13969906 13979623 14018325 14064013 14090777 14083317 
1533.196 14045464 14002345 13984996 14016033 14097349 14214217 14343547 
1536.571 14464420 14563843 14636317 14682104 14702257 14693723 14648654 
1539.946 14561650 14438935 14300535 14171937 14070481 13995604 13929018 
1543.321 13842328 13711472 13525925 13295871 13047330 12811250 12608998 
1546.697 12443800 12303173 12167088 12018715 11851460 11672322 11497307 
1550.072 11343244 11218408 11119273 11034739 10953416 10870478 10789356 
1553.447 10719661 10671234 10648753 10648686 10661691 10676837 10685768 
1556.822 10681863 10657481 10602304 10505481 10365208 10199639 10044884 
1560.198 9936014 9889538 9903335 9960288 10038136 10114302 10172503 10206932 
1564.055 10223486 10236785 10263857 10315361 10390727 10479514 10566451 
1567.430 10639552 10693918 10733279 10767278 10807393 10861679 10932315 
1570.805 11019513 11123488 11246630 11391474 11558518 11742477 11932338 
1574.181 12113389 12274132 12412296 12540476 12683194 12866948 13104219 
1577.556 13391302 13713421 14056107 14410641 14776331 15157873 15560286 
1580.931 15983250 16420152 16857768 17281722 17681622 18052184 18392714 
1584.306 18704556 18986782 19235940 19447090 19617608 19749876 19853084 
1587.682 19941848 20031568 20135606 20262580 20416368 20599496 20816142 
1591.057 21072996 21379040 21742150 22165358 22645944 23176794 23750568 
1594.432 24362458 25013328 25708024 26452816 27251732 28104364 29006420 
1597.807 29951178 30930902 31936098 32954596 33969828 34958672 35895572 
1601.183 36754144 37511060 38151452 38669520 39068876 39359980 39557480 
1604.558 39675484 39722724 39701264 39605864 39426480 39151580 38772216 
1607.933 38285832 37697204 37018296 36266880 35467728 34649944 33846376 
1611.308 33092168 32415592 31834078 31350344 30952430 30617700 30317406 
1614.684 30024668 29718006 29388516 29043438 28706070 28407376 28172664 
1618.059 28014374 27928642 27900378 27906384 27920764 27918716 27877552 
1621.434 27782666 27631014 27434096 27214302 26999202 26810888 26658766 
1624.809 26539630 26441758 26351162 26256044 26148136 26024180 25883588 
1628.185 25728378 25561980 25389148 25215472 25046040 24884606 24731438 
1631.560 24581866 24426178 24249346 24033222 23758128 23408086 22977938 
1634.935 22481630 21953962 21442846 20992276 20624964 20339588 20117940 
1638.310 19936678 19773248 19611022 19441790 19264794 19086344 18915584 
1641.686 18761084 18626626 18509326 18399592 18282976 18143588 17965084 
1645.061 17735636 17451116 17118358 16756820 16394654 16062770 15784362 
1648.436 15571139 15421907 15324896 15260131 15199082 15106238 14937721 
1651.811 14649752 14222571 13687534 13133486 12657915 12314216 12095126 
1655.187 11961593 11871345 11793713 11712589 11622393 11524389 11423143 
1658.562 11322430 11223644 11125255 11023319 10913355 10791088 10653813 
1661.937 10501510 10338061 10171791 10013620 9875336 9765730 9687626 9637857 
1665.794 9607639 9584605 9554560 9504841 9427223 9319897 9188636 9045100 
1669.652 8903842 8777305 8673452 8595375 8541440 8506567 8481936 8456663 
1673.509 8417643 8352988 8257374 8136663 8008763 7896118 7816797 7776451 
1677.367 7768760 7779892 7795376 7805664 7808431 7808802 7815178 7834442 
1681.224 7865616 7898547 7913697 7887885 7802392 7654862 7467232 7280291 
1685.082 7132331 7040690 7001123 6997487 7012538 7032137 7046718 7051231 
1688.939 7042947 7021799 6990247 6953816 6920418 6898266 6893452 6907322 
1692.796 6934996 6965162 6984153 6978799 6943379 6884665 6822628 6782408 
1696.654 6779009 6812665 6868575 6925434 6959371 6951291 6894361 6800784 
1700.511 6700364 6624592 6592497 6603196 6644274 6699388 6754441 6798967 
1704.369 6826634 6835991 6830942 6818623 6806876 6801727 6805597 6817243 
1708.226 6833635 6851306 6868507 6885743 6905605 6931023 6964388 7005198 
1712.083 7050726 7095585 7133981 7161771 7176424 7177468 7164499 7135733 
1715.941 7086963 7013481 6913482 6791731 6661568 6540728 6444167 6378696 
1719.798 6342517 6327556 6322983 6319151 6309905 6291987 6265497 6232186 
1723.656 6194272 6153168 6109986 6065901 6023029 5983555 5949861 5922620 
1727.513 5900653 5881677 5863776 5847152 5834625 5831032 5840100 5861290 
1731.371 5888898 5910763 5911099 5876505 5802253 5699848 5594244 5515376 
1735.228 5481786 5494403 5541787 5607166 5675441 5734193 5776331 5799634 
1739.085 5806720 5803529 5797452 5794396 5797149 5805410 5816458 5826969 
1742.943 5833484 5833987 5827809 5816156 5800742 5783852 5766728 5749234 
1746.800 5730533 5708375 5681048 5646975 5604447 5552526 5489404 5414648 
1750.658 5329306 5237676 5147808 5068855 5008652 4971515 4955528 4954556 
1754.515 4958310 4956500 4940514 4907035 4859453 4806248 4758140 4721829 
1758.373 4699286 4686659 4677147 4663415 4640039 4605612 4562115 4515240 
1762.230 4471014 4435262 4412065 4403798 4410593 4431045 4461474 4495922 
1766.087 4527628 4549558 4557695 4552672 4539514 4525518 4516445 4513398 
1769.945 4511825 4503689 4480221 4437037 4377256 4312162 4255677 4218103 
1773.802 4202512 4204352 4215728 4228877 4239416 4246944 4252967 4259659 
1777.660 4266820 4271571 4270199 4259124 4237810 4208902 4178223 4151093 
1781.517 4130520 4115468 4101720 4084093 4058406 4023391 3981088 3935747 
1785.375 3892517 3855375 3827162 3809379 3802827 3807941 3823919 3848422 
1789.232 3876302 3900708 3914082 3909902 3886232 3846249 3798281 3752291 
1793.089 3716865 3696180 3689663 3693506 3704200 3718302 3734143 3750787 
1796.947 3767799 3784444 3799585 3812554 3823083 3831140 3837223 3841435 
1800.804 3843675 3843475 3841268 3838092 3835853 3837591 3845514 3860690 
1804.662 3882554 3908966 3937151 3964402 3989448 4012021 4032521 4051584 
1808.519 4069243 4084996 4098141 4107941 4114130 4116872 4116103 4111855 
1812.376 4104195 4093358 4081050 4069845 4063356 4064895 4076735 4098509 
1816.234 4128011 4161095 4193713 4222854 4247848 4269999 4292117 4317115 
1820.091 4346966 4383113 4426024 4475232 4529971 4587831 4645833 4699956 
1823.949 4746449 4783466 4812379 4837607 4864781 4898625 4940883 4989446 
1827.806 5039154 5084074 5120115 5147037 5169033 5192539 5224295 5267323 
1831.664 5320484 5379624 5439375 5495745 5546418 5590887 5629990 5664196 
1835.521 5692999 5715459 5729996 5736207 5734562 5727243 5716801 5706058 
1839.378 5697128 5690447 5685580 5680309 5671682 5655770 5628715 5588538 
1843.236 5536350 5478397 5424478 5386300 5371874 5383046 5415118 5458869 
1847.093 5503900 5541820 5569239 5587464 5601930 5618612 5641638 5671413 
1850.951 5704648 5736644 5763370 5784356 5801213 5817902 5837346 5860619 
1854.808 5886144 5911334 5933603 5952515 5969412 5986712 6006432 6028942 
1858.666 6052796 6075745 6096343 6114254 6130720 6147489 6165133 6183147 
1862.523 6199784 6213867 6225564 6237732 6254539 6278809 6311217 6347661 
1866.380 6381251 6403174 6406840 6390195 6356739 6314948 6273262 6238707 
1870.238 6213026 6193969 6176661 6156328 6129712 6095033 6052091 6001091 
1874.095 5942404 5876672 5804839 5729022 5651138 5573300 5495712 5417634 
1877.953 5336619 5250520 5159276 5064798 4970979 4882104 4801490 4729433 
1881.810 4664387 4603034 4542895 4483903 4428066 4378762 4339035 4309619 
1885.667 4288938 4273111 4257618 4239182 4215594 4185885 4150223 4109246 
1889.525 4064795 4019545 3978346 3946213 3927388 3924312 3935245 3955341 
1893.382 3977310 3994665 4003794 4004965 4001988 3999647 4001620 4007841 
1897.240 4015633 4020481 4019579 4012388 4001453 3990652 3983730 3982158 
1901.097 3985335 3990217 3994832 3997273 3997474 3995902 3992658 3987141 
1904.955 3978313 3965506 3949890 3934042 3921504 3914850 3913981 3916254 
1908.812 3916957 3911941 3899739 3882253 3863766 3849258 3841870 3841335 
1912.669 3844945 3848689 3849659 3846650 3840633 3832777 3824019 3814092 
1916.527 3802226 3788187 3773882 3762819 3758875 3763588 3774584 3786215 
1920.384 3791429 3784678 3764557 3734544 3702161 3675328 3659623 3656348 
1924.242 3662129 3672554 3683816 3694977 3707609 3723783 3744337 3767866 
1928.099 3790761 3809913 3823953 3834415 3844611 3857849 3874798 3893787 
1931.957 3910504 3921704 3926620 3928491 3932236 3942601 3961059 3984667 
1935.814 4007807 4024394 4031250 4029143 4022789 4017405 4015633 4017003 
1939.671 4017773 4013626 4002356 3985369 3967947 3956210 3953669 3960190 
1943.529 3970589 3979517 3981590 3975872 3964135 3950025 3936817 3926620 
1947.386 3919263 3914984 3913981 3918194 3928759 3945878 3966007 3983596 
1951.244 3992291 3988345 3972127 3949088 3926653 3911240 3904787 3904185 
1955.101 3902714 3893787 3873661 3843909 3809746 3777926 3752792 3735447 
1958.958 3723950 3715930 3709112 3704835 3704434 3708477 3714192 3717601 
1962.816 3713657 3700992 3682847 3667475 3663165 3674994 3701059 3731904 
1966.673 3754831 3759109 3740259 3702796 3656248 3610439 3572119 3541586 
1970.531 3514461 3486437 3455342 3423915 3397966 3382973 3381303 3391688 
1974.388 3411358 3439010 3477920 3534504 3614883 3718937 3838627 3956177 
1978.246 4051718 4111521 4131323 4118311 4086769 4052922 4028708 4018475 
1982.103 4021719 4033791 4050948 4070848 4092990 4115334 4134702 4145908 
1985.960 4144235 4128747 4103158 4075932 4056935 4052453 4063758 4085699 
1989.818 4111119 4132695 4148718 4161530 4176751 4198364 4226702 4256246 
1993.675 4281576 4297070 4303528 4306406 4313902 4332609 4365508 4408250 
1997.533 4452937 4491804 4519860 4537371 4548052 4556489 4564860 4571323 
2001.390 4571256 4559804 4534424 4496056 4449121 4398811 4349678 4304365 
2005.248 4264511 4232189 4211445 4206326 4220010 4251997 4295999 4341746 
2009.105 4379666 4403698 4414074 4417321 4421739 4433890 4455080 4480924 
2012.962 4504961 4521099 4529369 4533420 4540518 4557360 4586291 4624801 
2016.820 4667066 4706722 4740989 4770166 4797437 4825981 4857811 4892358 
2020.677 4927980 4964108 5002049 5044317 5092053 5144925 5198206 5245020 
2024.535 5280202 5301802 5312501 5318438 5326556 5341348 5362985 5389118 
2028.392 5415688 5441422 5468197 5499974 5540612 5591760 5651708 5717977 
2032.250 5787814 5862164 5944588 6039189 6145473 6258640 6366826 6459166 
2036.107 6526937 6569858 6595290 6615509 6642861 6683943 6738692 6801727 
2039.964 6865478 6925064 6980516 7035942 7096326 7164870 7239927 7315637 
2043.822 7385699 7444682 7491031 7526159 7553502 7576226 7595850 7613586 
2047.679 7629974 7647106 7666665 7689868 7714994 7737491 7751422 7752502 
2051.537 7740190 7719413 7698300 7686360 7688856 7705652 7729903 7752029 
2055.394 7763869 7762486 7751321 7738841 7734388 7743226 7765151 7794364 
2059.251 7821891 7839940 7843652 7832383 7808734 7776991 7741134 7705180 
2063.109 7672634 7647848 7634830 7635809 7649770 7671117 7691183 7700930 
2066.966 7693713 7669464 7633010 7593895 7560784 7539173 7529227 7526901 
2070.824 7526395 7523833 7518607 7513753 7513685 7521035 7536037 7555221 
2074.681 7574136 7589174 7599020 7605325 7610855 7617970 7627412 7638001 
2078.539 7647949 7656379 7663731 7671151 7680290 7691183 7702852 7712634 
2082.396 7718570 7720695 7720728 7721909 7727103 7737087 7750478 7763801 
2086.253 7773213 7776316 7772842 7764105 7752164 7738065 7721133 7699986 
2090.111 7673410 7641777 7607112 7573192 7544027 7521675 7507179 7499493 
2093.968 7497807 7501448 7511224 7527778 7551007 7578451 7605561 7626636 
2097.826 7637360 7635775 7623332 7603572 7580980 7558828 7538600 7520057 
2101.683 7502628 7486211 7472289 7462513 7458199 7458738 7462109 7465176 
2105.541 7465379 7461873 7455569 7448626 7442896 7438312 7433761 7426953 
2109.398 7417178 7405449 7394596 7388496 7389979 7398371 7410201 7419301 
2113.255 7419672 7407303 7381385 7344651 7300845 7254414 7208696 7165645 
2117.113 7126302 7091611 7063018 7041902 7028904 7023247 7022438 7023011 
2120.970 7022001 7017488 7009137 6997857 6984523 6969203 6950921 6928700 
2124.828 6902474 6873994 6845921 6822056 6803847 6791428 6781466 6769384 
2128.685 6751177 6724962 6691615 6654502 6617662 6585433 6559262 6540357 
2132.542 6528484 6523775 6526365 6536388 6552231 6570935 6587956 6599495 
2136.400 6603801 6602254 6597948 6594987 6594516 6595054 6591018 6577191 
2140.257 6549271 6507832 6456845 6403444 6353848 6311822 6276355 6244219 
2144.115 6211514 6175786 6137004 6097452 6059449 6022760 5986074 5946435 
2147.972 5901997 5853130 5803060 5755312 5712001 5672722 5633145 5588404 
2151.830 5533800 5467593 5391667 5308745 5221110 5129368 5032953 4933342 
2155.687 4836904 4757068 4712082 4722298 4800686 4948993 5153106 5389420 
2159.544 5631534 5856891 6053502 6216489 6346787 6447698 6521017 6569858 
2163.402 6598284 6613793 6625131 6640102 6663755 6695383 6729639 6760263 
2167.259 6781432 6791664 6794053 6793582 6793817 6796106 6797621 6794928 
2171.117 6784966 6767701 6747542 6730413 6722640 6727721 6746466 6776922 
2174.974 6816603 6862650 6913920 6968024 7022001 7070595 7108249 7130984 
2178.832 7138798 7135228 7128458 7126100 7134251 7154663 7185250 7222206 
2182.689 7261759 7302664 7345056 7388934 7432312 7470637 7498650 7511697 
2186.546 7509842 7497133 7481727 7471749 7471817 7481660 7496661 7510213 
2190.404 7517293 7517698 7515135 7515641 7524103 7541904 7566415 7592984 
2194.261 7618038 7640597 7663596 7691419 7728553 7774731 7827323 7879854 
2198.119 7926688 7964990 7995870 8023984 8055173 8093384 8139870 8192101 
2201.976 8245521 8295569 8339341 8375180 8403860 8426697 8445886 8463691 
2205.833 8482679 8506027 8536134 8574016 8619236 8668618 8717364 8761111 
2209.691 8796645 8823391 8843072 8859405 8875604 8893933 8915612 8940336 
2213.548 8967666 8997873 9031127 9068511 9109383 9152628 9196555 9238862 
2217.406 9277685 9312653 9343426 9370442 9393330 9411580 9424617 9432133 
2221.263 9435079 9435249 9434978 9437111 9443003 9453399 9468367 9487771 
2225.121 9510903 9537286 9565738 9594089 9619903 9640703 9655677 9666146 
2228.978 9675192 9686914 9704093 9727845 9755903 9785080 9811853 9835137 
2232.835 9856592 9879980 9909708 9948389 9995480 10048037 10101821 10153441 
2236.693 10202353 10250457 10300669 10355536 10415195 10477035 10536984 
2240.068 10591575 10639212 10680776 10719151 10758073 10799411 10843946 
2243.443 10890353 10937004 10982641 11026888 11069985 11112270 11153097 
2246.819 11191684 11227147 11259858 11291347 11324335 11361202 11402971 
2250.194 11448691 11496286 11543138 11588702 11635019 11685562 11744077 
2253.569 11812474 11888440 11966158 12037927 12096558 12137784 12161704 
2256.944 12172437 12175879 12177311 12180991 12188385 12199563 12214012 
2260.320 12231734 12253409 12279585 12310535 12345680 12383521 12422592 
2263.695 12462179 12502179 12543376 12585941 12629055 12671151 12709738 
2267.070 12742560 12769209 12790604 12809681 12829167 12851828 12878791 
2270.445 12910193 12944909 12982016 13021040 13061671 13103980 13147692 
2273.821 13192468 13237488 13281864 13325595 13368511 13410951 13452952 
2277.196 13494513 13534949 13574433 13612859 13651426 13691911 13735957 
2280.571 13784454 13837950 13895147 13954679 14014664 14073801 14130893 
2283.946 14185322 14236403 14283414 14325773 14363685 14398071 14429925 
2287.322 14460720 14491415 14522180 14552433 14581318 14608354 14634467 
2290.697 14661746 14692489 14728958 14771773 14820145 14871128 14921775 
2294.072 14969204 15012282 15051282 15087884 15124043 15161236 15200009 
2297.447 15240021 15280792 15321670 15362620 15404330 15447245 15491709 
2300.823 15537483 15584155 15630625 15676036 15719974 15762234 15803156 
2304.198 15843019 15882609 15922513 15963759 16007075 16053177 16101830 
2307.573 16152518 16204175 16255630 16306233 16355980 16405595 16456421 
2310.948 16509283 16564080 16619917 16675072 16727170 16774589 16816814 
2314.323 16854048 16887666 16919740 16952400 16987440 17026238 17069762 
2317.699 17118114 17170954 17227112 17285376 17344306 17403036 17460982 
2321.074 17517796 17573342 17626132 17673756 17712892 17740226 17753584 
2324.449 17753100 17741572 17724176 17707300 17696944 17697842 17712062 
2327.824 17739156 17777124 17823142 17874754 17929894 17987566 18046798 
2331.200 18106728 18166564 18224750 18280798 18334646 18386908 18438622 
2334.575 18491242 18545980 18603454 18664258 18728770 18797134 18869660 
2337.950 18946112 19025760 19107362 19189706 19271754 19352988 19433542 
2341.325 19513694 19593310 19671448 19745750 19813546 19872472 19922006 
2344.701 19964432 20004990 20050722 20110202 20190028 20294626 20424320 
2348.076 20576394 20745202 20923080 21102004 21274114 21432542 21573128 
2351.451 21693974 21796182 21882556 21956890 22022558 22081820 22135964 
2354.826 22185826 22232554 22277512 22322820 22370086 22419976 22472384 
2358.202 22526716 22582138 22639172 22698448 22761642 22829528 22901996 
2361.577 22977098 23052460 23125630 23195702 23263410 23331336 23402388 
2364.952 23479326 23562956 23653114 23748714 23848218 23950690 24056160 
2368.327 24164670 24276466 24391162 24508098 24626330 24745328 24865132 
2371.703 24986128 25109192 25235066 25363996 25496022 25631358 25769866 
2375.078 25911722 26057390 26206592 26358696 26512616 26667432 26822376 
2378.453 26977202 27132398 27288636 27445884 27604002 27761330 27916418 
2381.828 28067392 28213288 28354178 28491150 28625404 28758746 28892268 
2385.204 29026612 29161990 29298506 29435742 29573340 29710484 29846288 
2388.579 29979684 30110280 30237684 30363028 30487092 30610872 30734652 
2391.954 30857900 30979152 31096914 31210332 31319220 31424858 31528950 
2395.329 31632784 31737112 31841102 31943050 32041490 32135136 32223988 
2398.705 32308928 32391600 32473612 32556568 32641462 32729238 32820746 
2402.080 32916956 33018802 33126782 33241230 33361218 33485748 33613464 
2405.455 33743224 33874316 34006088 34138296 34270684 34403224 34535948 
2408.830 34669752 34805608 34944772 35088188 35236068 35387952 35542448 
2412.206 35698468 35855156 36012192 36169856 36328340 36487272 36646120 
2415.581 36803768 36959556 37113672 37267476 37422676 37581000 37743540 
2418.956 37909716 38078200 38247040 38415256 38582420 38749536 38917804 
2422.331 39088276 39260880 39434752 39608328 39780528 39951120 40121452 
2425.707 40293668 40469812 40651844 40840180 41034568 41233744 41435928 
2429.082 41639772 41843604 42045816 42245308 42440768 42632440 42821124 
2432.457 43009120 43198740 43392356 43591188 43794692 44001112 44208184 
2435.832 44413668 44616420 44816288 45014340 45211896 45410348 45610436 
2439.208 45812608 46016712 46223016 46431040 46640564 46851220 47062464 
2442.583 47273768 47484884 47696028 47907348 48118920 48330260 48540220 
2445.958 48747320 48949880 49147560 49340732 49530868 49719676 49908456 
2449.333 50097572 50286180 50472900 50656680 50836444 51011956 51183332 
2452.708 51349996 51511092 51665236 51810804 51947428 52075460 52196548 
2456.084 52312544 52424684 52533116 52636860 52734308 52824480 52907072 
2459.459 52983128 53054148 53121956 53187264 53250336 53310420 53367252 
2462.834 53420948 53471908 53520440 53566544 53608752 53644744 53672336 
2466.209 53689660 53696256 53693296 53682308 53664724 53640992 53610928 
2469.585 53573144 53526736 53471272 53407756 53336944 53259924 53177152 
2472.960 53088292 52992824 52891052 52784140 52674264 52563816 52455116 
2476.335 52348164 52241688 52134076 52022792 51906648 51785756 51661540 
2479.710 51535420 51408588 51281120 51152388 51021052 50885764 50746124 
2483.086 50601840 50453360 50301140 50146216 49989344 49832152 49676248 
2486.461 49523144 49373512 49227156 49082152 48935824 48785612 48629936 
2489.836 48468604 48303224 48135948 47968880 47802804 47637680 47472096 
2493.211 47304956 47135508 46963956 46791104 46617912 46444756 46270928 
2496.587 46095480 45917260 45735768 45551444 45365028 45177220 44988432 
2499.962 44797812 44603900 44405188 44200408 43989196 43772188 43550636 
2503.337 43326528 43101980 42879160 42660440 42447744 42242388 42045088 
2506.712 41854624 41669092 41485284 41300496 41112800 40922092 40729532 
2510.088 40537352 40347984 40162556 39981816 39805548 39633524 39466392 
2513.463 39305204 39151760 39007832 38874532 38751780 38638588 38533644 
2516.838 38435636 38343880 38257932 38177788 38103124 38033388 37967680 
2520.213 37905628 37847276 37793272 37745200 37703852 37669488 37641700 
2523.589 37618864 37598736 37579840 37561020 37541908 37522692 37503436 
2526.964 37484256 37464500 37443152 37419608 37393204 37363992 37332000 
2530.339 37298096 37262496 37226032 37189428 37153764 37119840 37088444 
2533.714 37059648 37032904 37007216 36981600 36955048 36927808 36900432 
2537.090 36874028 36849392 36826920 36806220 36786276 36766368 36745704 
2540.465 36724212 36702364 36680480 36658412 36636168 36613028 36588516 
2543.840 36562416 36535024 36506876 36478516 36450408 36422556 36394880 
2547.215 36367320 36340188 36313388 36287200 36260940 36233960 36205112 
2550.591 36173352 36138780 36102088 36065004 36029832 35998080 35970504 
2553.966 35946788 35925840 35906296 35887436 35869620 35853644 35840836 
2557.341 35832164 35827808 35827412 35829464 35832448 35834932 35835976 
2560.716 35835040 35831872 35827016 35820864 35814928 35810356 35809132 
2564.092 35812624 35821868 35836516 35855840 35878764 35904028 35930844 
2567.467 35959380 35990052 36023456 36060288 36100648 36144468 36191608 
2570.842 36241924 36295340 36351680 36410772 36472280 36535820 36600952 
2574.217 36668292 36738820 36814224 36896172 36985460 37081836 37183908 
2577.593 37289424 37395952 37501560 37605784 37708588 37810948 37914088 
2580.968 38018924 38125948 38235100 38345944 38457720 38569384 38679732 
2584.343 38787428 38890912 38989240 39081820 39168912 39251920 39332048 
2587.718 39411168 39490412 39570144 39650436 39730924 39811032 39891076 
2591.094 39971208 40052412 40135224 40220600 40308608 40398928 40490756 
2594.469 40582716 40673236 40760904 40844840 40924748 41001684 41077396 
2597.844 41154252 41234400 41319664 41410304 41506176 41605896 41708156 
2601.219 41811904 41916948 42023480 42132408 42244396 42360104 42479464 
2604.594 42602284 42728288 42856780 42987284 43118996 43251300 43383312 
2607.970 43514156 43643500 43771236 43898164 44025132 44153236 44283136 
2611.345 44415392 44549888 44686372 44824336 44963112 45102116 45240428 
2614.720 45377424 45512660 45646028 45778220 45909784 46041984 46175144 
2618.095 46309268 46443836 46577668 46709960 46840556 46969860 47098912 
2621.471 47228588 47359488 47491060 47622184 47751652 47878380 48002592 
2624.846 48125028 48247276 48370408 48495056 48620852 48746724 48871632 
2628.221 48994684 49115912 49235912 49355580 49475316 49595452 49715404 
2631.596 49834680 49952280 50068348 50182736 50296044 50408596 50520724 
2634.972 50632408 50744000 50855292 50966424 51077208 51187020 51295032 
2638.347 51400272 51501764 51599184 51692964 51784152 51874164 51964268 
2641.722 52055288 52147260 52239632 52331232 52421096 52508548 52593472 
2645.097 52675536 52754732 52831436 52905724 52978188 53049580 53120532 
2648.473 53191760 53263748 53336272 53408916 53481164 53552376 53622732 
2651.848 53692696 53763112 53834932 53908828 53985100 54063748 54144512 
2655.223 54227320 54311904 54398240 54486540 54577112 54670264 54766396 
2658.598 54865792 54968704 55075064 55184272 55295576 55407960 55520416 
2661.974 55632636 55744996 55858816 55975572 56096732 56223052 56354884 
2665.349 56491320 56631456 56774136 56918556 57064088 57210724 57357868 
2668.724 57505168 57652520 57799812 57947532 58096852 58248764 58404332 
2672.099 58564160 58728032 58895192 59064848 59236156 59409364 59584656 
2675.475 59762640 59943584 60127156 60312368 60498340 60684360 60870532 
2678.850 61057968 61247964 61442168 61641228 61845384 62053612 62264580 
2682.225 62476416 62687816 62897712 63105836 63311988 63516504 63720092 
2685.600 63923268 64126892 64331448 64537108 64743788 64950332 65156088 
2688.976 65359748 65560812 65758988 65954408 66147336 66338220 66527100 
2692.351 66714136 66899664 67084344 67268448 67452664 67636848 67820448 
2695.726 68002416 68181680 68357208 68529048 68697616 68863880 69028616 
2699.101 69191624 69352216 69509160 69661240 69807984 69950312 70089912 
2702.477 70228784 70369184 70512160 70658064 70806408 70956552 71107952 
2705.852 71260816 71415528 71572520 71732432 71895480 72061488 72229904 
2709.227 72400392 72572040 72743792 72914120 73081104 73242504 73396560 
2712.602 73541632 73677016 73802624 73918696 74025752 74123912 74213328 
2715.978 74293880 74365952 74429544 74485312 74533728 74575472 74610848 
2719.353 74640232 74664200 74683320 74698160 74709056 74715976 74718384 
2722.728 74715320 74705672 74689144 74666008 74637280 74604272 74568392 
2726.103 74530232 74489792 74446808 74400440 74350736 74297808 74242616 
2729.479 74186328 74130040 74074432 74019928 73966456 73914016 73862400 
2732.854 73811624 73761240 73711216 73660608 73609416 73556904 73503328 
2736.229 73448544 73392632 73335360 73276080 73213368 73146472 73074832 
2739.604 72998152 72917448 72833312 72746720 72658040 72566984 72473048 
2742.979 72375376 72273616 72167736 72058128 71945064 71828392 71708312 
2746.355 71584128 71455992 71324112 71189720 71053984 70918352 70784368 
2749.730 70652728 70524128 70398800 70276856 70158064 70042416 69929136 
2753.105 69817016 69704608 69590368 69472616 69349920 69221552 69086728 
2756.480 68945272 68796752 68641112 68478424 68309312 68134384 67954720 
2759.856 67770600 67582184 67389088 67190152 66984400 66771516 66551736 
2763.231 66326060 66096364 65864400 65632180 65401004 65172448 64947984 
2766.606 64729364 64518504 64317232 64127004 63948988 63783520 63630396 
2769.981 63489548 63360712 63243948 63139244 63046032 62963396 62889868 
2773.357 62823460 62761820 62702744 62644332 62584936 62523096 62457664 
2776.732 62387928 62313572 62234752 62152276 62066912 61979428 61890048 
2780.107 61798968 61705384 61609188 61510416 61409608 61307792 61206072 
2783.482 61104916 61004504 60903968 60802344 60698648 60592048 60482344 
2786.858 60369592 60253436 60133132 60006960 59873184 59729408 59573976 
2790.233 59405680 59224196 59029996 58824352 58609168 58386816 58159960 
2793.608 57931552 57704100 57479976 57260928 57048104 56842224 56643876 
2796.983 56453620 56272124 56100200 55937920 55785344 55641712 55505996 
2800.359 55377132 55254104 55136528 55023988 54915760 54810756 54706944 
2803.734 54602324 54494276 54381040 54262156 54137644 54008664 53876196 
2807.109 53741292 53604216 53464788 53322408 53176516 53026740 52873164 
2810.484 52716088 52556112 52394480 52232492 52071952 51915352 51764816 
2813.860 51622468 51490164 51368716 51258752 51160892 51075792 51004544 
2817.235 50948724 50909308 50887216 50881852 50891760 50914932 50949024 
2820.610 50991912 51042328 51099276 51161488 51227952 51296448 51364912 
2823.985 51430444 51490948 51545080 51591720 51631128 51663032 51687552 
2827.361 51704832 51714500 51716180 51709908 51696100 51675200 51648032 
2830.736 51616052 51580152 51541536 51501020 51459688 51417652 51375168 
2834.111 51332396 51289136 51245700 51202828 51161336 51122420 51086940 
2837.486 51055780 51029512 51008640 50994072 50987588 50991612 51009164 
2840.862 51043484 51097412 51172968 51271912 51395012 51543700 51719316 
2844.237 51923452 52157800 52423376 52719080 53041828 53385384 53741064 
2847.612 54096508 54437596 54748508 55012480 55214256 55341376 55385188 
2850.987 55343408 55219600 55023196 54767488 54468700 54143424 53806544 
2854.363 53470784 53146184 52839336 52554732 52294492 52059136 51847692 
2857.738 51658144 51488148 51334556 51194812 51066664 50948388 50839052 
2861.113 50738044 50645588 50561784 50487080 50421692 50365800 50318920 
2864.488 50280304 50248948 50223764 50203900 50188948 50179096 50175336 
2867.864 50178536 50189728 50209812 50238680 50276100 50321080 50372016 
2871.239 50426864 50483096 50537964 50588696 50633636 50671648 50703336 
2874.614 50730484 50756216 50783888 50816480 50856260 50904316 50960576 
2877.989 51024292 51094208 51169536 51249728 51334668 51424700 51520384 
2881.365 51622432 51731220 51847132 51969612 52097912 52230628 52365768 
2884.740 52501816 52636936 52769812 52899552 53024980 53145320 53258872 
2888.115 53364256 53459352 53542556 53612388 53667984 53709004 53735664 
2891.490 53748488 53748640 53737316 53716392 53687596 53652764 53613024 
2894.865 53569508 53522316 53471608 53417460 53360060 53299144 53234076 
2898.241 53163220 53083124 52988856 52875932 52739656 52577580 52390404 
2901.616 52181076 51954820 51717488 51475020 51231904 50991612 50756776 
2904.991 50529844 50313412 50110516 49924064 49756536 49610052 49486008 
2908.366 49385796 49311744 49265940 49251948 49273104 49331820 49429016 
2911.742 49563512 49732272 49929976 50149788 50383848 50622948 50856856 
2915.117 51075572 51268220 51425260 51539036 51603996 51617316 51578772 
2918.492 51490240 51355068 51177104 50961060 50711272 50432148 50127660 
2921.867 49801420 49456972 49097660 48727264 48350184 47971692 47597412 
2925.243 47233136 46884108 46554064 46245424 45958956 45694468 45450520 
2928.618 45225868 45019156 44829148 44654424 44493908 44346584 44211120 
2931.993 44086632 43971780 43865356 43765700 43670832 43578732 43487640 
2935.368 43396568 43305440 43215320 43127816 43044644 42967384 42897044 
2938.744 42834328 42779804 42734140 42697980 42671920 42655832 42648888 
2942.119 42649072 42653824 42660184 42665632 42668444 42667568 42662340 
2945.494 42652580 42637776 42617344 42591576 42560988 42527732 42494372 
2948.869 42464080 42439600 42422392 42412820 42409460 42410336 42412860 
2952.245 42414608 42413772 42409388 42400984 42389184 42375412 42361532 
2955.620 42349840 42342976 42342756 42350168 42365660 42388236 42416656 
2958.995 42449500 42485604 42524076 42564020 42604664 42644612 42682848 
2962.370 42718092 42750336 42780864 42811876 42846940 42890572 42946388 
2965.746 43017792 43106884 43214148 43338680 43478776 43631192 43792456 
2969.121 43958656 44125544 44289448 44446772 44594352 44729308 44849024 
2972.496 44951240 45034152 45097192 45140936 45167592 45180384 45183180 
2975.871 45179760 45172772 45163620 45152408 45139172 45123660 45106344 
2979.247 45088808 45072964 45061168 45055284 45056756 45066236 45084400 
2982.622 45111488 45147772 45193256 45247084 45307764 45372536 45437684 
2985.997 45499048 45552440 45594316 45621808 45632924 45626448 45601420 
2989.372 45556708 45491580 45404316 45293564 45157996 44996808 44810448 
2992.748 44601072 44372564 44130424 43880752 43629504 43381408 43139268 
2996.123 42904140 42675536 42452608 42235012 42023588 41820184 41627776 
2999.498 41449196 41286868 41142232 41015124 40904904 40809896 40727968 
3002.873 40657008 40594792 40538772 40487196 40438604 40392276 40348680 
3006.249 40309048 40274508 40246300 40224672 40209152 40198280 40190616 
3009.624 40184144 40177672 40170840 40163208 40154996 40146380 40137188 
3012.999 40127228 40115780 40102228 40085620 40065308 40040456 40010516 
3016.374 39975204 39934988 39890348 39842152 39791276 39738336 39684020 
3019.750 39628584 39572468 39516288 39460696 39406268 39353268 39301068 
3023.125 39248332 39192880 39131852 39062748 38983332 38892544 38790112 
3026.500 38676692 38553452 38422100 38284240 38141936 37996648 37850204 
3029.875 37704072 37559392 37417076 37277872 37142000 37009596 36880228 
3033.250 36753568 36628672 36504788 36380792 36256112 36130608 36004488 
3036.626 35878512 35753508 35630268 35508824 35388888 35269740 35150052 
3040.001 35028920 34905164 34777788 34645672 34507892 34363632 34212532 
3043.376 34054968 33892116 33725856 33558552 33392136 33227816 33065922 
3046.751 32906234 32748104 32591566 32437086 32285944 32139454 31998544 
3050.127 31863600 31733866 31608160 31484988 31363200 31242588 31123220 
3053.502 31006020 30891304 30779466 30670572 30563910 30459192 30356454 
3056.877 30255800 30157516 30062234 29969886 29880398 29793516 29708924 
3060.252 29626440 29546030 29467620 29391210 29316302 29242824 29170352 
3063.628 29098848 29028596 28959984 28893508 28829272 28766994 28706318 
3067.003 28646110 28585838 28525400 28464756 28404370 28344840 28286132 
3070.378 28227892 28169094 28108642 28045158 27978008 27907090 27832932 
3073.753 27756598 27679570 27603120 27528380 27456050 27386100 27318346 
3077.129 27252366 27187352 27122768 27057772 26992256 26925728 26858188 
3080.504 26789812 26720884 26652002 26583694 26516736 26451688 26388622 
3083.879 26327188 26266816 26206382 26145146 26082372 26018270 25953332 
3087.254 25888546 25825246 25764134 25706056 25651428 25600324 25552916 
3090.630 25509270 25469320 25432852 25399056 25366420 25333578 25299298 
3094.005 25262808 25224460 25185624 25147950 25113720 25084372 25060326 
3097.380 25041442 25026490 25013820 25001992 24989954 24977072 24963280 
3100.755 24948610 24933274 24917134 24900360 24882676 24864394 24845870 
3104.131 24827590 24810364 24794824 24781390 24770162 24761044 24753010 
3107.506 24745258 24736734 24726562 24714532 24700538 24685352 24669640 
3110.881 24654454 24640286 24627312 24615564 24604342 24593262 24582076 
3114.256 24570786 24559040 24547364 24535654 24523804 24511674 24499088 
3117.632 24485662 24471534 24456532 24440478 24423654 24405742 24386570 
3121.007 24365964 24344094 24320862 24296718 24272260 24247978 24224470 
3124.382 24202468 24182044 24163234 24145858 24129326 24113074 24096822 
3127.757 24080536 24064636 24050208 24037880 24028284 24021526 24016518 
3131.133 24011826 24005874 23997258 23985354 23970786 23954996 23939556 
3134.508 23926250 23915994 23909202 23905036 23902970 23902026 23901990 
3137.883 23902620 23904196 23906716 23910356 23914348 23918898 23923344 
3141.258 23927442 23931328 23935038 23938470 23941552 23943968 23945298 
3144.634 23945088 23943582 23940886 23937454 23933848 23930524 23927442 
3148.009 23924920 23923100 23921980 23922154 23923836 23927442 23933254 
3151.384 23940920 23950234 23960912 23971978 23983462 23994878 24006012 
3154.759 24017078 24027898 24038300 24048666 24058648 24068524 24078154 
3158.135 24087926 24097734 24108030 24119344 24132408 24147856 24166772 
3161.510 24189402 24215676 24244966 24275762 24306318 24335052 24360180 
3164.885 24380892 24397016 24409422 24419622 24429542 24441108 24456148 
3168.260 24476022 24501368 24531974 24566966 24604832 24643652 24681668 
3171.635 24717724 24751116 24782160 24811698 24840852 24870816 24902500 
3175.011 24935836 24970474 25005816 25040776 25074472 25106524 25136400 
3178.386 25164240 25190190 25214698 25238472 25262070 25286586 25312610 
3181.761 25340568 25370284 25400634 25430322 25457724 25481020 25499606 
3185.136 25513662 25523852 25532040 25540088 25549014 25559908 25572982 
3188.512 25587954 25604646 25622922 25642290 25662432 25682714 25702154 
3191.887 25719730 25734848 25747084 25757208 25766666 25776722 25788888 
3195.262 25804008 25821940 25842054 25863612 25886014 25909050 25933002 
3198.637 25958080 25984252 26011164 26037828 26063406 26087226 26109358 
3202.013 26130612 26152360 26175692 26201488 26229962 26260514 26292160 
3205.388 26324054 26355668 26386898 26418096 26450070 26483242 26518250 
3208.763 26555304 26594228 26634808 26675890 26716162 26754148 26788474 
3212.138 26818394 26844442 26867952 26891394 26917656 26949138 26986790 
3215.514 27030480 27078508 27128694 27178814 27227108 27273184 27317322 
3218.889 27360408 27403498 27447156 27491984 27538016 27585326 27634050 
3222.264 27684266 27735900 27788882 27842472 27896206 27949492 28001898 
3225.639 28053288 28104010 28153856 28203000 28251088 28298014 28343638 
3229.015 28388452 28433024 28478414 28525292 28574020 28623882 28674214 
3232.390 28723414 28770358 28814296 28855616 28894746 28932748 28970610 
3235.765 29008616 29046698 29084428 29120780 29155044 29187184 29217058 
3239.140 29245448 29273696 29302902 29334452 29368944 29406206 29445494 
3242.516 29485562 29524608 29561458 29595510 29626618 29655848 29684444 
3245.891 29713924 29745434 29780136 29818144 29859596 29904604 29952810 
3249.266 30003720 30056908 30110850 30164300 30215944 30264434 30309446 
3252.641 30351514 30391668 30431434 30472306 30515564 30561030 30608916 
3256.017 30657842 30707020 30755708 30803618 30850750 30897494 30943676 
3259.392 30989650 31034844 31078692 31120264 31159210 31194808 31227492 
3262.767 31257652 31286352 31314090 31341902 31369648 31397570 31425000 
3266.142 31451858 31477686 31502728 31527740 31553570 31580686 31609944 
3269.518 31641196 31673950 31707418 31740852 31773720 31805806 31837218 
3272.893 31867984 31897724 31926218 31952500 31975682 31995658 32012600 
3276.268 32027510 32041884 32057188 32074272 32093362 32113622 32133888 
3279.643 32153084 32169960 32184626 32197222 32208466 32218956 32229268 
3283.019 32239794 32250538 32261994 32274592 32289118 32306072 32325492 
3286.394 32346870 32369218 32390994 32410846 32428194 32442868 32455866 
3289.769 32468364 32480932 32494500 32509000 32524318 32540210 32556742 
3293.144 32574244 32592888 32612998 32633998 32654788 32674506 32691724 
3296.520 32706264 32718304 32728918 32739100 32750174 32762468 32775902 
3299.895 32790552 32806094 32822854 32841366 32862558 32886826 32914062 
3303.270 32943692 32974578 33005502 33035602 33064384 33091810 33118236 
3306.645 33143804 33168912 33193626 33218626 33244520 33272422 33303440 
3310.021 33338428 33377356 33419974 33464848 33511196 33558052 33605092 
3313.396 33652740 33701400 33751892 33804680 33859664 33917160 33976708 
3316.771 34038376 34102132 34168404 34236984 34307976 34380844 34455592 
3320.146 34531856 34609964 34689852 34771288 34853716 34936444 35017860 
3323.521 35097240 35173940 35248356 35321348 35394604 35469168 35545788 
3326.897 35624764 35705192 35785888 35865808 35943908 36019680 36093372 
3330.272 36165248 36236196 36307120 36378380 36450084 36522048 36592696 
3333.647 36660108 36722232 36777224 36824324 36864104 36897868 36928100 
3337.022 36957104 36986256 37015948 37045824 37074476 37100892 37124280 
3340.398 37144636 37162248 37177880 37191520 37203144 37212064 37217836 
3343.773 37219896 37218236 37213148 37204804 37193904 37180728 37165712 
3347.148 37149724 37133340 37116988 37100568 37083244 37063256 37038716 
3350.523 37007900 36969944 36925572 36876660 36825656 36775456 36727712 
3353.899 36682968 36640676 36599656 36558600 36516464 36473072 36428388 
3357.274 36382848 36336984 36290620 36243936 36196940 36149832 36102736 
3360.649 36055892 36009168 35962044 35912844 35860376 35802800 35738688 
3364.024 35667676 35590240 35507528 35421852 35335728 35251556 35171212 
3367.400 35095516 35024144 34955800 34888328 34819716 34747960 34671940 
3370.775 34591344 34506816 34418684 34328168 34236016 34142776 34049484 
3374.150 33957036 33866400 33778468 33693560 33611104 33529378 33446346 
3377.525 33359930 33268488 33171594 33070036 32965318 32859664 32754642 
3380.901 32651536 32550316 32450154 32349690 32247468 32142058 32032896 
3384.276 31919978 31803950 31686354 31568822 31453248 31341012 31233366 
3387.651 31130162 31030822 30934284 30838832 30742798 30645114 30544392 
3391.026 30440284 30332932 30223190 30112624 30003186 29896298 29793196 
3394.402 29693844 29596678 29499678 29400500 29297054 29189418 29078900 
3397.777 28968130 28860080 28757222 28660056 28567862 28477742 28387000 
3401.152 28293028 28195114 28093406 27989636 27885680 27783088 27682290 
3404.527 27582996 27484254 27385110 27284826 27183542 27081576 26979600 
3407.903 26877752 26776244 26674162 26571048 26466056 26359154 26250516 
3411.278 26140642 26030442 25920622 25811146 25702258 25593118 25483516 
3414.653 25372954 25261932 25151216 25042074 24935836 24833240 24734350 
3418.028 24638078 24542912 24446576 24347318 24244684 24138502 24030246 
3421.404 23922014 23815528 23712178 23612600 23516156 23421620 23327210 
3424.779 23231006 23131712 23028352 22920824 22809936 22697120 22583952 
3428.154 22471720 22361330 22252748 22145274 22038104 21930056 21821266 
3431.529 21712366 21604502 21499102 21397454 21299482 21204316 21110632 
3434.905 21016932 20921966 20825562 20727926 20630350 20533522 20438108 
3438.280 20343930 20250430 20156118 20059812 19960720 19858596 19753898 
3441.655 19648080 19542912 19440472 19342212 19248720 19159094 19071250 
3445.030 18981900 18887864 18786512 18677230 18561020 18441110 18321340 
3448.406 18205366 18095606 17992850 17895884 17802774 17711164 17618818 
3451.781 17524868 17428696 17330994 17232282 17133314 17034646 16936414 
3455.156 16838754 16741391 16644223 16546767 16449161 16351232 16253497 
3458.531 16156403 16060261 15965100 15870683 15776183 15680674 15583606 
3461.906 15484842 15385242 15286318 15189371 15095500 15005010 14917420 
3465.282 14831425 14745754 14659381 14571621 14482713 14392967 14302795 
3468.657 14212607 14122507 14032596 13943286 13854609 13766977 13680456 
3472.032 13595320 13511603 13429371 13348727 13270078 13193527 13118938 
3475.407 13045828 12973038 12899236 12823536 12745393 12665147 12583723 
3478.783 12502451 12421876 12342202 12263021 12183308 12102826 12021814 
3482.158 11941431 11863071 11788300 11717559 11649961 11584142 11517516 
3485.533 11448214 11374671 11296855 11215620 11132563 11049660 10968334 
3488.908 10889810 10814765 10743197 10674867 10608857 10544621 10481414 
3492.284 10418657 10356147 10294222 10232782 10172266 10112436 10053123 
3495.659 9993616 9933608 9873133 9812396 9752514 9694437 9638839 9585519 
3499.516 9533052 9479712 9422923 9360760 9292240 9217504 9138010 9056670 
3503.374 8976427 8901002 8832792 8773586 8723347 8680990 8643909 8608725 
3507.231 8572361 8531640 8485449 8433690 8378322 8321609 8266695 8215467 
3511.089 8168804 8126029 8085991 8046667 8006907 7965969 7924023 7881980 
3514.946 7840379 7799491 7759079 7718064 7675400 7630514 7583576 7535599 
3518.803 7488638 7444345 7404000 7367736 7334036 7300744 7264994 7224800 
3522.661 7179152 7128929 7075613 7021563 6968462 6916950 6866555 6815863 
3526.518 6763595 6708406 6650364 6590109 6528517 6466497 6404284 6341979 
3530.376 6279582 6216623 6153706 6091538 6030689 5971595 5914390 5858503 
3534.233 5803026 5747522 5691757 5635596 5579543 5523531 5467492 5411058 
3538.091 5353827 5295999 5238615 5183116 5131312 5084845 5045087 5011970 
3541.948 4985156 4962734 4942626 4921747 4896648 4864044 4820956 4765577 
3545.805 4698382 4622021 4541656 4462913 4391815 4331873 4284153 4247145 
3549.663 4216564 4187858 4156312 4118311 4072688 4020047 3962563 3903483 
3553.520 3846048 3792900 3746275 3706940 3674760 3649198 3628715 3611175 
3557.378 3594737 3577465 3557587 3534203 3506311 3473778 3437340 3398167 
3561.235 3358730 3322468 3292553 3271721 3261305 3259803 3263509 3266179 
3565.093 3260337 3238872 3196479 3132062 3049170 2955517 2860651 2774242 
3568.950 2702586 2648977 2612275 2589242 2574843 2563644 2550912 2534281 
3572.807 2512385 2486691 2458999 2432143 2407820 2386930 2369072 2353148 
3576.665 2337357 2320568 2301481 2279697 2254516 2225740 2193636 2159103 
3580.522 2123808 2090779 2063279 2044436 2036180 2038877 2050928 2068872 
3584.380 2087782 2102632 2107493 2097637 2069571 2022798 1960086 1887833 
3588.237 1815259 1751413 1704009 1676633 1668950 1677299 1695626 1718113 
3592.094 1739038 1754873 1763656 1764854 1758466 1744627 1723802 1696392 
3595.952 1664293 1630102 1597077 1568578 1546365 1530770 1520362 1512748 
3599.809 1505333 1496888 1487446 1477538 1469160 1462843 1459319 1458521 
3603.667 1460450 1465337 1473482 1484919 1498019 1510155 1517636 1516738 
3607.524 1506132 1486881 1463841 1443628 1432391 1433588 1446852 1468495 
3611.382 1492865 1514211 1528841 1535591 1536356 1534028 1532499 1534494 
3615.239 1540912 1550388 1560231 1566682 1565685 1553780 1530072 1496390 
3619.096 1458621 1423681 1399714 1391969 1402407 1429000 1468129 1515475 
3622.954 1568046 1625413 1688541 1758899 1837053 1920514 2003591 2078127 
3626.811 2134662 2164665 2164831 2138692 2099136 2063545 2049230 2066175 
3630.669 2115117 2190339 2282827 2383165 2483559 2578676 2666013 2746198 
3634.526 2822263 2898074 2977335 3062183 3152654 3247217 3344539 3443886 
3638.384 3545561 3651035 3762117 3878944 4000852 4125536 4250792 4375415 
3642.241 4500576 4628820 4763299 4906064 5056082 5209876 5360871 5502289 
3646.098 5627641 5732044 5812764 5868780 5899713 5905288 5887487 5851618 
3649.956 5807122 5767903 5747556 5754741 5791273 5849939 5918522 5981203 
3653.813 6022793 6031663 6001863 5935552 5842685 5739498 5642746 5565078 
3657.671 5511383 5479136 5460513 5445012 5423002 5387071 5333398 5262460 
3661.528 5178422 5087930 4997390 4912163 4834626 4764773 4701531 4644057 
3665.385 4593156 4549927 4515675 4489260 4467265 4445171 4421271 4403196 
3669.243 4410961 4478681 4647741 4951138 5408610 6023063 6788062 7694893 
3673.100 8733490 9886827 11103669 12282687 13271205 13883652 13978699 
3676.476 13513756 12549958 11213920 9650053 8002215 6389825 4915145 3658086 
3680.333 2657845 1915089 1393531 1039365 795016 615005 474440 362339 276823 
3684.673 215988 173922 139549 101368 49372 -20509 -105187 -196804 -285885 
3689.012 -365976 -434302 -491563 -538756 -576414 -603249 -618503 -622639 
3692.870 -617907 -607518 -595176 -583396 -573304 -564866 -558115 -553251 
3696.727 -550769 -551728 -556030 -563310 -573403 -586010 -602720 -625947 
3700.584 -658238 -700584 -750665 -803055 -850876 -887482 -908776 -914298 
3704.442 -906197 -888011 -863178 -833812 -801468 -767037 -732737 -701675 
3708.299 -677956 -666046 -668494 -685862 -715734 -754072 -795614 -835631 
3712.157 -869791 -895253 -909338 -910793 -899551 -877330 -847205 -814498 
3716.014 -784038 -760224 -745505 -740113 -742131 -748846 -758041 -768658 
3719.872 -780731 -794423 -809207 -823262 -833448 -837317 -834076 -824618 
3723.729 -812514 -802195 -797234 -799053 -806627 -816516 -824188 -825511 
3727.586 -817806 -800740 -776828 -749309 -722747 -701609 -688575 -684705 
3731.444 -688443 -695423 -701146 -702800 -701245 -702238 -714179 -744314 
3735.301 -795316 -863111 -936054 -999563 -1042073 -1058005 -1049081 -1021083 
3739.159 -980554 -932847 -880869 -825842 -769485 -716131 -673953 -654731 
3743.016 -669917 -724930 -812117 -909967 -988852 -1026570 -1017942 -973314 
3746.874 -910694 -848065 -800112 -774546 -772164 -787610 -812779 -840393 
3750.731 -866947 -892144 -916778 -939889 -957247 -964321 -958073 -938798 
3754.588 -910760 -880207 -853025 -833911 -824618 -824056 -829744 -838872 
3758.446 -849586 -860565 -870717 -877694 -878091 -869097 -848892 -819029 
3762.303 -783674 -749077 -721722 -705910 -703065 -710706 -723772 -736508 
3766.161 -743851 -744678 -740113 -733498 -728404 -727874 -733233 -744777 
3770.018 -760224 -777688 -794390 -808347 -818368 -824089 -826106 -824883 
3773.875 -821146 -815160 -806164 -793464 -776563 -755990 -734027 -715205 
3777.733 -703627 -703065 -714709 -735615 -760025 -780863 -792439 -792373 
3781.590 -782285 -766277 -749441 -736144 -728800 -727610 -731579 -738724 
3785.448 -747622 -757346 -767104 -776034 -783377 -787709 -788602 -786519 
3789.305 -783641 -782351 -784832 -791810 -802030 -813076 -821840 -825908 
3793.163 -825247 -821873 -818765 -818996 -824089 -832721 -840955 -843369 
3797.020 -835465 -814961 -783740 -746629 -711599 -687880 -683315 -703164 
3800.877 -746166 -803518 -860631 -901866 -917406 -905668 -873230 -831067 
3804.735 -793001 -770709 -771900 -797598 -841054 -889400 -928482 -948651 
3808.592 -947626 -928879 -898857 -863409 -826470 -788801 -749739 -708391 
3812.450 -665682 -625219 -593224 -576249 -580120 -605996 -648842 -696515 
3816.307 -733861 -748647 -735416 -697309 -644277 -590577 -549875 -534719 
3820.165 -552059 -599411 -665384 -731447 -780268 -800906 -793034 -763432 
3824.022 -723210 -683381 -651224 -630215 -619562 -614301 -608312 -597558 
3827.879 -580484 -559339 -538193 -521647 -512910 -513207 -521250 -534057 
3831.737 -547393 -557188 -559869 -553648 -537929 -514002 -485407 -456744 
3835.594 -434103 -422617 -425299 -441717 -467468 -495468 -518238 -531111 
3839.452 -533064 -527339 -518436 -511619 -510030 -514928 -526114 -541403 
3843.309 -558678 -575388 -589121 -597922 -599874 -593621 -579392 -557850 
3847.167 -530714 -500135 -467236 -432746 -396135 -357038 -316712 -279958 
3851.024 -255255 -254295 -289660 -369221 -488915 -629454 -762969 -863310 
3854.881 -916679 -925209 -899650 -853720 -798789 -742693 -690097 -642722 
3858.739 -601694 -567579 -540940 -522308 -511156 -505993 -504470 -504636 
3862.596 -505662 -508839 -515822 -527802 -543819 -559339 -568969 -567248 
3866.454 -552456 -527968 -501492 -482230 -479251 -497355 -533792 -578631 
3870.311 -617709 -639744 -640009 -622672 -596301 -572013 -558214 -558678 
3874.168 -571120 -588757 -602621 -604441 -590146 -559770 -517146 -468759 
3878.026 -421889 -384118 -362004 -358428 -372896 -400637 -433011 -460517 
3881.883 -476802 -478821 -469520 -455354 -445490 -448469 -469123 -505927 
3885.741 -550504 -590742 -613937 -613110 -588360 -545705 -494542 -445490 
3889.598 -408350 -389249 -389878 -407059 -433739 -461576 -483587 -495799 
3893.456 -497553 -489809 -474385 -453136 -426954 -396698 -363195 -327969 
3897.313 -293402 -262673 -239327 -225816 -222934 -229690 -243268 -260421 
3901.170 -278998 -297574 -317076 -338398 -362666 -389084 -415831 -439201 
3905.028 -456181 -464621 -464158 -455983 -442643 -426126 -408549 -390971 
3908.885 -374253 -358892 -345748 -335816 -329260 -326049 -324658 -322837 
3912.743 -318698 -310586 -299031 -285885 -274859 -269296 -271812 -283104 
3916.600 -301249 -322837 -344093 -361772 -374154 -380874 -382132 -378226 
3920.458 -368923 -354025 -333697 -309229 -282839 -258103 -238499 -226544 
3924.315 -223398 -227935 -237737 -249328 -259858 -267210 -270355 -269031 
3928.172 -263236 -253202 -239890 -224690 -209787 -197997 -192433 -195181 
3932.030 -206972 -226643 -250917 -276316 -298931 -316381 -327638 -333233 
3935.887 -334226 -332240 -328664 -323930 -318036 -310818 -301680 -290918 
3939.745 -279163 -267839 -258633 -253401 -253401 -258633 -267938 -278965 
3943.602 -288898 -295620 -298004 -296614 -293534 -291283 -292475 -298733 
3947.459 -309759 -324327 -339888 -354025 -364718 -371604 -374716 -375345 
3951.317 -374551 -373491 -372399 -371869 -371869 -372200 -372763 -373127 
3955.174 -372233 -369750 -364983 -357634 -348662 -339093 -330386 -323930 
3959.032 -320023 -318731 -319228 -320519 -321645 -322870 -324790 -328068 
3962.889 -333233 -340484 -348794 -357236 -364023 -367830 -367897 -363957 
3966.747 -356607 -346377 -334524 -322009 -309394 -297806 -287508 -278435 
3970.604 -271249 -265190 -260189 -256315 -253335 -251944 -252374 -254792 
3974.461 -259030 -264262 -269428 -273336 -274925 -273898 -270157 -264925 
3978.319 -259262 -254229 -250917 -249560 -249725 -250752 -251348 -250454 
3982.176 -247440 -242109 -234989 -226842 -219027 -212171 -207336 -204819 
3986.034 -204289 -205846 -208959 -213463 -219291 -226246 -233730 -240917 
3989.891 -246944 -250652 -251381 -248897 -243864 -237473 -231114 -225782 
3993.749 -222603 -222140 -224425 -228862 -234989 -241513 -247440 -251944 
3997.606 -254394 -254030 -251547 -247440 -242837 -238665 -235585 
##END=
